 ECG Channel 
3525.920633
3525.786522
3516.287031
3516.108217
3525.808874
3523.998383
3513.604821
3511.436702
3519.550385
3521.942022
3512.286068
3506.966353
3518.410446
3525.026563
3519.036295
3513.873042
3519.259813
3523.350182
3515.080037
3506.340504
3513.314249
3521.383228
3522.523167
3516.175272
3517.292859
3524.132493
3520.712676
3512.531938
3509.268583
3518.410446
3522.992554
3513.426007
3508.754493
3521.718505
3525.026563
3519.282164
3515.012981
3518.522205
3521.78556
3507.502795
3490.381359
3487.855612
3493.398844
3500.439644
3492.929458
3485.39692
3500.909031
3513.381304
3522.143188
3537.834112
3569.931217
3573.127517
3555.849618
3548.764115
3544.047897
3537.051801
3524.959508
3518.432798
3522.053781
3521.047952
3507.346333
3502.786577
3508.262754
3510.341467
3500.77492
3492.728292
3497.198641
3504.194737
3500.77492
3492.772996
3493.510603
3500.193775
3495.097577
3477.909086
3461.659367
3513.828339
3655.784268
3884.330855
4284.985874
4787.654255
4868.969902
4395.425844
3804.95981
3329.761723
2881.184564
2408.646334
2203.278506
2358.824296
2635.136561
2957.068736
3198.355818
3360.495372
3497.623324
3570.244142
3590.450119
3612.578346
3633.074896
3644.049602
3651.336271
3667.384823
3690.183603
3705.740417
3710.233117
3719.553795
3740.676193
3752.656728
3752.790839
3759.272845
3776.886019
3793.180441
3800.064778
3808.737255
3827.825645
3846.936386
3854.647738
3860.459192
3881.134555
3905.319143
3918.193748
3926.776818
3947.027498
3977.314112
3995.754301
0
10.19239547
39.83080862
76.82294569
113.1445304
140.4583622
163.3689002
198.5728977
239.0519069
270.0314248
297.6358292
330.1576173
366.83683
388.1156907
397.6822373
414.9601358
435.4343337
444.3973833
433.6685459
416.6588684
396.8775745
362.1206119
303.0002478
236.2802906
175.7964701
106.9307455
25.45863693
-55.0076431
-120.0288677
-172.220191
-231.1617412
-289.1198145
-326.5366347
-349.4248211
-376.023397
-402.3314002
-418.9610981
-425.7560284
-436.7083832
-451.9299211
-459.462459
-455.3944415
-453.9639299
-463.0610899
-468.2690463
-462.0329096
-456.0649939
-460.0659561
-464.1116219
-458.501334
-453.1816188
-459.1495346
-465.2962643
-460.5353428
-454.5897787
-454.8132962
-466.8832382
-465.7432992
-459.8424387
-465.1398021
-472.9852644
-474.8851627
-470.3477586
-471.5100493
-479.8696017
-485.4575378
-479.6907878
-477.567372
-484.2281919
-487.9385815
-483.0435494
-482.9988459
-494.979381
-505.1047212
-501.014352
-497.5274798
-506.2223084
-515.095951
-512.033762
-505.2388317
-507.2951922
-515.2300614
-517.5322911
-515.2300614
-517.7558086
-526.3165267
-527.4564657
-520.7509423
-520.7509423
-529.088143
-529.8257506
-523.8578348
-518.8733958
-526.9647273
-530.4292477
-525.3330499
-523.0978755
-530.0269163
-535.6372041
-529.2893087
-525.2212912
-530.5410064
-536.7100879
-533.0444018
-525.4001052
-527.1882447
-536.4865704
-537.2018262
-531.8374076
-533.1785122
-540.6663466
-540.1522565
-530.3174889
-527.7917418
-538.2523582
-540.7557536
-530.9880413
-528.9316808
-537.2688815
-541.7168786
-538.4758757
-535.5254454
-539.2134832
-543.5497217
-540.7334019
-535.123114
-537.9841373
-545.5166752
-545.4719717
-539.4370007
-538.185303
-539.4370007
-539.0793728
-532.7091256
-533.6255471
-542.8344658
-545.0472885
-537.7159164
-533.3796779
-537.0677158
-541.336899
-535.0560588
-532.5973669
-540.3310705
-545.5390269
-538.5876344
-532.3291459
-538.4535239
-550.0540793
-550.4117072
-548.2659397
-554.189152
-565.8567626
-563.4874777
-548.5565124
-557.9889486
-576.1162133
-568.4942685
-541.4933612
-523.0978755
-512.1902242
-486.0386832
-478.8637732
-487.3574361
-507.6751718
-528.5740529
-531.4574279
-530.9433378
-536.3971634
-541.247492
-541.6051199
-542.3427275
-550.3670037
-558.5477422
-554.6138352
-549.2494165
-552.9821578
-563.465126
-561.2970068
-554.8150009
-558.480687
-570.2153528
-571.4894022
-565.297969
-573.0763761
-598.445606
-565.6555969
-421.6880109
-195.1530808
179.4398045
677.5707814
816.151597
380.8513738
-207.4018368
-714.7640842
-1172.25959
-1622.982517
-1854.591293
-1739.278643
-1470.208343
-1134.97688
-871.5839233
-715.2334708
-584.453414
-494.6888083
-467.2632178
-450.6111682
-435.4790372
-415.3401155
-400.0068188
-393.5918681
-382.5054029
-360.3101206
-344.4850855
-339.2994808
-332.1022191
-314.7349137
-297.479367
-290.0138843
-281.8778493
-265.985759
-252.3288432
-245.779782
-238.1578372
-217.3707148
-192.515575
-180.6915022
-173.1142608
-156.9763013
-132.8140656
-113.7256758
-102.5051001
-84.17666962
-52.28073028
-24.16223576
-6.884337292
15.28859321
53.3983175
88.78112898
111.8928327
138.5361121
176.9587609
217.3930666
248.8196193
275.2393812
308.5658322
340.9088064
360.1089549
371.5977516
389.4567954
406.6676386
406.1759002
391.1778797
378.3256267
358.7678503
315.9642596
256.0392327
188.3581505
121.4817311
47.13982906
-30.75600037
-94.65963777
-149.8907983
-208.1170926
-267.2374567
-316.8583294
-348.1954751
-374.7716993
-403.3819322
-427.365354
-439.3905925
-444.6432524
-456.579084
-469.7442615
-473.9240377
-470.0124824
-472.2476569
-482.8423837
-484.6975785
-478.4614418
-478.5732005
-480.8307267
-479.4449186
-471.0853661
-466.7938312
-473.4993545
-478.9084767
-473.9016859
-470.0571859
-474.5275348
-477.2767994
-470.9289039
-465.6091887
-473.5217063
-483.2670669
-482.8647355
-476.8521162
-478.8637732
-482.3729971
-482.8423837
-479.5119738
-483.1106047
-494.4429391
-498.6450671
-495.7840438
-494.5770496
-504.9929625
-511.8325963
-508.099855
-506.5799363
-513.1737009
-518.0240295
-513.9336603
-513.8219015
-523.6790208
-528.5293494
-518.7616371
-514.6265643
-522.1591022
-529.6916401
-527.3447069
-522.3379162
-524.6177941
-533.5137884
-533.0891053
-526.4506372
-528.5069976
-538.9676141
-537.2912332
-529.3340122
-528.4846459
-538.4088204
-540.5322362
-535.3913349
-535.0560588
-541.6721751
-544.6896606
-534.3408029
-527.5011691
-538.0511925
-546.3883932
-541.336899
-533.6031954
-535.6372041
-540.9792711
-537.0900675
-531.3680209
-535.1901692
-545.3825647
-546.5672072
-540.0404978
-539.5934629
-547.0812973
-548.243588
-541.6498234
-539.5264077
-546.9695386
-545.2931577
-534.6090239
-533.9161198
-542.7227071
-544.1979223
-537.045364
-534.4078582
-542.9462246
-547.9753671
-542.11921
-535.212521
-537.1794745
-545.1590473
-541.8062856
-536.4418669
-540.107553
-549.0706025
-548.6235677
-541.247492
-544.7790676
-554.7479456
-550.6128729
-533.5808436
-532.4632564
-541.3816025
-544.5108467
-539.1911315
-537.5371024
-545.4719717
-554.1220968
-553.2503788
-556.8490096
-568.2483993
-578.5749052
-565.1191551
-552.9598061
-569.1201173
-577.5243732
-560.2017713
-530.6974686
-519.3874859
-503.5624508
-488.2068024
-489.6149623
-498.8015293
-519.6557068
-533.6255471
-539.8840356
-542.0074513
-551.0152043
-551.8645706
-549.5176374
-549.8752653
-557.8101346
-562.7722219
-558.0783556
-556.6478439
-563.3980707
-567.0861086
-562.3475388
-558.1454108
-564.247437
-574.5068877
-575.535068
-574.9539226
-592.1200624
-597.8197572
-501.707256
-304.4978147
25.34687821
508.7257038
820.7113529
539.0793728
-18.12726475
-548.7576781
-1045.346385
-1532.457952
-1841.135543
-1834.407667
-1603.93883
-1264.952274
-946.7304881
-750.3257096
-618.2492516
-510.893823
-472.9405609
-451.2817206
-442.8551129
-428.6841069
-406.1311968
-392.2507634
-386.863993
-372.871801
-351.3470711
-335.1867599
-330.1129139
-320.6134225
-301.9050124
-287.8010616
-282.7048639
-274.4123667
-256.6650816
-239.5883488
-234.9168342
-225.8196742
-203.8255577
-180.9150196
-170.2755893
-160.2843595
-137.5079319
-113.7480275
-99.30880061
-87.35061733
-64.12715484
-33.0358783
-6.392598914
13.18752923
40.94839584
78.70049223
111.870481
136.5021034
168.1298218
207.5806508
245.2209884
273.0489103
301.9944193
339.0312599
365.5851323
378.3256267
390.3285134
405.9523828
415.5189294
410.0651038
394.8659175
374.5928853
345.5579693
293.3889977
225.5514533
157.266874
89.00464642
11.91347979
-68.1281171
-138.4467052
-189.9674761
-243.0528692
-297.6805327
-340.7970477
-369.5637428
-396.6093536
-425.174883
-443.9503484
-449.0688979
-459.462459
-473.0076162
-475.6674738
-472.0911946
-466.7714795
-474.9745697
-483.8929157
-482.5965145
-477.8579447
-480.7636715
-483.9823227
-479.6013808
-473.812279
-475.7121772
-482.7976802
-483.8482122
-476.2933226
-473.0523197
-484.652875
-488.1397472
-481.5459825
-480.7636715
-488.3632646
-490.0172937
-484.7646337
-477.6344273
-482.5294593
-488.855003
-486.7762907
-484.5411163
-492.699503
-504.948259
-499.3603229
-492.0289507
-497.6392386
-509.3515526
-510.1562154
-507.3398956
-517.3981807
-529.6469366
-526.897672
-517.9122708
-521.1085702
-535.033707
-543.1026868
-538.9676141
-536.7994948
-547.6847944
-569.3659865
-568.7624894
-563.196905
-568.6954342
-580.4971552
-586.0850914
-588.6331902
-597.0821496
-610.3590858
-609.1297399
-602.737141
-610.694362
-621.1773302
-613.9800684
-606.1346061
-605.8663852
-613.4436266
-629.4027721
-630.1850832
-636.845903
-645.6971938
-643.9090543
-633.3366791
-637.6058623
-663.4891824
-684.9468571
-682.6446274
-675.5367727
-677.4143192
-681.4376332
-683.7175111
-681.6164472
-697.5308892
-721.4696075
-716.2169476
-697.7544067
-706.4045318
-712.7747789
-713.7135522
-710.2713836
-712.595965
-715.1887673
-712.3053923
-703.9681916
-698.6261247
-706.3598283
-720.3967238
-721.4696075
-721.9389942
-735.2829856
-746.3470991
-743.5531311
-737.7193257
-742.5696543
-731.6396513
-709.1984998
-691.0712351
-675.3579587
-663.0644993
-647.9323683
-630.5650628
-617.4445888
-614.2035859
-611.9013562
-602.4018648
-597.8197572
-595.2269548
-589.706074
-578.3066843
-581.391225
-595.6739897
-604.4582253
-596.1433764
-579.4466233
-585.8615739
-599.4514345
-582.7770332
-551.9763293
-530.8539308
-514.8500818
-494.018256
-493.8170903
-509.5080149
-526.4953406
-530.2951372
-529.2222535
-543.4156112
-554.099745
-549.0929543
-539.1240763
-548.4000502
-562.5487045
-563.7556987
-552.8256956
-549.1376578
-561.9452074
-567.9131231
-562.7275184
-561.0064341
-575.0880331
-581.9276669
-574.2163151
-564.1133266
-580.9888936
-606.7157515
-547.8189049
-386.7745861
-130.5788911
307.3141345
760.6075121
719.9273372
207.6700577
-371.0613097
-872.3438826
-1378.074453
-1784.205649
-1915.209224
-1761.630388
-1453.399831
-1109.048856
-855.7588882
-703.3646945
-578.329036
-526.7188581
-519.2757272
-506.4011224
-482.4177006
-458.6130927
-448.0407176
-444.1068106
-435.6578512
-417.0835515
-409.8192346
-409.3051445
-403.2031182
-383.8465075
-369.0496527
-370.0107777
-366.0992224
-357.5608561
-341.1770274
-330.2246726
-318.9817451
-301.0332943
-289.3656837
-285.5658872
-284.4259482
-270.5455149
-251.7476978
-240.3483081
-226.9819649
-201.0315896
-169.7838509
-147.6109204
-132.7917138
-105.924917
-64.01539612
-28.94550907
-0.379979656
37.9085586
83.99785566
115.3350014
130.2883184
158.0715368
196.0695024
224.2327004
249.6019303
275.1276225
292.6066867
303.6931519
300.2062798
298.2169745
286.0129221
253.133506
212.3192206
157.4456879
100.7169605
36.16512253
-42.98240459
-127.8296265
-193.7225692
-248.4172879
-298.2840298
-346.9661292
-395.7152838
-430.0252116
-460.5353428
-490.2855146
-515.4982824
-528.909329
-533.6702506
-547.3495182
-561.5205242
-562.0569661
-555.0385183
-546.9695386
-540.0404978
-533.4467332
-526.4059337
-529.1551982
-525.4671604
-512.1902242
-499.0250467
-506.9375642
-519.5886516
-520.6391836
-507.6975236
-505.3952939
-511.4749684
-506.9152125
-499.0921019
-496.722817
-504.769445
-496.5216513
-483.781157
-487.3797878
-505.4847009
-503.5400991
-488.4303198
-485.1669651
-496.4322444
-510.2679742
-500.2990961
-493.4594623
-500.0979304
-504.2106514
-498.7121223
-498.7791775
-509.1727387
-518.9180993
-513.3078114
-511.2067474
-516.8617388
-534.0502303
-540.3087187
-529.8257506
-516.9511458
-527.6352796
-543.5050182
-536.4195152
-524.193111
-532.060925
-536.6206809
-529.0657913
-528.5740529
-539.4593524
-547.4836287
-537.134771
-531.971518
-540.375774
-550.0317276
-546.1648758
-541.3816025
-547.5730357
-552.6915851
-541.4933612
-517.6664016
-520.4380179
-533.6926024
-541.9627478
-536.7547913
-535.1901692
-540.5769397
-547.7518496
-545.2261025
-539.2134832
-544.2426257
-553.2056753
-548.4671054
-550.3670037
-553.9432828
-549.3164717
-538.5876344
-533.9384715
-535.8383698
-541.6274716
-536.1065908
-531.9491663
-534.0055268
-542.0745065
-543.348556
-539.3028902
-543.9073496
-553.406841
-550.1434863
-538.7664484
-528.9540325
-529.7363436
-540.5992914
-537.8053233
-534.4972652
-536.9112536
-541.9403961
-541.3145472
-539.8616838
-551.4175357
-565.9014661
-567.1084603
-565.3203208
-556.8713614
-560.8276201
-567.8237161
-562.9957393
-547.1260008
-528.5740529
-512.3466864
-493.1465379
-488.2962094
-492.4536338
-498.6450671
-503.2718782
-519.5886516
-541.5604164
-546.9248351
-536.9336053
-538.9676141
-555.7984776
-569.0977656
-562.9286841
-554.9714631
-555.2843875
-555.8878846
-550.255245
-548.1094775
-556.8937131
-568.270751
-570.7517947
-558.7712596
-559.8217916
-571.8470301
-593.4164635
-570.3941668
-452.9804531
-252.082974
100.851071
605.3746468
853.8813417
484.4740611
-110.1270449
-623.814836
-1050.554341
-1508.161605
-1814.156987
-1730.65087
-1483.775852
-1176.931104
-904.8880225
-725.448218
-594.2434781
-495.7840438
-465.8997614
-443.3915548
-425.7113249
-415.8989091
-409.2157375
-396.3411327
-374.2352574
-357.6949665
-348.8660275
-338.7183355
-321.1722161
-311.0915793
-310.4657305
-302.0614746
-286.0129221
-269.2044102
-259.1461252
-248.2831774
-228.6806975
-206.8430432
-199.7351885
-191.8003192
-172.6895777
-154.294092
-139.2737197
-122.2193387
-98.3476756
-73.9619224
-52.03486109
-37.52857894
-10.90765129
23.04464853
54.67236694
79.75102422
106.0813792
146.2251122
183.1948976
208.787645
237.1520087
275.1052708
307.6494107
328.0342016
346.6979082
372.9835597
398.5092519
411.272098
406.6452869
404.4101124
399.5597839
367.5073823
321.0157539
270.9478463
216.8119212
146.8956646
65.73648044
-6.549061125
-69.22335258
-134.0657632
-203.9596682
-261.4260031
-301.2121083
-336.6396232
-372.6706353
-402.3984554
-414.0884178
-424.3255167
-442.6762989
-455.5956072
-458.0990026
-458.1213544
-465.1398021
-474.0581482
-474.3934243
-468.2466946
-470.7053865
-478.796718
-472.0241394
-460.4459358
-464.6480637
-473.6558168
-471.7559185
-462.5917032
-459.9541974
-468.3584533
-473.4546511
-470.5042208
-466.1009271
-470.2583516
-475.1757354
-468.470212
-465.3856713
-474.0357964
-482.1718314
-476.0921569
-469.9230754
-475.5110115
-485.9939797
-485.3234274
-479.4002151
-483.9376192
-493.9512007
-495.1805467
-490.7996047
-493.7723868
-504.2330032
-505.5070526
-497.9074595
-499.5614886
-507.5857648
-509.932698
-503.3612851
-504.076541
-512.033762
-518.5381196
-516.5711661
-511.9890585
-515.1183027
-522.3826197
-521.8238261
-515.2747649
-518.9851545
-525.9588988
-525.1765877
-517.8228638
-520.5497766
-527.948204
-527.5235209
-521.4885499
-523.8578348
-530.920986
-532.1056285
-526.1824162
-523.8354831
-531.5468349
-532.3514977
-527.8811488
-524.4389802
-531.8597593
-535.9054251
-529.2446052
-523.8354831
-528.998736
-536.1959977
-533.111457
-527.2329482
-531.0327448
-536.7994948
-536.3748117
-530.3845442
-531.8821111
-536.4865704
-535.8607216
-526.6965063
-525.9812505
-535.7489628
-538.8111518
-534.0055268
-532.0385733
-538.5429309
-541.7839339
-535.1678175
-531.010393
-537.4253437
-541.4263059
-535.9054251
-530.920986
-534.072582
-539.5487594
-536.8665501
-531.5915384
-534.1843407
-541.7615821
-539.9287391
-534.4078582
-535.0560588
-540.6216431
-541.336899
-537.7159164
-549.4729339
-565.2309138
-566.4602597
-545.0472885
-545.1366955
-562.1016696
-562.7722219
-542.8791693
-508.0775032
-492.0513024
-482.3953488
-476.9638749
-484.2281919
-493.0347792
-509.3515526
-522.4720266
-522.7178958
-526.4506372
-537.3582885
-542.0074513
-538.1405995
-542.2309687
-553.4515445
-557.7207276
-550.9257973
-550.0317276
-560.7605649
-563.6439399
-557.7654311
-555.8208294
-564.9179894
-571.0870708
-568.0025301
-568.9860069
-593.2376496
-579.8936581
-453.338081
-226.1773021
151.4777722
635.5718536
780.1652885
370.1001847
-199.4669675
-699.1849183
-1166.649302
-1605.414046
-1830.026726
-1747.034698
-1482.390044
-1140.922444
-863.5819988
-699.9672294
-572.2717133
-489.0785204
-462.524648
-450.5888165
-444.4867902
-424.5266824
-400.8561851
-391.1108245
-384.4947081
-368.1779347
-348.1060681
-338.6065768
-331.8339982
-315.7407422
-296.9652768
-286.191736
-281.4755179
-269.9867213
-250.0266135
-237.9790232
-233.7768953
-221.4834358
-201.2327553
-185.0277406
-176.0870428
-160.0161386
-134.9151295
-109.9705827
-95.37489359
-78.36521606
-50.55964596
-22.35174446
-1.139938967
20.80947409
56.46050649
95.5313558
124.9462515
152.5730077
189.6992552
230.6923545
263.102384
289.164518
319.1605591
354.2527979
379.6667313
391.9825425
405.8406241
423.7890749
429.4217145
416.2341852
395.1117867
373.8552778
338.9418529
281.8778493
213.2579938
146.8062576
77.24762884
-1.743436068
-78.54403002
-141.2853767
-195.3765983
-250.2501309
-302.9555443
-339.724164
-364.9816352
-390.2167547
-416.6141649
-433.3332698
-439.5023512
-447.5936827
-461.9211509
-468.3808051
-465.1398021
-464.3798428
-471.3312353
-475.6227703
-468.649026
-463.1281451
-467.6655492
-472.8735057
-469.8560202
-463.485773
-465.2068573
-471.4206423
-470.3477586
-465.9891684
-468.6713777
-474.9969214
-473.4770028
-465.8103544
-468.4255085
-478.0144069
-478.4614418
-472.4041191
-472.3817673
-479.3778633
-483.0435494
-479.757843
-481.3671686
-491.4701571
-496.7451688
-490.0172937
-484.9881512
-493.5935728
-502.7801398
-500.2543927
-495.5605263
-502.6907328
-512.0561137
-509.932698
-503.9647822
-508.9268695
-519.5215964
-521.8685295
-518.6275266
-519.6333551
-529.1551982
-531.189207
-526.0036023
-525.064829
-535.0560588
-537.9617856
-529.6692884
-525.6459744
-532.5973669
-538.4982274
-533.3349744
-529.6245849
-535.4583902
-541.8509891
-536.7994948
-530.3845442
-535.7936663
-544.3543845
-540.9345676
-534.6760791
-536.4642187
-543.259149
-543.080335
-535.6148524
-537.8053233
-546.0307653
-545.7848961
-539.3699455
-538.4758757
-545.0249368
-546.5225037
-540.8898641
-536.9112536
-542.7450589
-546.6566141
-542.1862653
-537.8053233
-542.8791693
-548.0424223
-545.6731374
-540.19696
-542.7674106
-549.204713
-547.1483525
-539.8840356
-541.0463263
-547.5283322
-546.2542827
-541.5827682
-539.9957943
-545.0025851
-546.8354281
-540.1522565
-537.9170821
-544.6449571
-548.9364921
-541.336899
-537.4700472
-544.1085153
-546.5001519
-540.286367
-536.7100879
-541.158085
-546.7013176
-544.1755705
-539.9957943
-544.5108467
-560.1570678
-565.8791144
-561.8334486
-554.3903177
-559.8441434
-568.8071929
-560.9840823
-550.344652
-535.123114
-511.3855614
-484.3175989
-475.2204389
-494.4205874
-503.897727
-504.0094857
-517.4428841
-532.7985326
-542.8791693
-539.6158146
-536.2854047
-546.8354281
-556.8713614
-554.8597044
-549.5623409
-554.6808904
-561.9899108
-561.3193585
-557.9218933
-560.0229573
-566.7284807
-567.4213847
-562.5934079
-562.9957393
-572.8305069
-590.9354199
-588.7225972
-498.3544944
-316.6571637
7.309020437
501.9084217
822.3877337
535.0784105
-22.82113109
-544.7343641
-1019.15014
-1500.472605
-1819.32024
-1815.60985
-1580.603609
-1251.205951
-945.7023079
-741.2061979
-595.4504723
-497.7286455
-474.683997
-451.9746246
-433.5120837
-419.7434091
-410.1768625
-396.4305397
-373.8999812
-355.7056613
-347.6590333
-339.7688675
-322.9603556
-306.5541752
-300.5862594
-293.0313698
-274.7252911
-257.5815031
-249.0878402
-242.3376134
-226.9149097
-207.6924095
-196.7847582
-189.0287029
-172.9577986
-150.181371
-132.1211615
-121.1688067
-102.8180245
-75.81711719
-52.28073028
-35.71808764
-11.57820363
22.95524156
55.43232625
79.88513468
107.4671873
148.5720454
187.7993569
217.2142526
244.7739535
280.7602621
315.6960387
343.658071
363.5734753
386.8192895
408.5004817
417.9552696
418.2011388
416.2341852
412.2108712
387.8921733
344.1051059
295.5794687
243.2763867
175.9752841
94.43612032
18.12726475
-49.46441048
-113.3456961
-179.9538946
-239.2307209
-284.3365412
-321.9321754
-359.5278096
-391.3790454
-408.99222
-420.4810167
-437.334232
-454.5003718
-459.0154241
-456.5120288
-463.7316422
-473.1417266
-474.0357964
-464.9386364
-464.3127876
-472.851154
-475.3545493
-467.5761423
-465.1398021
-471.2418284
-473.8793342
-467.5537905
-463.485773
-468.9395987
-474.4828313
-470.5265725
-466.1679824
-473.3652441
-482.4624041
-479.0872907
-473.4322993
-479.1543459
-486.1057384
-486.9104012
-481.0542442
-483.4458808
-491.3583984
-492.8336135
-485.792814
-484.7199303
-493.750035
-497.3486659
-494.9123257
-495.1134914
-504.3447619
-510.1562154
-507.0940265
-507.1610817
-516.8840905
-522.4496749
-516.4594074
-512.4137416
-518.9180993
-528.8199221
-528.1717215
-520.0133348
-520.3039074
-527.5458726
-528.9540325
-522.5390819
-529.0434395
-539.7052216
-539.5934629
-530.4292477
-526.4953406
-532.9996983
-537.4253437
-530.920986
-527.8587971
-534.8325413
-541.158085
-536.6430326
-530.8315791
-536.7547913
-540.9345676
-532.2844425
-528.1717215
-534.2737477
-540.6886984
-539.8840356
-530.8315791
-532.8208843
-537.8500268
-538.5205792
-531.3903727
-524.9977738
-532.9996983
-535.7713146
-530.049268
-534.2290442
-543.6614804
-544.4437914
-537.5818059
-533.5137884
-538.095896
-541.9850996
-535.212521
-528.5964046
-532.5973669
-534.8548931
-531.5021314
-529.1328465
-534.7431343
-540.8898641
-542.7227071
-535.6148524
-533.9608233
-541.2251402
-537.6935646
-528.6187564
-529.3116604
-538.6770414
-542.0074513
-537.9617856
-535.1901692
-539.7722769
-539.9287391
-533.0667535
-528.5293494
-531.8374076
-532.1279802
-526.6294511
-528.7975703
-537.7382681
-545.2931577
-547.1483525
-547.5059804
-555.150277
-551.1716665
-548.7576781
-547.0142421
-546.1872275
-539.7722769
-514.045419
-485.9045727
-468.6937295
-472.6946917
-488.4526716
-486.1951454
-497.6168868
-517.7334568
-527.076486
-524.103704
-523.4555034
-531.7032971
-542.7003554
-541.7392304
-538.5429309
-545.0472885
-551.7304601
-548.5118089
-544.7567159
-550.1434863
-558.0336521
-554.8373526
-547.37187
-551.5963497
-561.8334486
-569.41069
-581.9500186
-566.9743499
-457.2719881
-250.1383722
107.4895391
604.0335422
844.7171265
484.4517093
-78.25345734
-587.515603
-1048.408574
-1512.609603
-1804.501033
-1733.377783
-1496.382236
-1182.787261
-897.8025195
-712.5512615
-588.1861553
-499.1368054
-466.9949969
-439.7482204
-425.3313452
-417.9552696
-402.5325659
-380.3149319
-366.8144783
-362.724109
-350.9223879
-331.409315
-317.6853439
-313.1926433
-303.7602071
-283.6883406
-269.2044102
-264.0188055
-257.067413
-238.6719273
-221.4387323
-214.4202846
-205.6584007
-186.3464935
-163.7935834
-150.6284059
-140.8383418
-120.1629782
-94.88315521
-76.21944859
-60.37206177
-35.00283182
-0.8046628
27.69381138
49.28559652
76.26415208
112.1834054
147.7673826
174.5894759
205.4348833
245.6903751
284.5377069
309.1022741
329.3529545
357.0020624
383.7347488
397.3469612
401.8173101
410.2439177
414.7142666
401.034999
371.4189376
336.9748994
296.2723728
235.900311
161.5137054
88.64701851
19.71423861
-50.42553549
-125.3262312
-187.9334674
-233.3745639
-277.4969074
-325.463751
-362.902923
-385.8581645
-403.3819322
-427.6559267
-444.9338251
-449.8512089
-452.466363
-461.5411713
-471.4206423
-469.9007237
-462.7705172
-465.6538922
-474.3263691
-475.4439563
-468.4031568
-469.2301714
-475.3321976
-475.1086801
-468.3584533
-466.726776
-475.8462877
-477.0532819
-468.738433
-466.3244446
-474.9969214
-481.2554099
-476.4497848
-471.1524214
-476.1368604
-481.858907
-477.9249999
-474.3934243
-479.8919535
-486.7986425
-485.5022413
-481.8812587
-486.7986425
-497.862756
-500.2320409
-495.2923054
-497.5721833
-506.1105497
-509.5974218
-505.3952939
-505.6411631
-514.4030469
-518.8733958
-514.4924539
-513.4866254
-520.08039
-525.243643
-521.4885499
-518.0016778
-525.2883464
-532.7091256
-528.9763843
-524.2601662
-529.6245849
-537.7159164
-535.9501285
-530.8315791
-535.3689832
-544.1755705
-542.4321344
-534.1396372
-535.8607216
-544.6673089
-545.1590473
-536.3748117
-537.5371024
-546.3436897
-547.3495182
-537.9170821
-536.263053
-545.4049165
-550.0317276
-544.399088
-539.2581867
-543.080335
-547.0365938
-542.1415618
-536.4642187
-543.1250385
-549.6517479
-548.8023816
-537.2018262
-537.8053233
-548.2882915
-547.9306636
-539.1911315
-539.146428
-547.1707043
-548.243588
-539.6381664
-538.0735443
-545.360213
-548.2659397
-541.4263059
-538.006489
-544.1532188
-547.1483525
-541.7392304
-538.095896
-544.4437914
-548.9364921
-544.8014194
-539.4146489
-542.11921
-547.7518496
-545.8966548
-540.3310705
-544.2873292
-552.7809921
-560.1123643
-562.0569661
-565.1191551
-562.2804835
-560.7605649
-564.9403411
-564.7838789
-560.7158614
-539.6158146
-507.6528201
-484.0940814
-482.1047762
-497.4604246
-501.3049246
-502.2213462
-524.2601662
-540.2416635
-541.9180443
-537.7382681
-542.2756722
-553.3397857
-558.0113003
-551.8422189
-553.5185997
-564.6721202
-564.1356783
-557.7430794
-559.5759224
-569.8800766
-572.5175825
-566.0802801
-564.1133266
-571.3776435
-579.7595477
-585.7274635
-596.1657281
-549.3388235
-397.011685
-120.5876613
326.1343033
758.2829306
664.5173627
156.3728042
-394.038903
-865.7724697
-1345.865589
-1735.076515
-1832.507769
-1663.170953
-1366.160973
-1036.875074
-793.6880939
-645.8760078
-533.2455675
-487.5809535
-460.8035637
-441.2904908
-437.4012872
-425.4207522
-401.6831996
-381.2313534
-374.7493475
-366.0992224
-347.0778879
-328.4812365
-316.9253846
-312.343277
-299.9380588
-282.9283813
-275.2393812
-268.8467823
-252.0159187
-231.7652383
-219.6729445
-212.9227177
-201.0762931
-178.7916039
-160.8878566
-149.6002256
-133.8869493
-108.3165536
-83.14848937
-65.95999789
-48.45858198
-17.21084323
15.86973856
39.80845687
64.44007926
101.901603
142.8276471
173.6954062
201.2104036
237.3978779
277.2957417
306.5988787
328.436533
356.7114898
387.6239523
404.968906
408.120502
412.8814236
421.1739208
413.1496445
383.4888796
347.0778879
308.319963
251.9265118
176.1317463
97.90064071
27.91732882
-38.95909059
-111.3787426
-179.7303772
-232.4804941
-276.3346167
-323.7426667
-366.6356643
-392.9436675
-407.9863915
-426.7171534
-448.5995112
-458.9483689
-459.3954038
-465.0280434
-477.7908895
-482.820032
-477.8802965
-476.7403575
-485.6810553
-489.7043693
-483.870564
-479.1319941
-486.2398489
-490.3078664
-484.5411163
-479.8025465
-484.5858198
-491.0678257
-486.6421803
-481.2107064
-485.5916483
-493.4371106
-492.006599
-485.614
-486.4410146
-496.2757821
-498.5109566
-492.8112618
-491.738378
-501.1037589
-503.7412648
-498.8462328
-499.6732473
-508.3680759
-512.9278318
-507.6081166
-504.6576863
-513.6654393
-519.6110034
-516.6382213
-513.4419219
-520.6168319
-529.4457709
-527.3000034
-522.0249918
-526.9200238
-535.1678175
-535.6148524
-530.228082
-533.8490646
-542.7897624
-543.3709077
-533.8267128
-533.2232157
-542.2309687
-544.3767362
-537.9617856
-536.8218466
-544.5555502
-548.8247334
-542.3203757
-539.4370007
-544.1755705
-548.6906229
-545.1366955
-541.0016228
-546.8577798
-553.4515445
-549.2494165
-542.1639135
-545.4943234
-552.6021782
-550.076431
-542.0074513
-543.6614804
-552.088088
-553.5856549
-545.7848961
-543.9744048
-550.7022799
-553.1162683
-546.0084136
-543.1473903
-550.3670037
-554.3009107
-547.8412566
-543.0132798
-549.8082101
-554.5467799
-548.7129746
-543.4603147
-547.6400909
-551.0599078
-548.2212363
-540.9792711
-543.6391286
-551.2387218
-551.0152043
-544.1755705
-545.4943234
-549.4952857
-548.0424223
-541.0463263
-540.6663466
-548.422402
-551.5516462
-544.8461228
-540.9345676
-547.5283322
-552.177495
-545.7848961
-541.2251402
-546.7013176
-551.5739979
-546.1648758
-540.5769397
-544.2426257
-550.9034456
-550.5234659
-545.360213
-553.8315241
-568.3825098
-572.4505272
-565.476783
-553.4738962
-569.0530621
-579.3348645
-563.8674574
-541.3816025
-526.0483058
-511.4973201
-486.3739593
-483.7588052
-502.3778084
-513.6430876
-520.7062388
-528.3505354
-541.8286373
-550.165838
-546.6119107
-544.3320327
-553.13862
-560.8499719
-560.5370475
-555.4632015
-557.7877829
-563.6215882
-564.5827132
-558.8383149
-559.2853498
-569.321283
-573.6798732
-567.8237161
-567.2872743
-584.2746001
-605.8663852
-584.0287309
-461.0717846
-246.0032995
130.9812225
627.7710948
780.7911373
368.9602457
-190.2356971
-679.6718454
-1162.603636
-1614.019467
-1842.856627
-1756.489486
-1479.976056
-1141.928272
-867.1582779
-693.8652031
-554.1220968
-483.1106047
-469.8336685
-453.0475084
-434.272043
-419.139912
-409.5063102
-397.4810716
-375.8222313
-357.4043938
-350.6988705
-342.607539
-322.4462655
-304.6319252
-296.6300007
-289.5221459
-276.4910789
-260.129602
-252.1500292
-248.7078606
-231.8993487
-207.1112641
-192.8732029
-186.6817697
-172.1978393
-148.169714
-130.2212632
-118.7101148
-101.6557338
-74.02897764
-49.93379711
-32.72295388
-8.22544196
28.76669511
62.85310541
88.11057664
115.983202
153.6011879
192.9402581
221.818712
247.5008664
280.7155586
318.5347102
344.6862512
362.0982602
387.2439727
410.0204003
419.1175603
415.8318538
409.8415863
405.0359613
380.0020075
332.1022191
279.5756196
223.8974242
154.8752373
72.62081774
-7.957221026
-73.11255611
-133.216397
-201.0539414
-258.2967589
-297.9264018
-332.3257366
-370.7260335
-403.6278014
-421.5986039
-430.338136
-445.38086
-462.7258137
-468.9843022
-464.7598225
-465.6538922
-474.9522179
-477.6791308
-472.2476569
-473.0299679
-483.2894186
-484.6305233
-475.4886598
-470.1242411
-476.3603778
-480.3166366
-474.2816656
-470.5265725
-477.6120755
-483.1553081
-478.8637732
-474.4381278
-478.4167383
-487.1562704
-485.6587035
-478.796718
-482.3059419
-490.6431425
-491.0231222
-487.0668634
-490.86666
-500.6120206
-501.3049246
-493.9512007
-493.9959042
-504.4118171
-509.8209393
-506.1776049
-504.6800381
-512.90548
-518.4487126
-514.9841923
-511.1843957
-515.8559103
-526.6741546
-527.0317825
-521.4438464
-525.2883464
-534.4972652
-532.1279802
-526.4282854
-529.2446052
-536.6430326
-536.8665501
-530.4963029
-532.4409047
-541.5604164
-544.2873292
-539.146428
-537.5371024
-546.231931
-550.2775967
-543.0132798
-539.2805385
-546.0754688
-549.4282305
-543.7732391
-538.7664484
-544.2649775
-552.0433846
-549.3611752
-543.6614804
-543.3262042
-547.2377595
-544.9578816
-540.7110501
-547.4165735
-555.0385183
-552.4904194
-546.7013176
-545.9190066
-550.3670037
-549.3611752
-542.4097827
-541.3816025
-546.142524
-550.3223002
-545.9860618
-542.7003554
-548.2659397
-551.2834252
-545.6284339
-539.1911315
-544.7790676
-550.0540793
-548.3553467
-542.7674106
-542.7227071
-546.9695386
-546.2989862
-542.2309687
-547.6847944
-553.5185997
-547.5953874
-539.6605181
-539.7052216
-547.8412566
-548.5788642
-538.185303
-537.6041576
-544.3543845
-551.5516462
-544.6896606
-538.7217449
-547.282463
-550.8587421
-543.0356315
-536.5983291
-542.7003554
-549.9199688
-546.5448554
-544.130867
-554.8373526
-566.8625911
-571.4446987
-570.1482976
-560.224123
-561.2970068
-575.9150476
-563.554533
-545.1590473
-533.6702506
-522.7625993
-492.5877443
-483.2447151
-499.5838403
-510.6032503
-519.3204307
-526.8082651
-536.8665501
-545.8519513
-543.2144455
-540.8898641
-547.6400909
-556.9160648
-556.7819544
-551.8198671
-556.290216
-561.2299515
-558.5700939
-555.3961462
-562.0569661
-570.7070912
-574.0598528
-568.0248818
-565.3650243
-575.8256407
-596.9927427
-596.0763211
-504.4565206
-335.3208703
-28.34201197
456.579084
835.2623386
597.1492049
37.48387545
-490.7549013
-953.1007353
-1417.413523
-1782.126937
-1790.508841
-1572.400519
-1269.243809
-973.6419885
-769.8387825
-627.83815
-518.8733958
-484.7199303
-463.0163864
-440.6199384
-425.443104
-417.217662
-405.14772
-385.03115
-365.4286701
-357.4714491
-350.832981
-333.7562482
-317.4618265
-310.9351171
-304.8554426
-289.0527593
-271.5960469
-264.2870264
-257.6038548
-239.6330523
-220.9246422
-210.531081
-203.1326536
-187.5087842
-164.4194322
-148.2144175
-138.3125947
-117.0784375
-86.79182372
-62.87545715
-48.45858198
-29.03491605
6.16908147
39.33907024
61.80257342
89.31757084
125.1697689
161.7819264
189.0063511
218.6447643
258.1402967
295.5794687
319.0488004
336.8631407
361.4724113
388.0486355
401.9737723
401.3479234
400.4538537
396.7211123
378.4373854
341.4452483
296.6970559
248.2831774
183.3513598
100.940478
24.7880846
-39.87551211
-105.4555303
-176.7799469
-240.2589012
-287.0858058
-325.4190475
-366.7697748
-399.9621153
-414.3119352
-425.5101592
-444.330328
-461.8093922
-467.1738109
-466.1679824
-473.7675755
-485.4575378
-486.3963111
-478.7296627
-478.3496831
-485.9939797
-488.8102995
-482.1494796
-480.5178023
-486.0163314
-489.1008722
-483.4235291
-478.0367587
-481.2330581
-485.8598692
-481.3001134
-477.7908895
-484.9434477
-490.6654943
-485.7481105
-481.0095407
-484.742282
-492.9453722
-491.5148606
-485.4128343
-488.7879477
-499.0250467
-500.8131863
-495.2923054
-497.7957008
-508.7704073
-512.0561137
-505.4623491
-504.6576863
-514.82773
-520.4827214
-517.7558086
-516.0123725
-524.103704
-531.1668552
-527.0541343
-523.8578348
-530.3174889
-537.2018262
-536.8218466
-532.7091256
-537.6488611
-544.4661432
-544.3543845
-540.6663466
-542.0745065
-550.7916869
-551.0152043
-543.1026868
-542.2756722
-552.445716
-556.7596026
-548.3553467
-545.7625444
-553.1833235
-556.111402
-548.0424223
-545.7848961
-553.6527102
-560.31353
-552.7586404
-544.6002537
-549.3388235
-558.0560038
-556.6254922
-549.7411549
-552.9374543
-560.224123
-558.5030387
-550.7693351
-551.1716665
-559.2853498
-558.7712596
-552.1551433
-553.317434
-559.7770881
-560.9840823
-551.4398875
-548.243588
-554.3456142
-559.7994399
-553.7197654
-548.3553467
-554.2338555
-559.0394806
-554.8150009
-549.6070444
-554.5244282
-562.0793178
-557.7430794
-549.4282305
-551.4175357
-558.5253904
-556.4019747
-548.8247334
-549.29412
-556.9160648
-559.3747567
-554.3456142
-554.0773933
-561.185248
-564.426251
-554.7479456
-547.7965531
-557.7877829
-564.426251
-558.9053701
-558.3689282
-572.6516929
-584.8333937
-587.1356234
-578.2843325
-573.523411
-586.5991815
-592.1200624
-578.2396291
-560.9840823
-547.2377595
-525.6236226
-498.8462328
-506.8928608
-525.8918435
-534.4749134
-538.9676141
-543.9967566
-553.4962479
-560.224123
-556.0666986
-557.8771899
-570.6176842
-575.1550883
-571.511754
-568.6060272
-575.266847
-581.2794663
-579.2678093
-575.0880331
-578.7537192
-585.5486495
-582.5758675
-578.2172773
-582.5088122
-599.6526002
-618.2939551
-578.3960913
-441.7598774
-207.6700577
196.0695024
685.3715402
738.9933752
273.2947795
-291.4890994
-765.7037098
-1228.295413
-1657.761831
-1842.431944
-1711.987163
-1426.443628
-1097.448301
-846.4382108
-687.7184734
-557.2960445
-496.7675205
-484.7869855
-464.7374707
-446.0290606
-435.0320023
-427.4100575
-411.2944497
-389.054464
-375.5763621
-371.2401237
-360.3324724
-340.9535099
-328.7494574
-324.323812
-315.6960387
-297.8593466
-282.0566633
-274.8370498
-265.9410555
-250.1160205
-231.9887557
-221.4834358
-213.3250491
-193.9460866
-171.5943422
-157.1998188
-145.107525
-121.4370276
-91.46333831
-69.75979445
-52.48189598
-26.82209335
6.839633803
36.65686091
60.66263445
92.89384996
134.088115
173.36013
200.1375199
229.8206365
269.8302591
304.475463
324.2791086
342.3616698
369.1837632
389.0768157
394.3741792
391.2672867
389.6132576
379.3985104
348.0390129
296.6970559
243.768125
186.3464935
114.5750421
32.45473295
-41.95422434
-104.7626263
-171.7284527
-239.5883488
-293.098425
-330.0905621
-365.8086498
-402.6890281
-430.3157843
-443.9950519
-454.656834
-472.8064505
-487.1339187
-489.7714245
-487.8268227
-495.0017327
-503.897727
-500.3437996
-493.9512007
-496.5663548
-502.9813055
-502.6460293
-496.5663548
-497.773349
-504.6800381
-505.5070526
-496.5887066
-492.6771513
-500.5226136
-504.1435962
-496.812224
-494.2194217
-499.96382
-503.897727
-499.2709159
-496.0075612
-501.9307735
-508.3457241
-506.088198
-502.6013258
-508.9268695
-518.7392853
-517.7558086
-512.6596108
-517.1299597
-527.3223552
-530.4515994
-525.6683261
-527.2105965
-534.8325413
-535.4583902
-529.4681227
-531.4574279
-541.9850996
-548.2659397
-544.130867
-542.6109484
-550.5681694
-556.3125677
-551.305777
-547.1260008
-552.6021782
-560.5817509
-558.5924457
-553.4515445
-557.1842858
-565.6332452
-563.3310155
-555.8655329
-559.0394806
-568.3154545
-567.8013644
-560.2688265
-559.4865155
-566.1249836
-566.3037975
-559.3077015
-558.301873
-565.208562
-568.538972
-563.2416085
-558.7042044
-566.5720185
-573.8363354
-567.7343092
-561.274655
-566.3932045
-571.3552918
-565.9685214
-561.7216899
-568.6730824
-574.8198122
-569.2095243
-560.8276201
-562.7945736
-571.6235127
-571.6682162
-561.3864137
-560.492344
-565.2532655
-568.4719167
-563.9345126
-564.7615272
-573.8810389
-577.4349663
-567.8237161
-559.5982742
-563.9568644
-573.1657831
-570.3271115
-561.3864137
-565.5214865
-572.6963964
-570.0588906
-566.1696871
-569.9918354
-575.6691784
-572.6069895
-563.6662917
-563.1745533
-568.7848412
-567.6001987
-558.301873
-560.6488062
-565.9685214
-565.4544312
-561.8781521
-561.9228556
-569.6118557
-572.4505272
-564.0015678
-560.7158614
-567.1084603
-573.9704459
-571.7576232
-576.1385651
-588.0967484
-601.0384084
-588.5214315
-577.6137802
-592.0977106
-597.752702
-580.8994866
-549.8976171
-537.8723786
-523.9919453
-516.6829248
-522.3826197
-529.5128261
-546.2542827
-556.9607683
-558.0336521
-560.2017713
-568.9189516
-573.0540243
-573.7469284
-574.4174808
-578.9548849
-585.593353
-581.7041494
-576.4738412
-579.9160099
-592.1647659
-592.2765246
-585.1239664
-590.6001437
-595.2046031
-589.5049083
-586.465071
-604.8829084
-632.3979059
-571.5564575
-397.3693129
-108.7635885
337.8242657
749.2975294
616.0140772
102.5498036
-438.295357
-912.7558366
-1371.033653
-1739.792733
-1824.796417
-1651.21277
-1340.411763
-1016.400876
-800.147748
-665.4784877
-549.1376578
-497.952163
-480.9424854
-473.9016859
-460.4682875
-441.6704704
-423.9008336
-414.8260253
-401.5267374
-382.840679
-366.5239056
-361.0924317
-354.0963357
-337.712507
-323.9438324
-318.4229515
-311.6056695
-290.2374018
-270.6125701
-264.063509
-254.0275757
-234.5145028
-217.6612875
-204.674924
-195.0413221
-178.4786795
-157.3786327
-142.4029639
-127.8072748
-105.5225856
-72.88903867
-46.60338719
-29.19137826
-4.224479702
35.00283182
69.75979445
95.5313558
131.2494434
172.6001707
209.8381769
238.5154651
265.1810962
298.1499193
331.9457569
351.9952717
368.6026178
388.6074291
401.0797025
398.4869001
386.9310483
373.2517807
349.8942077
305.3918845
242.4493721
175.6623597
109.5906031
34.80166612
-47.9668436
-122.3087457
-182.0102551
-241.5776541
-301.0556461
-350.6765188
-379.2867517
-406.7570456
-437.3565838
-460.2894736
-471.5547528
-477.8579447
-490.7549013
-502.8695468
-504.948259
-502.5342706
-508.5245381
-516.4594074
-514.6712678
-505.8870323
-505.4176456
-512.0114102
-512.5031486
-504.8365003
-504.5906311
-514.2018812
-514.2465847
-504.8365003
-503.5848026
-513.1737009
-516.3923522
-510.0891602
-508.1892619
-515.4535789
-522.8967098
-519.2533754
-515.0288957
-520.2592039
-526.3612302
-524.3495732
-519.6780586
-526.0483058
-535.5030937
-535.2572245
-528.7305151
-530.5410064
-539.2805385
-541.7839339
-538.6993931
-542.7897624
-554.4126695
-558.9947771
-552.7139369
-550.6799281
-558.301873
-563.8004021
-559.9111986
-559.5088672
-567.9801784
-573.344597
-570.0812423
-566.7731842
-572.6740447
-576.5185447
-573.2328383
-566.9967016
-570.8188499
-579.0219401
-578.5525535
-574.6633499
-577.9714081
-585.4815943
-584.453414
-575.624475
-575.5797715
-586.8003472
-588.7225972
-583.2911233
-580.5418587
-586.6885885
-590.1307571
-584.0510826
-579.6030855
-587.2473821
-591.7400827
-585.5262978
-580.2289343
-585.1686698
-592.9694287
-589.0802251
-582.7546814
-586.4427193
-592.0753589
-588.655542
-581.4359285
-582.2629431
-589.0355216
-589.9072397
-584.1181379
-585.1910216
-591.628324
-594.8693269
-588.0967484
-583.671103
-589.1472804
-592.2988763
-587.2473821
-584.2298966
-591.0695304
-596.3221903
-592.500042
-588.2085071
-592.3212281
-596.1210246
-591.4048065
-584.632228
-587.9849896
-593.4164635
-590.4213298
-583.9616756
-587.4932513
-594.7128647
-596.0986729
-595.9645624
-604.8158532
-615.1870626
-613.4659783
-600.3455043
-606.2910684
-615.7905597
-608.2133184
-581.2347628
-550.9928526
-540.8228088
-534.6090239
-536.7324396
-541.4263059
-551.4398875
-573.8363354
-582.620571
-581.391225
-587.5379548
-597.8868124
-599.6302485
-595.562231
-598.713827
-607.72158
-611.6107835
-604.7040945
-602.3571613
-610.7167138
-614.9858969
-611.2084521
-608.7944637
-616.81874
-621.5126063
-615.9693737
-617.5786993
-641.9644525
-620.7302953
-484.9434477
-250.5407036
129.3271934
618.4951208
755.4219074
334.1362279
-243.1646279
-744.1342764
-1193.605506
-1626.894072
-1855.887694
-1759.372861
-1501.500786
-1166.470488
-896.5955253
-740.3121281
-617.6457545
-534.8548931
-507.0046195
-493.3924071
-486.8880495
-470.8842004
-451.415831
-441.5140082
-432.7968279
-416.5918132
-397.3693129
-388.6744843
-382.1701267
-367.6414928
-348.731917
-335.9020157
-329.7999894
-317.8418062
-297.2558495
-284.2918377
-281.3414075
-269.9867213
-247.7467355
-230.647651
-222.9586509
-209.3911421
-185.7206447
-163.1900863
-148.3708797
-132.2105685
-104.4720536
-74.90069567
-52.5936547
-29.10197128
5.498529136
42.96005284
72.17378285
101.4545681
139.4525337
180.9150196
212.0733514
237.6884505
267.8856573
303.4472827
326.0448964
337.444286
350.8776845
367.9991207
374.4140714
361.941798
343.7251262
321.619251
284.2471342
226.1325987
155.8363623
89.42932957
20.72006711
-59.32152978
-137.150304
-198.4834908
-252.1500292
-307.1353206
-357.6055595
-393.5248129
-418.9387463
-445.6490809
-473.9910929
-488.855003
-494.2194217
-504.3224101
-519.4992446
-526.2718232
-522.6061371
-522.1367505
-531.4797797
-534.3184512
-529.0210878
-525.064829
-532.150332
-534.7207826
-528.7081633
-523.4107999
-526.5847476
-532.7538291
-529.4234192
-522.2261575
-524.5730906
-530.8539308
-531.8374076
-527.165893
-529.1104947
-538.4088204
-538.5429309
-532.1950355
-531.9491663
-541.4263059
-546.8577798
-541.2698437
-539.4370007
-548.5118089
-554.1220968
-550.5458177
-548.9811956
-554.1220968
-562.4592975
-558.2571695
-553.0492131
-558.8830184
-569.321283
-569.9247801
-566.527315
-571.7129197
-579.9830651
-581.0112454
-574.0598528
-574.2610185
-583.402882
-584.6992832
-579.8713064
-581.9947221
-590.1531089
-591.628324
-586.6885885
-584.7439867
-589.9295914
-592.1871176
-587.8732309
-583.3805303
-589.5049083
-595.2046031
-591.8294897
-585.9509809
-588.0743966
-594.6458095
-591.3377513
-583.0676059
-583.9840274
-591.4718618
-590.8236612
-583.5593442
-584.4757658
-590.8907164
-591.9636002
-584.6769315
-582.7323297
-588.8343559
-591.5836205
-584.9451524
-580.4301
-588.0520449
-592.8129664
-585.8615739
-580.9218384
-586.5097745
-594.5340508
-589.6390187
-582.1064808
-583.8052134
-589.4602048
-588.0073414
-581.2124111
-583.2687716
-592.0530071
-590.667199
-582.6429227
-581.659446
-587.9849896
-588.8120042
-583.2464198
-582.620571
-588.8343559
-590.4436815
-581.3465215
-577.9714081
-584.2298966
-587.9179344
-583.3134751
-578.3066843
-581.9053151
-589.0355216
-584.8110419
-578.7537192
-581.659446
-587.0909199
-584.542821
-577.636132
-579.8489547
-586.9344577
-587.9626379
-582.0394256
-591.5612688
-607.4980626
-613.9130132
-598.9373444
-590.3542746
-608.3921323
-612.3707428
-594.9587339
-567.1531638
-549.5399892
-537.8276751
-526.115361
-530.7421721
-543.2144455
-554.9044078
-567.0637568
-570.6176842
-580.9218384
-589.706074
-590.0637019
-587.60501
-592.0083036
-601.2842776
-602.1336439
-597.1492049
-597.7750537
-608.1015597
-610.8955277
-605.1287776
-604.0782456
-612.7283708
-618.1598447
-611.9460597
-610.7390655
-628.6651645
-648.5582171
-589.706074
-424.2361098
-152.014214
293.0537216
720.8661104
612.1248737
102.4380448
-447.571331
-923.9093571
-1403.466034
-1778.908286
-1875.713691
-1702.957058
-1386.009322
-1057.773955
-833.0942193
-690.0654066
-567.1531638
-522.9861168
-509.8879945
-498.7568258
-480.6966163
-463.753994
-454.5897787
-443.3021478
-422.2468045
-403.2478217
-394.7318071
-389.6132576
-372.8941527
-353.1128589
-344.0827541
-339.5900535
-326.335469
-307.0682653
-295.4900617
-289.8127186
-277.4745557
-256.106288
-239.9906802
-231.8993487
-218.84593
-195.2648396
-176.5340777
-164.8217636
-147.5215134
-120.3864956
-92.62562902
-71.59263749
-49.41970699
-16.11560775
18.86487232
45.5528552
71.99496889
109.3000304
150.6954611
183.0160836
209.3017351
244.0139942
281.4084627
307.9399834
324.1226463
343.3674983
366.4121469
376.6715976
370.1672399
359.3489956
346.3179286
319.0488004
272.110137
211.3804473
149.7566879
82.96967542
1.944601768
-76.73353872
-140.3466034
-201.6574385
-265.896352
-322.2898033
-363.8193445
-393.3683507
-426.136008
-457.3390433
-475.1533836
-484.3399506
-497.1251484
-513.9783637
-520.7732941
-517.5099394
-520.1474452
-528.7528668
-532.3738494
-526.8529686
-521.6673638
-530.138675
-534.3408029
-528.8646256
-522.9414133
-529.6245849
-535.0784105
-529.5575296
-524.4389802
-528.7305151
-535.033707
-535.0560588
-527.0541343
-526.7859133
-535.4136867
-537.8947303
-532.9102913
-535.8607216
-545.4272682
-546.0084136
-539.8169803
-541.5604164
-549.2717682
-553.8985793
-550.5234659
-546.1648758
-554.0773933
-559.8217916
-556.111402
-554.6361869
-563.3086638
-569.9471319
-566.8178876
-561.6546347
-564.8956376
-574.3280738
-577.1890971
-572.9646174
-577.367911
-585.5486495
-585.2357251
-579.0219401
-580.608914
-588.9014112
-592.8353182
-583.1570128
-582.7546814
-591.7847862
-598.713827
-593.3270566
-588.6778937
-593.8411467
-598.8479374
-593.0588356
-586.9791611
-594.2434781
-603.608859
-599.0938066
-590.6001437
-594.1317194
-600.3902078
-599.8090625
-593.2376496
-593.7517397
-599.5408415
-597.6185915
-590.2872193
-592.4776903
-602.2230509
-607.1627864
-600.8372427
-597.2162601
-600.5019665
-599.2726206
-594.7352165
-594.1317194
-601.2395741
-606.5145858
-602.0218852
-596.70217
-604.1229491
-608.4815393
-597.1715566
-591.2706961
-596.6351147
-603.4971003
-600.8595944
-590.7342542
-593.2823531
-600.5243183
-600.4349113
-595.2046031
-594.0870159
-600.0102282
-597.8868124
-587.4708995
-589.1472804
-595.8528037
-599.0267514
-594.6234577
-590.9577717
-596.1880799
-602.0665886
-597.5291845
-593.461167
-594.1317194
-598.8926409
-594.511699
-589.1025769
-596.7692252
-606.581641
-614.7623795
-614.4047516
-614.5388621
-611.0519899
-617.4892923
-622.5184348
-617.7575133
-609.733237
-582.7546814
-554.4797247
-541.4263059
-545.6284339
-557.5866172
-559.3077015
-569.2095243
-586.5097745
-600.2337456
-596.70217
-589.706074
-599.2726206
-614.5835655
-616.8634435
-611.3425626
-614.2482894
-622.3619726
-620.5067778
-617.869272
-622.2278621
-628.0616674
-629.6039378
-625.4912168
-622.4737313
-633.7390105
-642.970281
-654.2802637
-641.3386037
-539.5711112
-343.5910158
-2.793968057
488.2068024
779.3606257
452.1757903
-111.0211147
-626.6088041
-1074.381301
-1527.272347
-1850.478572
-1805.819786
-1580.670664
-1280.307922
-988.9529334
-797.6890561
-675.067386
-580.4971552
-544.8684746
-514.3583434
-493.4371106
-486.575125
-478.7743662
-457.1378776
-441.357546
-438.8541506
-430.0699151
-412.2555747
-401.1914612
-389.4344436
-380.8737255
-365.7192428
-346.8320187
-338.8747977
-337.2431203
-319.1605591
-296.2723728
-291.5338029
-286.0576255
-262.9459218
-233.8663022
-221.639898
-217.7283427
-202.9761914
-175.5282492
-152.7294699
-138.5584639
-117.994859
-91.48569006
-59.74621293
-34.93577658
-7.554889626
31.33714573
66.69760545
93.13971915
126.5555771
162.5195339
192.0461884
216.834273
243.6340146
274.8594016
301.323867
315.0925416
318.3335445
322.5133207
331.5210738
322.6250795
298.0828641
266.4551457
221.818712
161.8042781
89.96577143
16.11560775
-52.23602679
-122.4205044
-187.0393976
-248.0820117
-304.1848903
-353.3363763
-403.7395601
-442.6539472
-464.1563254
-476.9191714
-495.7393403
-515.4535789
-527.9035005
-525.7800848
-525.8247883
-537.7382681
-544.8014194
-540.9345676
-543.348556
-551.3504805
-552.2892537
-546.0084136
-545.6284339
-552.2221985
-555.239684
-547.5730357
-540.3310705
-542.0968583
-541.4933612
-539.6158146
-541.4933612
-546.5225037
-551.1046113
-545.9637101
-540.8228088
-546.9024833
-556.8043061
-552.5127712
-547.6400909
-549.1376578
-557.4525067
-563.1074981
-558.9724253
-559.6429777
-568.9860069
-572.0481958
-569.5224487
-570.6400359
-580.0054169
-585.7945187
-579.7148442
-577.2561523
-583.3805303
-591.0471786
-591.717731
-585.0792629
-592.7906147
-600.2560973
-596.4786525
-590.577792
-596.3892456
-607.2298416
-603.519452
-593.7517397
-596.6574665
-608.8168155
-611.7225423
-601.5748503
-596.4115973
-601.7983677
-603.9888387
-599.8314142
-602.5806788
-613.9800684
-617.3104784
-608.8168155
-603.519452
-610.7390655
-614.4271033
-607.810987
-603.0053619
-608.9956294
-617.7575133
-617.2657749
-607.2074899
-604.8158532
-611.3872661
-608.9509259
-603.3406381
-607.8333387
-616.7069813
-616.1928911
-611.9684114
-607.5874695
-613.9577167
-618.7186383
-613.1083504
-614.5165103
-622.5631383
-626.2735279
-616.7516848
-610.5826033
-619.7244668
-636.756496
-640.5339409
-632.2414437
-619.970336
-634.2531007
-644.1549235
-635.0801152
-624.1948157
-607.2745451
-585.7498152
-564.4709545
-567.5107917
-578.4407948
-579.9383616
-584.8557454
-602.558327
-627.6146326
-633.962528
-619.2327284
-606.0899027
-614.9858969
-624.2618709
-622.6525453
-619.4785976
-628.2851849
-642.5903013
-639.5057606
-633.9178245
-647.3065194
-659.7564411
-656.3813277
-646.5912636
-647.9994235
-655.2637405
-664.6291214
-652.1791997
-555.239684
-383.9135628
-90.88219296
369.3625771
764.2284947
545.5837304
-37.66268941
-598.6691235
-1010.81294
-1407.89168
-1782.149289
-1818.716743
-1617.64045
-1352.101726
-1059.830315
-854.1942661
-719.3685435
-610.5155481
-566.7061289
-542.298024
-517.5769946
-504.9259072
-500.5896688
-483.1553081
-458.7472032
-445.1573426
-443.5256652
-437.5353977
-421.0398103
-404.6783334
-404.4324642
-398.3974932
-376.9174667
-363.5511236
-361.6288735
-354.1186874
-329.2188441
-307.7611694
-300.0274658
-298.8651751
-284.2918377
-262.0742037
-245.9362442
-235.989718
-213.0344764
-185.1394993
-162.6759961
-147.4768099
-120.8335305
-85.74129173
-58.24864605
-35.04753531
-5.207956458
36.14277078
73.71605321
103.1756524
131.0706295
167.1016415
202.2385838
226.1773021
245.4892094
273.4512417
296.4958902
302.8884891
298.2840298
297.1440908
293.0760733
267.7291951
222.9810027
175.3941387
124.5439201
50.93962561
-32.94647133
-105.8131583
-172.1307841
-238.6495755
-303.8719659
-357.2702834
-400.6326676
-435.7696099
-472.7393952
-501.5954973
-513.7324946
-524.7072011
-542.8791693
-561.1181928
-567.7566609
-566.1473353
-570.371815
-580.6536175
-582.5088122
-577.9490564
-579.6254372
-578.3513878
-571.6905679
-573.7469284
-584.0734344
-596.1880799
-598.803234
-589.5719635
-580.2736378
-581.0112454
-583.3805303
-575.3115505
-571.3776435
-582.3299983
-590.756606
-589.3931495
-585.8168704
-589.3707978
-593.0811874
-586.8674024
-582.2182396
-586.7109402
-596.7692252
-592.2094693
-588.7896524
-599.7867107
-611.4096178
-611.834301
-607.72158
-612.1695771
-621.9149377
-626.1617692
-617.9363272
-621.0879232
-641.1821414
-649.5193421
-636.5553303
-622.1384552
-619.3221354
-628.016964
-628.0393157
-627.3017081
-632.2190919
-636.6894408
-632.3979059
-625.4912168
-631.4591326
-644.4901996
-644.020813
-635.4824466
-637.7623245
-646.2112839
-654.2132085
-656.1131067
-658.5047434
-662.1927812
-654.9955195
-642.2773769
-632.0179262
-622.5854901
-607.810987
-581.2571146
-556.4019747
-556.8490096
-563.9568644
-564.1356783
-567.6001987
-581.9947221
-597.7303502
-606.4028271
-614.5612138
-627.7710948
-643.3055572
-643.1937984
-626.966432
-622.1831587
-627.7263913
-627.0334872
-622.6972488
-639.5728158
-653.4532492
-642.5679496
-602.0665886
-575.6915302
-583.6934547
-594.690513
-578.6419605
-564.6274167
-561.185248
-542.5662449
-515.4982824
-505.73057
-532.6197186
-553.8762276
-558.6371492
-558.5700939
-572.1152511
-588.1191001
-592.1647659
-584.6769315
-595.651638
-631.8391123
-653.2520835
-635.0577635
-593.7070362
-562.0122626
-546.4554484
-527.4564657
-501.1931659
-485.2340204
-439.5917582
-391.7366733
-372.000083
-368.4908591
-383.5112314
-385.2099639
-359.4160508
-240.1247907
42.51301795
545.4049165
996.59723
938.7956189
410.9144701
-217.8401015
-723.2577471
-1225.479093
-1667.730709
-1804.97042
-1670.412918
-1413.591375
-1152.701813
-1000.486434
-895.4779381
-802.1817568
-775.9631605
-774.3985384
-775.2255529
-775.4043669
-810.5636609
-843.7560014
-820.4878355
-780.8358408
-754.7290033
-730.0303257
-686.1314995
-634.0295832
-594.511699
-567.4660882
-537.9394338
-501.3719799
-469.0066539
-443.8609414
-416.0553713
-386.3051994
-366.4792021
-342.7640012
-299.6474862
-244.5504361
-210.9781159
-200.7633687
-199.3999123
-176.9811126
-157.1551153
-165.313502
-160.3067112
-113.6586206
-44.72584066
-1.721084323
25.3915817
71.547934
125.6391556
161.4690019
194.6836942
239.0742587
293.187832
338.6512802
371.038958
396.0058565
397.4363682
371.4859928
367.2168097
389.9485338
394.4635861
352.4646583
283.3530645
217.8401015
152.8635803
59.05330885
-54.89588438
-140.0113273
-186.9052871
-231.2958516
-309.3257915
-383.1983069
-425.2419383
-455.5062003
-496.4098926
-533.290271
-555.3514427
-569.5448005
-595.0704926
-604.1005974
-600.1443386
-587.0238646
-588.476728
-612.4154463
-609.2414986
-582.2405913
-563.554533
-580.3183413
-590.8907164
-589.1249286
-592.8353182
-590.8907164
-579.9607134
-587.6273617
-593.2376496
-609.0403329
-625.737086
-612.795426
-590.398978
-570.4835737
-575.9373994
-574.573943
-575.6915302
-585.8615739
-602.2901061
-610.9402312
-611.1861004
-617.1316644
-646.7030223
-665.5902464
-648.4911619
-624.3065744
-626.2064727
-649.8099148
-662.9527405
-665.7243569
-667.7136621
-667.1548685
-668.9206563
-672.5863424
-664.3832522
-670.4182232
-671.6922726
-664.0256243
-663.4891824
-668.2054005
-666.9089993
-658.9517783
-661.7010429
-665.9925778
-667.6689586
-662.7292231
-659.242351
-667.4230894
-673.32395
-655.2413887
-632.8002373
-633.4260861
-643.6408333
-640.3774786
-638.5893391
-643.6184816
-652.246255
-641.4727141
-624.9324232
-631.1909117
-648.2229409
-653.20738
-651.9556823
-652.1791997
-654.9955195
-654.8837608
-646.4795049
-648.0664787
-660.4493452
-672.4969354
-683.9186768
-696.4356537
-711.5901365
-723.3248023
-728.5774623
-736.9146629
-756.0030527
-775.0020355
-773.6385791
-762.3732999
-749.8786747
-753.0526224
-756.4947911
-753.9243405
-749.9680817
-727.9516134
-700.6377817
-679.1354035
-682.242296
-707.8350434
-708.9302789
-702.269459
-712.4618545
-727.1916541
-731.4608373
-721.8495872
-713.0877034
-720.642593
-725.9623082
-719.0109156
-715.5016918
-718.4744738
-721.514311
-714.1158836
-709.0867411
-713.0206481
-723.615375
-721.2013866
-713.0429999
-714.0488284
-723.5483198
-734.0089362
-747.4870381
-704.9963719
-557.340748
-285.320018
170.3649962
657.4318597
667.6913104
167.9733596
-429.9581563
-935.9345956
-1431.048087
-1878.239438
-2027.884367
-1872.271523
-1592.181813
-1246.06505
-968.0317006
-797.5772974
-665.277322
-601.686609
-575.0209779
-549.6740996
-536.7547913
-524.4613319
-506.6916951
-487.7374158
-471.8676772
-463.3293108
-445.6714327
-427.275947
-415.0495428
-412.0097055
-401.124406
-379.1749929
-362.0535567
-356.599731
-347.4802193
-328.5706435
-310.5327857
-303.6260967
-302.5085095
-281.4978697
-248.7972675
-226.8255027
-214.5767468
-197.7905867
-172.2872463
-149.8013913
-132.4564376
-107.3777804
-71.68204447
-41.10485805
-19.24485198
12.20405247
52.16897156
93.00560868
125.1474172
159.8373246
195.0636739
225.9537847
244.2375117
261.090727
295.7582826
327.1848353
338.1595419
336.1255331
336.2149401
323.6756115
289.8797738
245.1762849
201.523328
152.2600832
81.22623935
-4.11272098
-83.68493124
-154.4282024
-227.585462
-299.8710036
-355.5268473
-399.5821356
-445.6490809
-488.4973751
-515.9453173
-525.5789191
-532.3291459
-546.8801316
-561.4981725
-558.5477422
-554.7926491
-566.0802801
-576.8538209
-572.1599546
-563.6662917
-567.8460679
-572.7634517
-570.550629
-561.5875794
-565.2756173
-574.2833703
-575.5127162
-570.5059255
-574.4174808
-586.0850914
-585.414539
-575.4233093
-574.573943
-585.2580768
-592.3659316
-590.4436815
-589.8848879
-604.0335422
-611.1637486
-606.8722137
-604.4135218
-611.4990248
-619.1433214
-617.4222371
-608.1462631
-608.3474288
-613.8236062
-611.0743417
-607.810987
-615.5670423
-626.4970453
-628.6651645
-621.8702342
-620.8644057
-627.7710948
-630.4309524
-622.0937517
-622.1831587
-627.0558389
-624.4406848
-616.3493534
-615.1870626
-629.8721588
-641.8079903
-638.946967
-628.7769233
-628.4639988
-635.6836123
-633.9848797
-630.3415454
-636.1529989
-641.8526938
-639.3269467
-629.7156965
-631.3920774
-642.1879699
-645.8983595
-637.2705862
-630.1180279
-637.2258827
-644.7137171
-642.3444322
-642.7691153
-650.4581154
-648.6923276
-636.6000338
-630.1850832
-648.6699758
-664.22679
-664.4279557
-663.1539062
-664.9643975
-676.8555256
-676.5426012
-670.5746854
-676.8778773
-683.5386972
-670.6864441
-632.3084989
-604.3688183
-598.6020683
-593.5282223
-603.5641555
-621.2220336
-636.1082955
-641.9644525
-637.0023652
-637.0023652
-648.4911619
-657.05188
-649.2511212
-639.0587257
-642.3220804
-651.7321648
-648.915845
-642.9926327
-651.8662753
-664.22679
-661.8128016
-661.075194
-668.2054005
-675.4920692
-683.4939937
-686.6679414
-625.8935482
-479.8696017
-230.4688371
178.0763481
670.3288162
705.1975376
210.5757845
-390.2614582
-867.5606093
-1278.139803
-1727.253405
-1915.119817
-1757.919998
-1524.098399
-1219.824102
-961.6391017
-800.7959486
-676.4531942
-588.7673007
-550.5011142
-525.9812505
-517.3981807
-512.5478521
-495.4040641
-468.649026
-454.4333165
-448.8006769
-436.8871971
-421.2633277
-405.4829962
-404.4101124
-395.4023594
-376.6492458
-366.0992224
-361.1147834
-350.654167
-326.514283
-305.1460153
-298.9545821
-295.7582826
-281.0508348
-262.4765351
-248.0820117
-235.721497
-215.5378718
-188.4252058
-172.8013364
-161.6254642
-135.7421441
-101.4545681
-74.74423346
-50.380832
-17.61317463
19.78129384
50.9843291
75.41478579
104.0250187
141.7994668
177.0034643
194.6836942
211.3133921
234.5368546
255.2345699
257.9614828
256.1733432
256.3074537
247.6573286
218.0859707
177.7187202
127.2484812
76.66648348
10.19239547
-69.75979445
-140.0560308
-195.5554122
-256.6427298
-323.0721144
-374.2129057
-411.1379875
-447.5489792
-485.9045727
-509.06098
-520.0133348
-533.6031954
-554.1668003
-567.9578266
-567.2872743
-566.7731842
-580.0277686
-588.1861553
-586.2639053
-578.8431262
-580.4748035
-585.8615739
-581.3241698
-572.9646174
-578.0831668
-586.0403879
-585.0792629
-573.5010592
-570.3047598
-574.0822046
-573.0093209
-568.5166202
-569.4553935
-578.7760709
-582.3970535
-572.0034924
-567.9131231
-578.8207744
-584.9451524
-579.379568
-570.9082569
-576.7420622
-586.0850914
-583.1123094
-579.9830651
-588.9684664
-600.9266497
-601.1278154
-595.2046031
-599.0714549
-606.9169172
-610.5155481
-606.5592893
-607.6098213
-617.1763679
-621.624365
-617.8916237
-617.1540162
-623.8595395
-628.1510744
-621.7808273
-616.9752022
-627.4134669
-635.5271501
-631.7944088
-625.7147343
-633.09081
-637.0023652
-629.8274553
-624.1277604
-630.721525
-641.830342
-640.1763129
-635.8624263
-637.4494001
-644.0878682
-645.2054554
-639.2375397
-645.9877665
-659.8681998
-661.1422492
-659.3988132
-655.4425544
-667.8030691
-672.362825
-664.8526388
-671.8040313
-684.164546
-684.0527873
-644.5572549
-606.3134201
-596.5904113
-597.7303502
-606.2463649
-616.8410917
-631.6155948
-646.2559874
-645.6524903
-642.0762112
-643.931406
-652.067441
-650.7710398
-644.3784409
-649.2287694
-658.6612056
-664.8526388
-661.7233946
-659.8011446
-665.098508
-667.6019034
-661.3434149
-657.3871562
-664.1150313
-673.6368744
-686.8914589
-669.032415
-559.3971085
-366.1886294
-27.53734917
455.3273863
714.3841045
360.3324724
-228.6136423
-741.8767502
-1126.77379
-1525.90889
-1825.109342
-1799.315429
-1598.820281
-1312.807359
-1026.615623
-835.5976147
-705.1528341
-603.6759142
-570.5953325
-542.9909281
-525.6683261
-519.7674656
-513.5983841
-495.5828781
-475.9580464
-465.6091887
-461.4070608
-447.6160345
-425.8230836
-418.7822841
-416.7259236
-403.0690078
-383.3324174
-375.4869551
-371.2848271
-360.9583212
-341.5793588
-326.7154487
-320.0993323
-306.8894514
-283.8448028
-265.7398898
-256.3745089
-240.4824186
-212.6768485
-185.4524237
-168.4874497
-149.1755425
-118.1960247
-84.35548357
-57.75690767
-31.49360794
5.163252969
47.92214011
78.14169862
100.4710913
131.0482777
169.7838509
199.3105053
214.8002642
234.2909854
257.7603171
272.8477446
269.5843899
264.3317299
257.0227095
236.3026424
191.7556157
137.7090976
81.8520882
17.76963684
-61.57905597
-140.7489348
-205.7925112
-263.102384
-323.1615213
-382.2595337
-428.5276447
-458.1213544
-489.9278867
-521.7567708
-540.5545879
-549.7188031
-561.8334486
-578.3737395
-583.4475855
-582.1735361
-585.5262978
-594.1093676
-597.9762194
-588.8567077
-585.1239664
-591.44951
-594.8916787
-587.5603065
-579.7818994
-584.2969518
-589.7731292
-586.0627396
-580.4971552
-583.2911233
-588.8120042
-584.0734344
-574.5068877
-577.7031872
-590.8907164
-588.2755623
-582.3299983
-583.0229024
-591.0024751
-593.2823531
-587.2473821
-588.8567077
-599.3396758
-604.9276119
-600.54667
-599.5408415
-606.9839724
-613.756551
-610.4037893
-607.7439317
-616.639926
-624.0830569
-620.9985162
-614.1141789
-619.4785976
-628.0840192
-628.1063709
-622.7196005
-625.5582721
-634.6554321
-635.974185
-628.3298884
-627.83815
-638.4552286
-639.997499
-632.4649611
-630.6097663
-639.5951676
-645.0489932
-636.2200542
-633.6049001
-641.1150862
-649.005252
-644.6690136
-638.9916705
-645.0042897
-651.1733712
-646.6806706
-642.1209147
-644.1996269
-649.9216735
-647.7088508
-644.803124
-656.7613073
-672.7428046
-675.2014965
-673.2121912
-669.3453395
-681.7058541
-683.6951594
-672.0722523
-675.2238483
-689.3948542
-693.0605403
-654.1014497
-614.9858969
-605.8663852
-604.659391
-609.9567544
-622.2055104
-639.6398711
-653.5873596
-651.016909
-645.2054554
-649.8322665
-658.9070748
-655.8001823
-649.4969904
-653.028566
-662.9303888
-665.7914121
-659.242351
-661.8575051
-671.6028656
-672.362825
-669.6359121
-668.3842144
-676.0508628
-684.8350984
-694.9827903
-691.7417874
-608.2580219
-421.7550661
-85.98716092
394.3071239
663.5338859
353.6045973
-193.1861273
-711.5230812
-1133.278147
-1561.068185
-1855.641825
-1860.246284
-1658.097107
-1352.079374
-1048.989719
-843.0854491
-704.4822817
-613.3989231
-583.2464198
-555.2620358
-539.4593524
-532.6867739
-520.4156662
-499.1368054
-480.4954506
-474.1699069
-467.7549562
-450.4323543
-431.478075
-424.303165
-422.0903423
-407.8969846
-387.825118
-377.2750947
-374.6375888
-361.4277078
-340.7076407
-328.4812365
-323.2509283
-310.3986753
-289.4774424
-270.9925498
-261.2471892
-244.2598634
-217.7283427
-195.488357
-177.1599266
-155.0987548
-122.7110771
-90.25634411
-67.68108221
-41.10485805
-4.492700636
34.28757599
66.40703278
93.67616101
129.3942487
167.7721939
194.2366593
212.0957031
235.900311
263.6611776
277.9886458
277.8098318
276.0887475
271.7078056
249.6466338
208.2288513
156.9986531
103.9579635
39.38377373
-40.74723014
-118.2854317
-183.2619528
-244.0586977
-312.0303526
-372.4918213
-415.5859847
-450.0747264
-484.2281919
-518.3593057
-536.7994948
-542.4991897
-556.2455125
-572.2270098
-579.290161
-575.624475
-579.8713064
-591.717731
-593.3494083
-585.8615739
-582.4864605
-590.0413501
-593.9529054
-587.8061757
-584.453414
-591.4942135
-597.5515363
-593.550574
-588.7225972
-590.2425158
-594.6458095
-590.4660333
-585.9286292
-589.8848879
-594.3552368
-593.4388153
-584.364007
-585.8168704
-595.3834171
-599.9878764
-595.5175275
-594.6458095
-603.8323765
-608.1015597
-604.0111904
-602.9383067
-611.2978591
-618.1151412
-613.8683097
-613.8683097
-622.0266964
-629.8721588
-627.6816878
-628.6651645
-633.2025687
-635.974185
-633.001403
-629.067496
-634.2531007
-643.149095
-642.2326734
-636.5329786
-640.2210164
-651.1733712
-654.5261329
-648.2676444
-646.8371328
-654.0343945
-656.7836591
-650.4581154
-647.2841677
-655.1519817
-658.6835574
-652.5815311
-651.3968887
-658.1694672
-663.0197958
-654.7943538
-647.2618159
-651.195723
-659.0858888
-655.4425544
-646.7924293
-650.3463567
-658.5717986
-658.1471155
-651.6874613
-652.067441
-660.3375864
-660.985787
-653.6544149
-651.4862956
-661.4775254
-662.3939469
-653.1850282
-650.055784
-658.3035777
-664.7185284
-656.6495486
-648.6699758
-654.9061125
-661.2316562
-658.3929847
-653.3638422
-657.9683015
-662.3492434
-660.5387521
-656.9177695
-664.7632318
-682.3764065
-688.2549153
-679.8283076
-665.7020051
-676.6096564
-682.8904966
-669.3900429
-651.5309991
-631.6826501
-613.2201091
-594.3552368
-593.8187949
-614.4271033
-619.4562458
-619.612708
-630.4086006
-645.7866008
-657.5436184
-655.6884236
-650.7486881
-658.3929847
-669.9488366
-669.9488366
-665.1432115
-668.7865458
-677.1237465
-678.1072233
-672.9216186
-674.1509645
-683.5834007
-687.6737699
-682.4881652
-681.3482262
-690.6465519
-700.7942439
-714.428808
-700.6601334
-586.5991815
-363.2605509
37.9085586
528.3281837
626.9440802
217.527177
-323.0497626
-806.4956434
-1291.573202
-1724.928823
-1922.674706
-1845.605891
-1586.549173
-1262.381823
-977.8888199
-796.1914892
-663.2880167
-607.2968969
-588.7002455
-565.5885417
-551.8422189
-546.053117
-532.2844425
-510.2009189
-492.3865786
-485.5469448
-478.3496831
-459.551866
-440.4187727
-435.5684442
-429.198197
-411.8308916
-393.7483303
-384.8746878
-378.1468127
-364.0428619
-345.6920797
-333.7338965
-325.2625853
-310.9798206
-289.1421663
-273.7641661
-266.3433869
-248.3949361
-217.3260113
-192.4708715
-175.9305806
-155.5457897
-121.8617108
-89.96577143
-64.55183799
-38.86968361
-0.514090122
41.26132026
70.11742236
97.1406814
134.870426
173.0248538
198.639953
220.3882003
245.6903751
272.7806893
284.358893
284.7165209
285.0070935
285.0294453
266.2092765
225.5514533
178.0539963
127.4272951
65.46825951
-14.43922692
-95.1290244
-161.290188
-226.1102469
-296.0265036
-356.689138
-401.5043857
-437.3789355
-475.734529
-508.2786689
-528.3058319
-538.2970617
-553.0268613
-572.2493615
-578.4854982
-574.4174808
-576.7644139
-587.0909199
-589.2590391
-581.9276669
-579.9830651
-588.1414519
-591.6506757
-585.4592425
-582.0394256
-590.2872193
-592.7459112
-583.0899576
-578.7760709
-586.0180361
-591.7400827
-586.3309606
-581.9947221
-586.9344577
-595.7633967
-593.550574
-587.4708995
-591.0471786
-600.2784491
-601.3736846
-596.6798182
-599.2726206
-610.7390655
-613.3542196
-608.1686149
-610.5602515
-619.7468185
-622.0490482
-612.7507225
-611.8119492
-620.8197022
-629.7604
-626.6758593
-624.0160017
-632.7555338
-641.0033275
-637.6505658
-632.9790512
-638.4328769
-646.5018566
-643.6408333
-637.1588274
-642.0315077
-653.20738
-651.0839642
-643.9761095
-646.3230427
-654.7049468
-654.079098
-648.5358654
-647.2841677
-655.040223
-658.3482812
-649.5863974
-646.03247
-653.028566
-658.2141707
-653.1850282
-648.5582171
-655.0625748
-662.5951126
-656.6495486
-651.1286677
-654.2132085
-663.1986097
-659.0188335
-651.1286677
-652.4921241
-659.3541097
-659.1752957
-652.4474207
-655.0625748
-661.4775254
-662.30454
-653.9673393
-648.7817346
-658.3259294
-662.7962783
-657.05188
-651.978034
-658.6835574
-664.4279557
-658.8400196
-655.4425544
-660.9187318
-667.7360139
-661.0304905
-653.4308974
-655.7554788
-661.254008
-658.8623713
-650.4581154
-651.6204061
-659.5552754
-659.4658684
-653.4085457
-655.3531474
-662.8633336
-662.4162987
-654.2802637
-653.2744352
-657.6553771
-659.5999789
-652.8497521
-648.915845
-658.9517783
-668.250104
-671.0664238
-671.2899412
-681.8846681
-683.9857321
-669.7923743
-670.5746854
-678.8671826
-673.7039296
-650.2345979
-628.5087023
-613.7789027
-605.5087573
-613.8012545
-616.639926
-619.5680046
-639.4387054
-651.9109788
-650.7710398
-650.8604468
-658.3706329
-662.5280574
-658.013005
-656.1354585
-662.7068714
-670.8205546
-666.6407784
-663.6232929
-672.4969354
-679.7165489
-678.129575
-672.8992668
-676.386139
-684.8798019
-681.0353018
-676.1626215
-690.9147729
-721.9166424
-682.5775722
-526.0706575
-254.6310728
183.6866359
613.8012545
546.1648758
70.20682933
-466.1232789
-942.5507119
-1416.742971
-1788.653647
-1910.917689
-1776.404891
-1478.523192
-1145.079868
-901.1105777
-757.0088812
-639.5057606
-590.1084054
-571.243533
-564.0239196
-550.8363904
-525.4895121
-508.5021864
-500.5226136
-488.8326512
-469.6772062
-454.7015375
-450.7899822
-441.7598774
-421.5539004
-407.0476183
-402.3314002
-392.8542605
-375.5763621
-360.9583212
-354.1857426
-345.8261902
-327.5201115
-306.5988787
-294.6630472
-285.2082592
-266.075166
-237.5990436
-221.5281393
-206.507767
-181.4514615
-154.5623129
-134.3339842
-116.4078851
-91.59744878
-56.90754138
-21.92706131
2.905726779
33.25939575
73.11255611
110.5740798
136.882083
162.1395543
200.0704646
235.6097383
251.5912356
270.5008114
287.0187506
295.5794687
292.3384657
285.2529627
271.9983783
247.1208867
202.1491769
139.8548651
73.58194275
8.292497193
-65.58001823
-148.0579553
-215.9402032
-270.970198
-328.6600505
-386.4393099
-428.8852726
-457.7413747
-485.8375175
-515.0735992
-540.5769397
-551.6634049
-556.111402
-567.0414051
-576.2950273
-573.3669488
-570.3941668
-575.9821029
-585.2580768
-579.558382
-572.0705476
-577.2561523
-586.7109402
-581.391225
-575.0209779
-576.8091174
-586.0850914
-582.6652745
-577.1443936
-577.8149459
-586.6662367
-590.4436815
-580.9441901
-577.636132
-584.0287309
-593.4835188
-591.1365856
-584.7439867
-587.7614722
-597.1939084
-600.4349113
-597.4621293
-602.1783474
-610.3143824
-612.1919289
-606.8275102
-607.8780422
-612.5272051
-618.4280656
-615.6340975
-619.0092109
-629.1792547
-633.0684582
-626.698211
-625.5806238
-636.1529989
-641.3609554
-637.6282141
-632.911996
-642.2326734
-649.966377
-642.4338391
-635.6389088
-645.071345
-649.4969904
-642.0315077
-633.2025687
-638.5222839
-650.5028189
-648.6699758
-644.8701793
-647.95472
-654.5261329
-651.1510195
-641.137438
-643.5961298
-653.2967869
-655.3084439
-649.7428596
-646.8818363
-655.5766649
-659.5329236
-652.1791997
-647.9323683
-653.3861939
-659.8234963
-653.7214701
-646.5465601
-651.1733712
-658.4600399
-654.1461532
-649.2511212
-654.950816
-662.4610022
-657.9906533
-650.055784
-649.0499555
-658.1247637
-660.8516766
-652.0897927
-651.8439236
-661.1198975
-661.7010429
-653.9449875
-652.3133102
-657.7671358
-661.075194
-652.4474207
-647.7312026
-653.2520835
-658.1694672
-658.9294265
-657.8341911
-660.3375864
-661.2316562
-653.5426561
-647.4406299
-648.826438
-653.6320631
-653.7438218
-651.4639439
-659.8681998
-672.8098598
-681.191764
-668.8983046
-663.0197958
-683.8739734
-691.2947525
-671.2452377
-647.4182781
-635.0801152
-613.5106818
-592.410635
-596.3668938
-612.0131149
-630.0956762
-638.0976007
-640.4892374
-646.6806706
-657.6777289
-657.2753975
-651.9109788
-655.6884236
-666.9089993
-668.2724557
-657.5436184
-657.9683015
-670.5746854
-674.4862407
-670.5746854
-671.8934383
-676.3414355
-679.4706797
-674.3074267
-671.0664238
-681.8623164
-703.1411771
-687.1820315
-579.2007541
-396.1623187
-76.68883523
410.1545108
715.568747
394.3294757
-181.0267783
-681.459985
-1079.522202
-1506.440521
-1843.974214
-1820.951917
-1601.860118
-1316.070714
-1044.362908
-864.9678069
-735.0371164
-624.7089058
-588.0520449
-572.4952307
-552.3786607
-537.6265094
-531.9938698
-521.9579365
-502.7801398
-483.9823227
-478.2602761
-471.711215
-452.1310868
-432.8638831
-426.3595255
-425.0184208
-412.233223
-396.6540571
-387.2216209
-381.7230918
-368.3791004
-347.1896466
-333.7338965
-331.9234052
-320.5463672
-298.3957885
-280.0450063
-268.3103404
-251.5241804
-225.5514533
-201.2998106
-183.8654499
-162.34072
-128.8801585
-97.99004769
-76.5770765
-55.38762276
-20.51890141
15.46740716
38.95909059
62.47312575
99.48761457
135.1609987
156.1045833
169.8062026
188.7381302
211.1569299
224.3891626
223.2715754
221.639898
216.7672177
194.2813628
153.3776705
104.0920739
53.46537274
-6.996096015
-82.63439925
-155.5904932
-217.2813079
-275.7758231
-337.444286
-395.6705803
-438.9435576
-470.1912964
-501.4166834
-532.3291459
-549.4952857
-558.301873
-572.9646174
-589.4602048
-596.2998386
-589.9072397
-591.0695304
-602.737141
-604.4135218
-596.2998386
-594.8693269
-603.1394724
-605.0840741
-597.5068328
-591.0695304
-596.1880799
-602.2454026
-598.3114956
-592.9694287
-599.1608619
-604.9052602
-600.0549316
-593.7517397
-600.0102282
-608.593298
-606.0899027
-599.0491031
-598.8702892
-609.8673475
-611.5213766
-604.1676526
-605.6875712
-617.4222371
-623.0772284
-618.1598447
-616.8857952
-627.1675977
-634.6777838
-631.1462082
-627.3240599
-636.4212199
-644.8254758
-641.1597897
-636.3318129
-641.830342
-649.8322665
-647.2394642
-644.4231444
-652.4921241
-659.4658684
-659.4211649
-653.8332288
-656.090755
-663.3774237
-663.9362173
-656.4707347
-654.0120428
-662.9750923
-667.9148278
-662.0810225
-656.7166038
-665.6349499
-670.7534994
-663.6009411
-660.2258277
-666.2831505
-671.8263831
-668.3618627
-663.9138656
-670.2394092
-676.0732145
-673.4133569
-666.14904
-665.7243569
-674.6203512
-675.0226826
-668.9206563
-670.0158918
-676.6767116
-677.4813744
-671.5805139
-669.8594296
-676.3190837
-679.180107
-673.0780808
-666.3725574
-672.2287145
-677.5707814
-672.6533976
-668.160697
-670.261761
-675.335607
-672.7651564
-668.160697
-672.0722523
-678.0625198
-674.4862407
-666.3949092
-671.3569965
-679.6271419
-677.3919675
-670.3288162
-670.6193889
-677.7942989
-676.0732145
-669.5241534
-667.0654615
-679.5153832
-690.5347932
-690.3112758
-684.7009879
-684.0974908
-694.2004793
-692.479395
-681.102357
-668.6524354
-646.9488915
-623.99365
-605.3746468
-614.0694754
-633.873121
-634.7001356
-638.5446356
-655.3307957
-669.0100633
-670.6417406
-662.8633336
-665.9925778
-679.0683483
-681.2364675
-675.8944006
-676.8778773
-684.4774705
-687.7855286
-684.6115809
-684.5668774
-690.8253659
-695.273363
-693.1275956
-692.211174
-697.5085375
-705.510462
-718.4744738
-718.9438604
-636.2647577
-459.551866
-136.8373796
347.9496059
663.1539062
374.7493475
-177.4504992
-683.3151797
-1102.05276
-1535.788362
-1862.548514
-1871.60097
-1668.982407
-1371.994778
-1080.684493
-877.7753565
-739.3510031
-643.6408333
-615.4329318
-592.1200624
-574.0375011
-566.1249836
-556.6254922
-536.0618873
-514.134826
-504.9259072
-497.6168868
-484.9434477
-466.8832382
-458.2778166
-455.3720898
-442.8551129
-427.454761
-414.6919149
-407.4723014
-397.011685
-377.4762604
-359.9524927
-351.5035333
-340.3947163
-320.2334428
-302.7767304
-292.9866663
-279.6873784
-253.4240786
-224.61268
-208.9217554
-194.8625082
-166.5428479
-133.3952109
-104.4944053
-80.55568702
-48.50328547
-8.404255915
22.26233748
49.46441048
82.94732367
121.4146759
151.5671792
169.0462433
191.9791331
223.3162789
243.6787181
247.1208867
246.740907
250.0489652
242.3152616
212.6097933
173.0695573
132.3446789
80.42157655
4.850328547
-77.89582943
-146.0462983
-210.8440054
-278.1227563
-345.4238588
-396.6540571
-433.6908977
-474.8404592
-511.2514509
-533.6031954
-545.181399
-559.3300532
-578.329036
-589.6390187
-588.566135
-590.3319228
-603.0053619
-608.2803736
-601.8430712
-598.535013
-602.2230509
-606.9169172
-604.0335422
-595.4057688
-599.0714549
-607.3863038
-602.7818445
-596.4786525
-601.686609
-608.3250771
-610.2026236
-602.7147892
-602.6700857
-611.9460597
-612.6389638
-606.1569579
-605.531109
-612.2142806
-617.3328301
-611.0743417
-608.8168155
-619.3221354
-622.8760627
-619.970336
-619.0092109
-625.647679
-631.5038361
-629.6262896
-626.6758593
-631.9732227
-640.7574583
-640.958624
-638.8799118
-643.7525921
-651.4639439
-649.2287694
-646.4571531
-647.4853334
-655.040223
-656.180162
-650.9498538
-651.1286677
-661.5222289
-666.7301854
-661.6116359
-659.8234963
-665.8808191
-671.7593279
-667.0654615
-664.9420458
-668.6300836
-670.9546651
-667.7360139
-663.4221272
-667.4901447
-675.0450343
-672.7204529
-665.098508
-667.0654615
-671.7369761
-672.7651564
-664.4726592
-666.7301854
-676.4084907
-675.2014965
-669.2335807
-669.6582639
-676.1626215
-679.9624181
-673.7486331
-669.300636
-675.2909035
-678.5095547
-672.6981011
-667.5348482
-675.0897378
-680.7447291
-677.1013948
-671.133479
-674.5756477
-682.5999239
-679.5824384
-674.2180197
-674.7544616
-681.191764
-679.6271419
-670.082947
-667.7360139
-673.4357087
-672.9216186
-663.8021068
-665.2996737
-674.9332756
-681.102357
-676.8555256
-671.044072
-677.16845
-682.331703
-674.5085924
-666.7525371
-671.8710866
-680.1635838
-678.3754442
-671.6252174
-674.3074267
-680.0741768
-676.1402698
-669.6135604
-673.7262814
-687.0032176
-697.3967788
-693.351113
-697.2403165
-697.553241
-692.9264299
-695.5639357
-694.222831
-686.26561
-667.5348482
-649.005252
-625.4241616
-621.0208679
-637.6729176
-638.8128565
-641.1150862
-658.9294265
-673.9274471
-672.4298802
-666.9089993
-675.4473657
-685.1033193
-686.9808658
-681.2588193
-681.7058541
-688.8360606
-689.8642409
-684.7233396
-688.2996188
-697.4861857
-699.9672294
-696.0109706
-696.4356537
-701.576555
-706.8962701
-713.7135522
-724.5094448
-666.7748888
-501.9307735
-200.1375199
269.1820585
629.2016064
422.0232871
-94.57023079
-607.6098213
-1054.376489
-1516.610565
-1850.791496
-1903.049875
-1726.873425
-1426.778904
-1112.245156
-886.5595921
-747.3082241
-651.8215718
-619.4562458
-591.4942135
-575.4009575
-567.6225504
-557.5642654
-535.5030937
-514.3583434
-504.858852
-495.6275816
-476.1368604
-458.1213544
-450.4100025
-446.0290606
-431.7015924
-413.3061067
-403.0243043
-397.9951618
-386.6404756
-365.5180771
-351.4588298
-345.848542
-331.9234052
-308.0293903
-289.253925
-279.6650266
-265.5834276
-241.2423779
-217.0354387
-201.0762931
-182.2337725
-152.2153797
-121.7723038
-100.8287192
-76.13004161
-37.77444813
3.397465157
32.11945678
57.15341057
94.88315521
133.9763563
160.8655048
182.4349382
210.5981363
241.1976744
261.3142444
265.8292968
270.5008114
274.9488085
266.4327939
239.3201279
206.2618978
168.6662637
117.3690101
45.66461392
-30.57718641
-100.1805186
-168.375691
-243.2540349
-312.0527043
-361.4947631
-400.6326676
-445.6714327
-486.7762907
-511.8325963
-528.127018
-545.8519513
-564.4709545
-573.1210796
-571.0870708
-574.0598528
-586.3309606
-589.0355216
-581.1006523
-580.0501204
-590.2872193
-594.8022717
-585.8392222
-581.6370942
-587.7167687
-592.2988763
-588.744949
-583.0676059
-588.2085071
-596.4563008
-593.7517397
-587.515603
-590.2648676
-599.9878764
-597.3280188
-588.8567077
-591.7847862
-601.3289811
-603.1394724
-595.5175275
-597.5291845
-610.8955277
-613.3989231
-607.7662835
-608.5709463
-614.6059173
-618.9421557
-617.2210714
-617.1093127
-628.2404814
-636.0859437
-633.1355134
-627.8157983
-634.4319146
-642.0538595
-640.0645542
-636.756496
-641.8526938
-651.6204061
-649.7428596
-643.6184816
-647.1277055
-655.6213684
-657.9906533
-650.6145776
-650.4581154
-657.9459498
-662.5057057
-658.8847231
-656.7836591
-662.7068714
-662.8409818
-653.4308974
-650.9051503
-661.1422492
-667.8477726
-662.9303888
-659.2199992
-662.8633336
-667.5348482
-660.9634353
-654.1238015
-657.8788946
-665.9255226
-666.8195923
-661.2316562
-662.7515748
-670.4629267
-670.2394092
-664.7185284
-664.047976
-669.5688569
-671.3569965
-667.2666272
-663.8021068
-669.1888772
-672.7204529
-663.6903481
-659.2870545
-665.8361156
-669.1888772
-660.8516766
-655.219037
-660.8516766
-668.5183249
-665.1655632
-657.2977492
-657.4095079
-665.6125981
-665.4784877
-659.6223306
-660.4716969
-669.4123947
-670.2394092
-661.2316562
-656.6495486
-662.5727609
-665.2326185
-659.6893859
-657.1189352
-665.8361156
-671.9157901
-668.7418424
-661.7233946
-665.5231912
-670.2394092
-662.0810225
-654.2132085
-658.0353568
-665.5902464
-663.8244586
-658.3706329
-662.3492434
-664.8302871
-661.8351533
-660.2481795
-672.7428046
-684.1421943
-692.7476159
-679.9177146
-671.0217203
-685.0586158
-688.456081
-668.4065662
-644.1996269
-639.5951676
-625.7594378
-611.3649143
-616.7740365
-624.686554
-633.6943071
-640.1092577
-647.9323683
-658.281226
-669.0771185
-666.1266883
-657.5436184
-660.3375864
-671.1781825
-670.3288162
-663.9809208
-671.5134587
-684.3657117
-686.0867961
-679.5153832
-679.9177146
-687.8525839
-694.3345898
-692.4123397
-694.7592729
-723.5930233
-755.1089829
-691.51827
-511.9890585
-216.9013282
234.4921511
630.2521384
481.7024448
-33.52761668
-566.3708528
-1022.927585
-1484.736977
-1842.029612
-1934.230558
-1765.988978
-1458.38427
-1138.799028
-912.5323191
-761.7698028
-643.2385019
-613.8012545
-612.3260394
-596.9480392
-560.4252887
-529.9822128
-523.3884482
-524.6401459
-505.0153142
-485.5022413
-475.5780668
-462.524648
-445.7608397
-429.0193831
-425.353697
-424.7054964
-409.9533451
-398.933935
-397.3693129
-384.7182256
-351.7717542
-316.4783497
-302.6202682
-302.2626403
-303.2684688
-285.5658872
-255.4133839
-233.9557092
-227.4960551
-205.5689938
-187.5534877
-167.4369177
-137.150304
-98.97352445
-75.10186137
-55.45467799
-35.11459054
6.124377981
57.89101814
95.24078312
116.6984578
142.4700192
188.0005226
234.7156685
256.5086194
266.4998491
286.7952331
290.8856023
281.4308144
272.5124684
256.4192124
218.8012265
163.3689002
108.718885
57.98042512
-7.063151248
-95.35254185
-172.6895777
-234.4027441
-289.5668494
-350.2071321
-411.8979468
-448.8900839
-462.8152207
-488.9667617
-524.3272214
-557.6536724
-570.1930011
-565.5214865
-572.8752104
-588.2085071
-591.3824548
-591.3377513
-600.6807805
-613.8012545
-610.0238097
-601.686609
-598.1773851
-595.8751554
-598.2444403
-600.0102282
-607.7662835
-606.0899027
-602.3571613
-601.7536642
-610.2026236
-621.5573098
-632.4649611
-637.9411385
-642.4561909
-649.2287694
-636.9800135
-634.4989699
-637.7846763
-632.2861472
-617.5563476
-610.3814376
-622.8090075
-641.0033275
-649.3852317
-651.2851299
-658.7282608
-666.5960749
-659.1305922
-644.4231444
-641.5397694
-658.3259294
-670.8429063
-663.0644993
-653.4532492
-669.7923743
-692.5911537
-689.417206
-679.4706797
-680.8564879
-675.6038279
-655.5990166
-654.1014497
-661.4104702
-670.5299819
-672.9216186
-664.7185284
-659.7564411
-668.5406767
-676.3414355
-674.8662203
-678.9118861
-685.9750373
-687.2490868
-683.4939937
-680.9682466
-688.3443222
-689.9089444
-685.393892
-676.8778773
-677.2802087
-687.9643426
-697.8438136
-692.3229328
-683.382235
-685.2374298
-688.5454879
-678.3754442
-677.7942989
-682.1975925
-681.6835024
-677.5484297
-681.7058541
-688.6348949
-690.8477176
-684.3880635
-683.9410286
-695.541584
-703.0070666
-693.9546101
-687.5173077
-688.5901914
-690.9594763
-684.2316013
-678.8895343
-681.9293716
-690.2218688
-689.6407234
-676.4531942
-678.5989617
-684.8798019
-679.7836041
-664.047976
-663.8021068
-677.0119878
-685.4162437
-676.4084907
-664.7632318
-659.8458481
-658.1694672
-659.3541097
-666.8642958
-681.7505576
-686.2879618
-672.094604
-661.3434149
-664.0032725
-668.3171592
-662.0139673
-654.9284643
-660.6281591
-674.7097581
-678.9118861
-676.6096564
-685.483299
-703.1635288
-702.8729561
-679.5824384
-677.9060576
-689.8642409
-689.1713368
-664.2491417
-634.2083972
-619.6797633
-616.3493534
-621.0879232
-619.1209697
-627.5699291
-648.8934933
-656.6048451
-657.8565428
-663.5338859
-669.6359121
-672.7651564
-671.0887755
-674.4638889
-684.0974908
-685.4385955
-678.9118861
-677.5707814
-685.9526856
-684.164546
-676.8331739
-683.1587175
-695.8321566
-697.4414822
-688.0537496
-689.8195374
-715.7699127
-695.2510113
-546.4778002
-284.7388726
134.088115
604.4135218
621.0879232
136.099772
-440.0834966
-945.9034736
-1453.623349
-1856.379432
-2000.279963
-1877.613589
-1579.061339
-1223.713305
-953.2795493
-803.0981783
-669.8594296
-597.8644607
-564.0686231
-553.2950822
-547.1483525
-531.6585936
-514.6712678
-503.5400991
-489.1232239
-467.509087
-450.3876508
-448.6665665
-443.6597757
-426.9406708
-406.3323625
-395.4917664
-387.2886762
-372.5141731
-356.7561933
-349.3577658
-344.6862512
-328.5929952
-305.525995
-289.0974628
-284.1130238
-269.3832242
-244.1481047
-225.752619
-214.3532293
-196.717703
-166.4757927
-137.1056005
-111.2222804
-80.22041085
-38.06502081
0.312924422
19.69188687
45.28463427
87.37296908
126.6673358
153.4447257
178.4786795
208.4076653
241.1529709
261.3812997
274.5688289
292.7184454
309.5269572
313.3491055
296.4064832
276.0663958
255.3910321
218.8682817
158.7197374
90.85984121
27.58205266
-41.84246562
-121.6828968
-193.4767
-254.6087211
-308.8787566
-367.6861963
-418.9387463
-454.1427438
-477.6791308
-502.8918985
-529.0210878
-540.7334019
-544.6896606
-556.46903
-570.1706493
-575.1550883
-571.9811406
-571.3105883
-579.8936581
-576.6973587
-568.8071929
-564.6944719
-574.8421639
-582.4641088
-576.2950273
-572.1823063
-576.5856
-577.9490564
-574.3504255
-567.7119574
-572.4505272
-583.4475855
-584.6098762
-574.484536
-570.1930011
-578.4631465
-581.5476872
-573.7916319
-573.7022249
-584.1404896
-587.1579751
-583.5146408
-589.6613705
-601.2172224
-600.814891
-591.3377513
-594.6234577
-606.4698823
-614.1588824
-612.4825016
-610.3814376
-615.857615
-622.2055104
-615.8352632
-610.5602515
-619.5233011
-629.5368826
-627.1452459
-627.3687634
-631.6155948
-635.0801152
-631.0344495
-623.1889872
-626.0500104
-636.3765164
-640.3104234
-637.5835106
-638.85756
-646.3006909
-647.9994235
-639.0810775
-633.7390105
-642.0762112
-644.1549235
-639.9527955
-634.2978042
-641.4503624
-649.6087491
-643.4843711
-636.2647577
-639.7963333
-649.7652113
-648.8934933
-640.9139205
-639.997499
-650.3016532
-647.2618159
-640.9809757
-644.3337374
-653.3638422
-657.7224323
-656.7613073
-655.8225341
-655.6437201
-649.0499555
-638.5446356
-636.9800135
-651.8215718
-660.8516766
-655.12963
-651.2627782
-649.6534526
-646.5465601
-643.8196473
-642.6350048
-649.966377
-657.230694
-654.7049468
-654.257912
-662.125726
-666.1937435
-652.939159
-643.2832054
-654.1014497
-675.6708831
-683.0469588
-667.6689586
-664.6067696
-680.3871012
-673.5921709
-648.1782375
-620.5961848
-608.9285742
-600.3008008
-588.9461147
-590.3095711
-600.1219869
-613.8906615
-629.0451442
-633.2472722
-642.4561909
-654.4814294
-656.6495486
-653.7438218
-661.5892841
-670.7534994
-670.351168
-658.8400196
-663.1539062
-683.3598832
-684.1198425
-668.8759528
-668.0265865
-676.117918
-675.1120895
-667.2442755
-670.082947
-693.9546101
-696.5474125
-594.9140304
-403.5383944
-85.0707394
406.9358596
780.902896
539.0346693
-67.54697174
-645.1384002
-1167.699834
-1687.042616
-2032.667641
-2020.821216
-1781.724606
-1440.368764
-1115.866138
-900.3953219
-745.5424363
-616.5952225
-573.523411
-559.9782538
-549.0482508
-521.6450121
-498.9803432
-491.1572327
-478.0367587
-458.7919067
-441.3128425
-432.9979936
-428.6617552
-415.4742259
-395.5588216
-382.1924784
-376.2469144
-362.8358677
-341.1099721
-331.0069836
-327.5201115
-312.9914776
-295.3559512
-283.7777476
-275.6193609
-251.4794769
-217.3260113
-199.9140024
-197.3882553
-179.5962667
-141.6430046
-115.9161467
-101.2310506
-80.60039051
-42.24479702
-4.783273313
18.99898279
42.87064587
82.96967542
126.7790946
152.6177111
170.0744236
201.2104036
237.9790232
258.4085176
265.6504829
283.7106924
306.5318235
310.4657305
288.1586895
276.4240237
264.7340613
231.2958516
173.2036678
105.2096612
43.9435296
-19.62483163
-102.5498036
-181.2502958
-244.0586977
-297.5911257
-353.0011002
-402.7337316
-443.5033135
-476.9415232
-503.3389334
-518.5604714
-526.0930092
-527.3447069
-545.0025851
-567.3766813
-575.3115505
-565.208562
-560.4252887
-566.9743499
-574.1716116
-567.5331435
-564.9403411
-574.8421639
-580.8324314
-572.562286
-567.5107917
-572.0928993
-580.4748035
-576.2503238
-572.4281755
-578.8207744
-588.2532106
-587.8732309
-585.2357251
-586.5321263
-587.7167687
-584.1851931
-576.0938616
-583.9840274
-596.1210246
-594.7352165
-588.3426176
-586.6662367
-595.0704926
-597.6856467
-593.3717601
-595.3610653
-607.1851381
-612.9071847
-605.9334404
-605.2628881
-616.639926
-623.1442837
-617.0646092
-613.8906615
-624.3512779
-632.1520367
-626.6758593
-618.9868592
-626.8323215
-635.2589292
-633.4260861
-626.2735279
-628.6204611
-639.0587257
-638.9022635
-628.5981093
-626.3852866
-637.7623245
-641.0703827
-628.799275
-621.5573098
-628.8439785
-633.0684582
-625.8041413
-625.5806238
-634.1860454
-640.869217
-634.4319146
-626.8993767
-631.950871
-640.1316095
-636.7788478
-629.5592343
-634.051935
-641.8973973
-638.5446356
-632.8002373
-643.0149845
-659.3764614
-666.9089993
-655.3307957
-651.8215718
-667.1325168
-662.7068714
-638.6116908
-609.6214783
-591.6059722
-577.6584837
-567.2872743
-574.0151494
-585.4815943
-595.1375479
-607.810987
-611.9460597
-623.4125046
-637.4717519
-639.908092
-636.4212199
-639.7739815
-648.4241066
-650.7039846
-646.121877
-646.9488915
-655.5543131
-657.8788946
-652.8274003
-652.6932898
-664.9867493
-666.8866476
-656.0684033
-653.7661736
-676.8778773
-694.7145694
-608.1239114
-423.5432057
-130.2883184
332.9739372
782.7580908
675.7155866
90.52456504
-542.3203757
-1072.19083
-1588.918458
-2006.381989
-2064.496525
-1843.102496
-1511.179091
-1164.436479
-923.30586
-757.5229713
-614.6953243
-562.2804835
-543.9744048
-529.3563639
-508.9939247
-488.9891134
-480.9201337
-469.1407644
-447.9960141
-425.8901389
-416.7706271
-409.5733654
-393.3012954
-374.2352574
-367.6638445
-364.2887311
-346.3179286
-321.9098236
-312.4997392
-312.4550357
-300.3850937
-280.3132272
-266.3880904
-257.2462269
-232.6146045
-205.6807525
-185.5418307
-172.6225224
-156.1716385
-126.7343911
-96.35837035
-74.67717823
-54.85118089
-21.50237817
14.7297996
39.27201501
65.512963
103.4215216
145.5545599
175.0588626
202.2162321
235.0062412
269.5396864
292.9196111
301.4803292
317.6853439
335.4549808
337.2654721
324.592033
304.386056
280.9390761
240.2141977
177.1152231
107.668353
40.61311968
-28.52082592
-107.9812775
-179.0151213
-245.2209884
-303.4919862
-351.3247193
-404.9912578
-444.6432524
-471.2865318
-499.8073578
-523.4778551
-536.9783088
-543.5720734
-553.0715648
-565.8344109
-564.247437
-560.6264544
-565.297969
-572.7858034
-576.8538209
-565.5214865
-560.6041027
-568.0695853
-573.0763761
-562.5487045
-557.9442451
-569.8130214
-579.6924924
-572.383472
-567.8460679
-575.4233093
-585.3698355
-578.1502221
-568.8965999
-571.9140854
-583.1793646
-588.0743966
-580.2959895
-581.0335971
-590.1084054
-589.3707978
-580.7206727
-579.9830651
-592.2765246
-595.2269548
-589.437853
-591.1365856
-606.0228474
-614.7623795
-611.2308039
-606.0451992
-611.834301
-619.702115
-617.4445888
-609.554423
-614.3153446
-623.5466151
-623.7030773
-617.601051
-620.7302953
-624.8877197
-625.4465133
-621.0655714
-623.9489465
-633.873121
-638.9693187
-633.0237547
-632.0849815
-639.0587257
-638.6787461
-627.8828535
-625.2676994
-633.6272518
-648.1111822
-652.5368276
-653.7885253
-660.292883
-656.8283626
-650.9498538
-657.8118393
-668.0489383
-659.935255
-634.1860454
-609.822644
-589.9519432
-585.0122076
-588.9461147
-592.8800217
-611.2755074
-631.7944088
-637.0694205
-631.1238564
-631.5932431
-641.4727141
-653.3191387
-649.2734729
-642.6797083
-653.4085457
-658.8400196
-652.4027172
-649.2511212
-656.4260312
-669.7253191
-664.9420458
-656.8283626
-664.1597347
-673.4357087
-673.5474674
-675.4697174
-679.0236448
-602.5806788
-440.1505518
-173.4718887
233.3745639
718.4074185
713.7582557
185.5418307
-433.9367669
-929.3855345
-1361.109479
-1816.459217
-1961.767907
-1788.56424
-1543.700879
-1221.478131
-968.7916599
-817.5821087
-694.9380869
-596.3668938
-551.6187014
-532.3291459
-525.5789191
-506.3564189
-486.1504419
-477.1650406
-472.3370638
-457.2049328
-436.7307349
-424.8172551
-419.9445748
-410.1545108
-395.2682489
-382.0136645
-379.0408825
-368.2449899
-350.8553327
-336.2372918
-331.3199081
-325.463751
-304.8330909
-281.0955383
-268.7797271
-262.1859625
-238.7166308
-210.7322467
-192.7390924
-179.0598248
-151.9024553
-116.6314026
-90.52456504
-72.28554157
-40.5237127
-2.972782013
25.05630553
48.7715064
79.88513468
118.6430596
154.7634786
169.8509061
188.6934267
217.4601218
239.2083692
245.6009681
245.958596
250.0489652
249.3560611
224.8361975
185.8547551
145.9345395
97.81123374
27.58205266
-51.61017795
-119.2689084
-179.3503975
-243.9692907
-310.8904136
-364.4898968
-405.6841619
-445.8502467
-488.3856163
-515.095951
-526.897672
-542.5662449
-562.5934079
-579.8042512
-581.4135768
-580.0501204
-589.1025769
-597.1045014
-593.1035391
-587.6497135
-593.3047048
-599.8537659
-594.1987746
-587.8285274
-591.3824548
-599.8537659
-599.0491031
-590.0413501
-588.1414519
-594.3552368
-598.803234
-592.7906147
-592.4553385
-600.2784491
-600.8819462
-589.4825565
-584.9004489
-592.3435798
-599.1161584
-595.1822514
-593.3047048
-602.0218852
-610.7390655
-608.2803736
-605.4193503
-612.3707428
-621.1326267
-618.2268999
-613.7789027
-620.6408883
-630.5650628
-629.7380483
-622.8090075
-624.0383534
-633.9178245
-636.1977024
-628.4863506
-630.810932
-642.8138188
-645.2278072
-636.1977024
-632.2190919
-640.5115891
-647.3735747
-644.4007926
-641.1150862
-646.7700776
-652.9838625
-648.9381968
-647.2171124
-660.8069731
-674.7097581
-682.3540547
-674.0615575
-667.9595313
-680.9235431
-686.7349966
-676.8778773
-656.0236998
-645.0489932
-623.7701325
-598.5126613
-600.9266497
-618.9421557
-629.7156965
-640.6680513
-646.6583188
-658.3259294
-664.8302871
-660.4046417
-657.4318597
-668.339511
-676.0508628
-674.9332756
-671.4687552
-678.6213134
-684.432767
-680.1188803
-676.7661186
-679.5153832
-687.0479211
-683.9186768
-674.3074267
-677.0566913
-691.8758979
-709.623183
-693.1275956
-581.659446
-386.7969378
-51.20784655
426.8959674
674.6203512
321.8874719
-266.1869247
-793.3751694
-1203.663791
-1618.981554
-1902.826357
-1864.135488
-1644.104915
-1337.573092
-1053.571827
-857.4352691
-707.7232847
-609.822644
-587.0685681
-567.7119574
-546.0754688
-531.1445035
-525.5118639
-514.8500818
-494.4652908
-477.9249999
-471.3535871
-460.0212526
-442.5198367
-427.4324092
-420.9727551
-413.5296242
-397.1234437
-379.9126005
-372.0447865
-366.8144783
-350.1624286
-327.9447946
-318.7805794
-315.1372451
-296.7417594
-273.160669
-254.1840379
-237.643747
-221.4163806
-194.0354936
-169.8285544
-154.1376298
-128.924862
-94.27965811
-62.42842226
-38.86968361
-9.544194882
32.38767772
71.36912005
98.03475118
123.5827951
156.6633769
190.1239383
208.519424
219.8517585
238.7613343
255.1898664
253.5581891
238.9401482
226.4231713
203.7808542
160.9996153
103.5779838
39.9202156
-23.13405551
-93.98908543
-172.1754875
-242.3152616
-298.7534164
-354.9009985
-413.283755
-461.384709
-488.6985408
-510.1338637
-539.2581867
-563.4427742
-571.0200156
-576.7644139
-591.1812891
-602.7818445
-599.9208212
-595.5845828
-600.4349113
-608.5038911
-605.79933
-599.674952
-603.1618241
-611.7001905
-610.6496585
-600.5019665
-594.5787543
-602.8488997
-606.1346061
-597.8644607
-596.2998386
-604.4135218
-611.7895975
-608.5709463
-604.1453009
-610.2249754
-618.3610104
-612.9518882
-605.9110887
-610.3814376
-621.2220336
-620.2162051
-614.807083
-622.2725656
-631.4367809
-631.4814844
-626.2735279
-628.2181297
-640.6456996
-643.6408333
-633.09081
-632.3532024
-645.8760078
-652.939159
-646.4571531
-639.3492984
-650.4581154
-657.7447841
-653.9449875
-647.95472
-652.9168073
-660.7399178
-656.3142724
-652.7379933
-658.3482812
-665.5455429
-660.9634353
-654.9955195
-659.0188335
-667.1548685
-666.2831505
-658.5270951
-659.3764614
-667.020758
-668.2948075
-663.3327202
-667.3336825
-687.3831972
-700.436616
-700.1236916
-699.475491
-700.4813195
-705.6669242
-697.463834
-692.2335258
-710.5396045
-723.5483198
-708.4161888
-663.3103685
-635.01306
-629.9839175
-625.5359203
-633.3813826
-652.7379933
-672.5416389
-673.3910052
-665.9478743
-668.9877115
-681.5717437
-685.9079821
-679.2918657
-678.9565896
-689.148985
-697.7320549
-692.479395
-685.3491885
-692.0100083
-696.3909502
-694.5804589
-691.4065112
-698.2908485
-707.5668225
-710.8078254
-721.4472558
-691.9876566
-561.6769864
-318.6911724
91.66450401
552.1104398
573.5904662
110.3282106
-466.726776
-953.1230871
-1403.890717
-1806.177414
-1961.142059
-1840.46499
-1572.311112
-1242.287605
-973.4855263
-808.4402452
-678.4648512
-612.3036876
-580.608914
-561.7440417
-555.4632015
-548.6906229
-529.4681227
-506.5799363
-497.5721833
-493.5935728
-480.3613401
-457.2049328
-445.4255635
-438.7647437
-427.6335749
-409.6851241
-398.4421967
-397.0340368
-387.3110279
-370.949551
-354.8115915
-346.7649635
-333.5550825
-311.9409456
-293.5454599
-283.129547
-268.6232649
-245.2209884
-216.7895695
-198.0141041
-182.6584557
-154.6517199
-119.5371293
-91.21746912
-68.01635838
-34.55579693
6.347895425
39.76375339
66.16116359
99.5546698
138.5584639
167.4816212
184.1113191
202.57386
227.9654417
248.4172879
249.3337094
244.4610291
243.8351803
229.2171394
194.3260663
145.8898361
90.79278598
29.63841315
-48.50328547
-129.9977458
-198.1258629
-257.4920961
-321.1051608
-383.7794523
-430.0699151
-465.0950986
-500.3661514
-535.9054251
-558.7042044
-569.8353731
-579.9830651
-595.6069345
-605.4193503
-603.6312108
-604.4582253
-611.9684114
-613.6894958
-607.2074899
-604.1676526
-610.0014579
-615.7235045
-613.667144
-606.6039928
-612.884833
-620.5738331
-614.4941586
-606.3134201
-609.9344027
-618.2268999
-619.2774319
-612.8624812
-614.4941586
-622.3843244
-623.5913186
-619.4115423
-621.1549784
-632.0626297
-636.7117926
-628.9110337
-623.2113389
-632.1296849
-640.8021618
-638.946967
-634.7001356
-644.9372345
-653.5873596
-652.5815311
-647.6194438
-652.9168073
-662.2598365
-663.4668307
-657.5212666
-660.3375864
-669.6582639
-671.0887755
-662.0139673
-661.0081388
-670.1500023
-671.5358104
-664.6291214
-663.4668307
-672.9439703
-678.1072233
-673.2568947
-669.4347464
-675.5591244
-682.2646478
-676.8778773
-669.300636
-675.0897378
-682.1305373
-679.4036245
-674.3297785
-679.7612524
-688.5454879
-686.5114792
-679.2918657
-682.8010896
-691.8088426
-692.300581
-685.7962234
-684.7233396
-692.1217671
-693.3064095
-684.3880635
-678.1742785
-687.4502525
-691.3618077
-684.2763048
-678.3530925
-685.1480228
-691.6523804
-687.4726042
-680.8341361
-686.2432583
-691.160642
-686.444424
-678.2860372
-679.6271419
-687.316142
-686.4891275
-679.5600867
-682.1305373
-690.3112758
-690.4006827
-684.8127466
-685.2821333
-691.4065112
-690.4230345
-681.370578
-682.5328687
-694.4463485
-708.5502992
-708.5950027
-705.4434068
-711.7018952
-706.6951044
-704.2364126
-708.1926713
-708.4608923
-696.8826886
-672.0275488
-647.0159467
-626.9217285
-635.5047984
-646.8818363
-644.4007926
-652.4250689
-674.9332756
-686.1314995
-679.6941971
-681.4823367
-692.8146711
-699.1402148
-693.0158368
-689.1266333
-697.7991102
-700.7718922
-695.1392526
-693.6416857
-702.8059009
-708.572651
-702.9847149
-700.2801538
-706.292773
-713.5123865
-716.2169476
-725.716439
-732.1984449
-650.9051503
-459.73068
-125.9744318
352.6434723
643.9090543
355.3033299
-192.2250023
-716.9545551
-1192.465567
-1658.90177
-1950.770849
-1941.249006
-1725.979355
-1405.388284
-1088.038217
-881.1728217
-746.794134
-653.7438218
-619.4785976
-594.7352165
-587.3591408
-583.0676059
-565.0744516
-540.4875327
-524.6401459
-518.0016778
-504.4565206
-479.9590087
-466.6150172
-463.5975317
-453.8298194
-434.6743744
-422.4032667
-420.8609963
-411.9650021
-390.5520309
-372.0671382
-369.2731701
-359.4831061
-340.2159024
-322.8709487
-312.2985735
-299.5357274
-274.3453114
-249.7583925
-233.4863226
-219.5164823
-192.4485198
-160.239656
-135.6527371
-118.0395625
-87.4847278
-43.60825343
-11.86877631
13.05341876
43.9435296
81.49446028
113.2786409
134.5575016
158.9432548
189.2298686
212.542738
218.7788747
221.5951945
233.8215987
236.5708633
215.694334
183.6419324
151.9024553
111.9375362
52.57130296
-24.74338111
-93.89967846
-159.0773653
-230.2676714
-300.183928
-352.9787484
-394.9329728
-439.1223716
-483.9376192
-515.7217998
-532.8432361
-550.3670037
-573.434004
-586.6885885
-586.6662367
-588.655542
-600.8372427
-608.4368358
-601.6195538
-595.8751554
-601.6419055
-610.6720103
-609.6885335
-602.2901061
-599.9655247
-607.0510277
-608.7944637
-603.4971003
-604.7264462
-612.4825016
-613.4212748
-604.0335422
-603.0947689
-615.0529522
-620.9538127
-614.9635452
-614.1365307
-623.0325249
-626.2511761
-622.6972488
-622.1384552
-631.3920774
-637.3152897
-633.2472722
-630.7885803
-636.6000338
-647.3959264
-645.4736764
-642.0538595
-649.3628799
-659.1305922
-659.2870545
-656.090755
-661.3657667
-671.7146244
-671.8040313
-664.8079353
-665.6573016
-676.1402698
-678.7554239
-673.9721506
-670.7534994
-678.5542582
-685.0362641
-678.4201477
-674.4191854
-684.9692088
-694.491052
-686.3103135
-678.8224791
-682.242296
-689.5513164
-688.2549153
-680.409453
-683.9633803
-693.7534444
-690.7136072
-683.0022553
-683.8739734
-693.6193339
-695.0498456
-687.7631769
-689.3501507
-695.7874531
-698.5814212
-692.9264299
-690.6689037
-697.4191305
-700.8165957
-693.0381886
-684.7233396
-691.7194357
-699.296677
-694.0887206
-689.4842612
-693.44052
-698.8719939
-696.0109706
-688.9031159
-689.7524821
-697.0615026
-696.2791915
-688.277267
-689.6854269
-697.9555724
-696.2121363
-689.1266333
-688.2325635
-696.3685985
-698.6484764
-692.0323601
-688.456081
-692.9264299
-698.4696625
-691.2724008
-683.3151797
-685.1927263
-691.1382903
-687.7855286
-684.9915606
-691.1382903
-700.5707265
-696.4356537
-688.5007845
-689.0819298
-697.2179648
-698.0002759
-693.0158368
-694.3792932
-702.5823835
-708.7067614
-710.405494
-714.9652499
-716.9992586
-711.9030609
-714.339401
-713.4006278
-705.4881102
-689.8195374
-667.3783859
-639.1704844
-629.1121994
-649.1170107
-653.028566
-651.9333305
-670.2841127
-690.7583106
-692.3452845
-686.3773687
-688.8360606
-700.8165957
-707.7456364
-703.588212
-702.7164939
-708.9302789
-708.7291132
-700.9060026
-699.1178631
-710.2937353
-714.9876016
-708.6844097
-706.6727527
-713.4006278
-720.1732063
-719.3014883
-734.3889158
-733.4501426
-629.3804204
-413.1272928
-34.15346553
457.1378776
623.4795598
234.2015784
-310.8457101
-811.5247859
-1309.052266
-1762.792678
-1984.47728
-1909.710695
-1657.87359
-1324.407914
-1030.03544
-849.1874753
-723.704782
-654.257912
-621.1996819
-596.2104316
-592.1871176
-585.593353
-563.375719
-540.5322362
-529.3563639
-523.4107999
-506.8034538
-486.3292559
-475.2651424
-470.5489243
-457.4731538
-437.5577495
-425.8901389
-422.8503016
-410.4450834
-392.0048943
-380.2255249
-375.8222313
-362.4111846
-340.4394198
-321.4627888
-314.6008032
-301.7261984
-274.7252911
-253.2676164
-237.8002093
-222.6457265
-196.6059442
-163.123031
-139.9219203
-118.7995218
-85.69658824
-49.41970699
-20.80947409
1.698732579
33.16998877
71.68204447
99.88994597
120.9005858
146.4933332
178.1881068
198.1035111
205.3901798
210.1734531
220.4329038
219.4270753
198.5281943
169.6273887
137.3067662
93.85497497
28.25260499
-45.26228252
-110.8423008
-174.1200893
-250.5407036
-323.8544254
-380.3372837
-422.0903423
-464.8045259
-503.8530235
-531.3456692
-548.8694368
-568.9189516
-592.9023734
-604.2347079
-603.2959346
-607.9227457
-619.6797633
-624.4183331
-617.958679
-615.9917254
-624.6194988
-631.079153
-625.3124029
-620.4397226
-624.9771267
-631.861464
-631.6155948
-627.1452459
-627.0558389
-630.6097663
-624.8206645
-619.5009493
-624.4853883
-636.1306472
-635.1918739
-628.2628331
-631.6379466
-640.8021618
-644.2666822
-639.2598914
-639.3940019
-652.3133102
-658.3259294
-653.7885253
-651.5980544
-658.5047434
-666.2607987
-665.8584673
-664.047976
-672.094604
-680.4541565
-678.218982
-674.4638889
-679.9177146
-688.2549153
-686.6008862
-681.2588193
-686.0197408
-696.323895
-696.8826886
-690.1771653
-692.1441188
-700.7048369
-703.3870463
-697.4861857
-696.4803572
-702.9847149
-702.8059009
-694.6475142
-694.8933834
-701.5542032
-707.9468021
-703.0070666
-695.6533427
-698.7602352
-705.6445725
-703.2752875
-695.6086392
-702.1129968
-710.5396045
-707.7456364
-702.7164939
-705.5551655
-715.0323051
-712.3500958
-702.269459
-697.463834
-704.8175579
-709.7349417
-703.0517701
-700.0789881
-709.4220173
-712.6630202
-703.9905434
-699.4531392
-706.4939387
-711.9254126
-705.2869445
-697.3967788
-702.0235899
-708.9526306
-707.0303806
-702.7388457
-708.30443
-714.9428981
-711.4336743
-704.1023021
-702.4035695
-705.6669242
-705.8457382
-701.397741
-701.0848166
-709.1984998
-710.584308
-700.4589677
-698.0673311
-707.0974358
-710.2043283
-703.6552672
-701.8671276
-710.9195841
-714.4511598
-706.1586626
-697.1285578
-699.7884154
-709.1984998
-703.0741218
-695.8098049
-700.436616
-709.8690522
-710.1372731
-700.1683951
-706.9633254
-724.8447209
-732.533721
-719.2120813
-706.3374765
-721.8719389
-729.1809594
-714.2499941
-691.3171043
-674.3297785
-653.989691
-636.0188885
-640.6456996
-658.0577085
-665.9255226
-673.7039296
-680.230639
-694.5357555
-704.5940405
-704.1023021
-700.4813195
-708.6844097
-720.0390959
-720.3967238
-711.8136539
-714.0935319
-725.8505494
-727.5045785
-721.9166424
-721.1343314
-729.3150698
-731.0808576
-727.3034128
-730.8573402
-747.8223142
-767.3130354
-733.4724943
-602.0889404
-384.2488389
2.279877934
496.8345758
610.4708446
173.1589643
-399.202156
-899.9706387
-1393.363046
-1836.262862
-2032.645289
-1916.527977
-1629.062191
-1292.735492
-1024.961594
-853.0543271
-712.7524272
-644.3113857
-629.9615657
-617.4445888
-596.9256874
-575.4680127
-558.6371492
-545.8072479
-526.9647273
-507.0716747
-495.0017327
-486.2174971
-469.3642818
-451.415831
-443.0339268
-437.334232
-421.0845138
-402.0631793
-391.0214175
-384.8970395
-371.1283649
-347.860199
-335.1197046
-329.1964923
-312.7679602
-285.7670529
-262.3647764
-251.6582908
-238.4707616
-212.0509996
-184.9383336
-166.4757927
-144.7946006
-111.5575566
-73.559591
-49.30794827
-27.04561079
9.097159993
49.91144537
78.20875385
102.1698239
134.1328185
168.0404148
192.0461884
209.659363
230.5358923
251.6806426
255.927474
248.6408053
241.3317849
232.0334592
207.1783194
161.2454845
108.2494984
57.42163151
-8.895994293
-88.82583247
-165.8722956
-226.5572818
-283.8895063
-344.9544722
-399.7162461
-438.7200402
-470.7053865
-505.6858666
-533.6255471
-547.0365938
-551.5069427
-565.7450039
-582.9558471
-589.0578734
-586.1521466
-585.8615739
-593.9976089
-595.8751554
-588.6108385
-588.0296931
-594.9587339
-599.8314142
-593.9529054
-590.667199
-597.3056671
-603.2959346
-596.1433764
-589.5719635
-594.4893473
-601.7313125
-598.803234
-592.8353182
-600.8372427
-609.0850364
-610.1802719
-603.519452
-605.0170189
-612.5719085
-614.628269
-607.6545248
-610.8284725
-621.6467168
-625.2006442
-620.2385569
-621.1102749
-630.9226907
-637.7623245
-636.6223856
-637.7623245
-644.3113857
-647.95472
-643.3726124
-640.5339409
-647.5300369
-656.0236998
-655.6884236
-647.7088508
-650.5251706
-660.6281591
-658.5717986
-653.3191387
-658.3929847
-667.2442755
-665.6125981
-659.0188335
-658.0800603
-666.9089993
-671.7369761
-667.6466069
-666.2831505
-670.351168
-670.7087959
-664.7408801
-663.7797551
-671.8710866
-677.7719471
-674.3297785
-665.7020051
-669.0547668
-677.9954646
-676.0955663
-668.160697
-669.1665255
-678.5542582
-677.8166506
-670.9546651
-671.4016999
-678.1742785
-679.5824384
-674.0615575
-673.9945023
-679.9624181
-680.7894326
-669.1665255
-668.8312493
-679.1577553
-681.5493919
-674.285075
-668.160697
-672.9216186
-678.8671826
-676.117918
-667.4901447
-668.8983046
-675.8273454
-670.8429063
-666.059633
-670.7982028
-680.3647495
-680.8117844
-671.312293
-672.273418
-681.4152815
-683.382235
-673.9721506
-670.4405749
-676.2296768
-679.5824384
-672.1393075
-668.7418424
-671.8487348
-677.8837058
-678.3754442
-674.3074267
-674.8662203
-676.8108221
-672.094604
-669.032415
-675.0450343
-684.9021536
-691.5853252
-689.1042816
-686.8914589
-685.9526856
-692.2558775
-687.9419908
-677.6378367
-670.5076302
-649.3405282
-623.5019116
-611.7225423
-620.9091092
-634.8565978
-634.3648594
-650.2793014
-669.4794499
-673.0333773
-667.6019034
-663.8468103
-671.8263831
-682.7116826
-680.1859355
-675.0897378
-680.6106187
-692.1888223
-692.8146711
-688.8807641
-690.7583106
-699.5201945
-701.9118311
-694.8263281
-695.9886188
-705.8457382
-723.2577471
-735.8864827
-689.1936885
-555.5526084
-315.5619282
94.90550696
585.8839257
625.826493
146.940368
-401.6161444
-884.8385078
-1357.577903
-1817.956784
-1983.158527
-1816.772141
-1547.657138
-1232.22932
-985.3543026
-820.8231116
-695.4298252
-632.4649611
-608.7497602
-582.0394256
-560.6041027
-552.8927508
-543.1473903
-524.4836836
-510.6256021
-501.8637183
-489.8608315
-469.0290057
-452.9357496
-448.0630694
-441.8716361
-423.9678888
-406.7570456
-401.124406
-395.9388013
-379.4432139
-359.5054578
-349.0448414
-343.3004431
-327.5871667
-307.0235618
-290.8185471
-279.6203231
-261.6495206
-237.6660988
-213.1462351
-196.2259646
-173.4718887
-140.123086
-112.6751438
-93.63145752
-67.25639907
-29.21373
6.861985548
30.80070386
58.09218384
94.19025113
129.3048417
150.6060541
164.8888188
190.3027523
215.9625549
228.3901248
229.7088778
236.2802906
238.5378168
221.5281393
183.7536912
141.5312459
97.38655059
36.79097137
-39.9202156
-114.4632834
-179.2609905
-247.3667559
-320.2557946
-376.2245627
-413.7531416
-449.2924153
-496.7898723
-537.2018262
-555.2843875
-563.7780504
-575.535068
-591.5836205
-600.2784491
-600.5913735
-603.698266
-611.9013562
-614.7400278
-608.1015597
-610.1802719
-620.66324
-619.9256325
-608.8168155
-602.8488997
-609.733237
-613.4659783
-607.4086556
-605.1064259
-612.1248737
-620.5738331
-617.5563476
-610.2696789
-612.4154463
-618.8751005
-616.1034842
-615.0529522
-623.0101732
-632.6884786
-631.9285192
-624.5300918
-628.0393157
-638.5446356
-640.958624
-637.7176211
-640.6233478
-650.3687084
-653.8108771
-647.7312026
-649.7875631
-658.4376882
-666.2831505
-663.4444789
-661.2987115
-665.6573016
-669.6582639
-667.2219237
-662.6621679
-668.339511
-678.1519268
-677.6825401
-672.4075284
-674.7321099
-681.7952611
-681.5046884
-674.0839093
-674.9556273
-680.6553222
-683.9410286
-678.5989617
-682.2646478
-692.8370229
-691.160642
-681.2588193
-678.9565896
-685.4385955
-688.9478193
-683.4269385
-680.5212117
-686.9585141
-695.452177
-689.8642409
-682.5328687
-688.4337292
-695.1616043
-693.1052438
-687.9866943
-688.5231362
-695.7874531
-693.5746304
-685.0362641
-689.4395577
-698.246145
-699.386084
-692.8593746
-688.5007845
-692.8817264
-693.529927
-687.5843629
-685.5503542
-693.7981479
-697.6873514
-691.6076769
-686.0197408
-694.222831
-700.4589677
-694.3345898
-685.9079821
-689.2160403
-698.424959
-696.4580055
-688.9701711
-691.1829938
-695.4968805
-697.2626683
-691.160642
-694.8710316
-711.0760464
-717.2004243
-709.354962
-696.0556741
-707.6562295
-720.8214069
-709.623183
-690.9818281
-671.9157901
-657.2530457
-635.974185
-628.3075366
-644.3784409
-654.5931881
-663.7350516
-676.9002291
-689.0819298
-696.2121363
-691.3171043
-688.456081
-697.5979445
-710.2490318
-709.9137556
-702.7164939
-702.6047352
-714.1605871
-717.9603836
-711.2772121
-708.7067614
-716.4181133
-718.6979912
-713.3112208
-714.2276423
-727.5716338
-746.61532
-731.9302239
-625.0888854
-437.6471564
-105.9696205
385.3664262
662.125726
322.5356725
-259.0567182
-767.4247941
-1208.759988
-1672.156354
-1978.777585
-1929.424933
-1679.666541
-1355.588598
-1072.503754
-888.5936008
-749.1857707
-652.4027172
-630.4980076
-611.3425626
-585.0792629
-575.8032889
-565.4097277
-553.9879863
-531.6138901
-512.7713695
-507.7645788
-501.8413665
-482.3059419
-460.7365085
-453.6510055
-453.606302
-438.384764
-419.229319
-409.5286619
-403.3595804
-387.1769175
-367.1050509
-354.1857426
-347.2343501
-330.627004
-303.0673031
-284.001265
-275.5746574
-259.7496223
-229.6194708
-204.764331
-189.2522203
-167.8839526
-136.7256208
-100.3146291
-75.86182068
-49.30794827
-13.58986063
25.68215438
54.6053117
75.9735794
103.8462047
139.5195889
165.4252607
185.9441621
205.2113658
226.1773021
235.9226627
230.2006161
219.0694474
207.9606304
181.2949993
132.5681964
76.24180034
20.69771537
-42.82594238
-123.4263329
-200.562203
-264.1976195
-321.7980649
-382.5724581
-440.7540489
-479.0425872
-505.5741078
-537.6265094
-567.3543295
-584.2969518
-590.0413501
-602.2901061
-622.0713999
-627.5475773
-621.5573098
-623.5466151
-632.0849815
-636.5329786
-630.1627314
-626.5417488
-634.4095629
-639.7069263
-634.8565978
-632.6661268
-641.1597897
-647.5747404
-641.4056589
-635.1918739
-638.6563943
-643.9537578
-640.086906
-634.0742867
-639.3492984
-646.8594845
-645.3842694
-637.6505658
-641.5844728
-656.0460515
-658.2588742
-653.8555806
-653.5203044
-662.9750923
-667.7360139
-661.8575051
-661.7904498
-673.145136
-677.0343396
-670.0605953
-665.7690603
-674.8662203
-682.4658135
-679.5153832
-674.9332756
-681.4823367
-689.6183717
-688.0761013
-683.6728077
-690.4006827
-698.7378834
-697.3297235
-690.2442205
-691.7641391
-704.2140608
-707.5891742
-701.6436102
-699.0731596
-702.8059009
-704.8175579
-698.5590695
-694.2004793
-700.5036712
-708.3491335
-705.7116277
-699.296677
-707.0974358
-714.4511598
-709.7349417
-703.9011364
-708.0809126
-715.3005261
-711.5007295
-703.8117294
-706.1363108
-716.7310377
-716.619279
-709.354962
-711.5677847
-720.3967238
-716.7310377
-703.3870463
-702.5823835
-710.9195841
-711.9254126
-706.9633254
-705.6222207
-713.4900348
-717.2674796
-710.584308
-705.2422411
-710.584308
-719.1226744
-713.8253109
-703.5435085
-708.5279475
-717.1557208
-713.8700144
-707.5668225
-709.7796452
-718.2733081
-719.413247
-712.4842063
-712.327744
-720.553186
-723.3695058
-712.417151
-706.7845114
-712.595965
-715.658154
-709.9584591
-709.533776
-716.8204447
-724.1518169
-728.8456832
-730.8796919
-735.3500408
-728.510407
-728.7339245
-731.3267268
-727.4151716
-720.2626133
-693.6640374
-667.2219237
-652.5368276
-658.3706329
-670.1276505
-668.9877115
-680.6553222
-704.638744
-713.1324068
-709.1090928
-710.2937353
-719.7932267
-729.2703663
-725.1576454
-723.3248023
-732.1984449
-738.9263199
-733.67366
-731.9972792
-738.9039682
-745.2518636
-741.4520671
-736.5346833
-743.5531311
-752.7173463
-758.1711719
-769.9281895
-747.2858724
-625.5359203
-397.6151821
5.140901225
495.1581949
596.523356
160.3737665
-397.3022577
-888.8618218
-1392.066645
-1848.399859
-2045.452839
-1924.999288
-1652.397412
-1319.267013
-1040.205483
-866.4206703
-738.0098984
-676.6767116
-650.8827985
-625.8935482
-615.768208
-604.569984
-583.7828617
-565.297969
-554.1220968
-548.154181
-534.1396372
-512.9278318
-496.5216513
-492.6547995
-486.6868838
-467.3079213
-450.544113
-446.520799
-434.182636
-414.24488
-396.2070222
-389.9485338
-382.3042372
-361.9865015
-342.518132
-331.5210738
-317.9088614
-292.1596518
-262.3871282
-245.3550989
-233.3298604
-209.8605287
-175.3047318
-147.1638855
-126.5332254
-95.86663197
-55.56643672
-21.72589561
6.794930314
36.18747427
75.19126835
108.1153879
129.6401178
149.8460948
175.5953044
197.6341245
207.737113
210.531081
213.1685869
209.7264182
186.9499906
149.5108187
110.8423008
64.26126531
-1.899898279
-78.25345734
-149.3320047
-214.9343747
-286.1693843
-355.2586264
-411.5403189
-452.2651973
-495.2028984
-537.7829716
-567.7790127
-583.7828617
-601.4630915
-620.2385569
-632.5767198
-632.8002373
-636.0859437
-647.6641473
-657.7000806
-649.8099148
-639.6622228
-642.2326734
-649.0276037
-648.1782375
-642.5008944
-644.1549235
-653.6991183
-652.8497521
-642.1879699
-642.009156
-651.6874613
-653.0732695
-645.4736764
-646.5242084
-657.3201009
-662.8633336
-657.5659701
-653.5203044
-659.6893859
-666.7748888
-663.0421475
-659.1082405
-665.8808191
-672.6757494
-672.1616593
-666.3949092
-670.7311476
-677.5037262
-677.436671
-673.8603918
-679.358921
-689.3501507
-691.3841595
-687.494956
-690.5347932
-702.2918108
-705.3539998
-697.8438136
-694.3792932
-700.5930782
-706.0916073
-699.1849183
-700.347209
-708.7738167
-711.9924679
-706.4492353
-699.4978427
-709.1537963
-716.8427964
-712.0371714
-707.2762498
-712.1936336
-720.3743721
-718.6979912
-713.6017935
-714.7864359
-722.743657
-723.525968
-714.4064563
-712.9312411
-720.4861308
-724.0624099
-715.658154
-713.0429999
-720.9108139
-726.9457849
-721.7378285
-716.7310377
-720.3743721
-723.2577471
-715.568747
-710.3831423
-715.2558226
-722.564843
-718.2062528
-712.1936336
-716.7757412
-723.5706715
-720.2626133
-715.4122848
-718.9215087
-728.4210001
-730.9914507
-721.0896279
-714.339401
-719.2344331
-722.5424913
-715.9487266
-715.8369679
-723.1012849
-726.3199361
-718.362715
-715.3005261
-721.8048837
-727.2810611
-720.8214069
-712.6406685
-719.413247
-724.4423895
-721.5590145
-713.9594214
-716.2392993
-725.3364593
-722.7883605
-714.518215
-714.9652499
-723.0565814
-724.8223692
-718.8097499
-719.0332674
-723.9506512
-726.8787297
-723.2130436
-727.8398547
-738.2334159
-751.3091864
-739.9768519
-729.3597733
-746.9505962
-752.3820701
-729.471532
-701.9565346
-692.3452845
-675.1344413
-660.7846213
-667.9371796
-679.7836041
-699.6543049
-715.0993604
-717.0439621
-721.0449244
-727.9069099
-725.9176047
-723.2130436
-726.0517151
-736.646442
-740.3568316
-732.7572385
-729.1139041
-737.3616978
-743.1507997
-738.3004711
-733.8748257
-740.8932735
-749.7892678
-745.9894712
-745.8777125
-767.7153668
-771.7833843
-669.5465052
-463.753994
-116.9219752
375.5540103
640.8915688
311.4045038
-250.764221
-776.7231198
-1284.75592
-1765.676053
-2041.518932
-1997.03896
-1747.079402
-1404.337752
-1097.738874
-907.5478801
-768.7435471
-673.7039296
-643.059688
-628.2181297
-619.1880249
-603.7429695
-583.1123094
-568.5613237
-557.5866172
-539.5040559
-520.5944801
-509.1727387
-502.757788
-487.5586018
-469.4760405
-460.9153224
-456.1320491
-446.1408193
-427.9464993
-411.2273945
-404.4548159
-394.5529931
-373.3858911
-354.7892397
-346.8990739
-338.5395215
-315.1595968
-293.8360326
-279.2179917
-262.8565148
-232.0111074
-200.383389
-179.7080254
-161.6254642
-128.835455
-91.37393133
-62.33901529
-37.84150336
-5.900860536
33.16998877
65.73648044
89.11640514
117.2125479
149.4884669
175.7964701
188.1122813
199.6457815
214.6885055
222.5116161
211.0451711
191.375636
170.2308858
136.5244551
79.16987886
10.77354083
-52.25837854
-113.9938967
-191.8673744
-272.8253928
-336.483161
-388.6074291
-439.7929239
-491.6936745
-528.5964046
-551.9986811
-576.5185447
-603.8547282
-618.7856935
-622.5631383
-630.2521384
-646.7700776
-653.1403247
-648.8040863
-648.6923276
-656.7166038
-662.2374847
-653.8108771
-650.7486881
-653.4308974
-660.8963801
-657.3648044
-649.8546183
-654.3249672
-664.6514731
-663.4221272
-651.6874613
-648.9605485
-656.001348
-657.9459498
-651.5757026
-653.1850282
-664.6291214
-669.9264848
-663.4668307
-658.1247637
-666.9537028
-673.1004325
-670.4182232
-670.9546651
-677.1237465
-681.5270402
-678.9118861
-677.5484297
-681.9517233
-690.0877583
-689.9089444
-685.9079821
-692.1888223
-701.7106654
-704.0352469
-696.8826886
-695.541584
-704.5940405
-709.1984998
-703.9234881
-704.0352469
-711.5901365
-714.8981947
-711.0760464
-709.0867411
-717.3568865
-718.9662121
-712.1936336
-708.7961684
-713.9147179
-721.9613459
-719.5697092
-712.8194824
-717.9156802
-725.2917558
-723.8165407
-716.440465
-717.3568865
-724.7106105
-722.9448227
-715.4122848
-716.7980929
-726.3646396
-727.7727995
-721.424904
-718.8991569
-727.0798954
-734.5900815
-727.3928198
-719.6367645
-727.459875
-730.9914507
-725.2694041
-722.6095465
-725.5152733
-730.0303257
-726.2975843
-722.7213052
-724.3753343
-731.75141
-729.9185669
-722.2072151
-722.7213052
-730.5891193
-728.6445175
-722.0060494
-721.7154767
-731.1479129
-730.9467472
-723.1906919
-721.6707732
-727.7727995
-729.7621047
-723.2130436
-716.8204447
-727.0575436
-731.4161338
-726.9457849
-721.8719389
-723.3695058
-729.9856222
-726.0293634
-720.5084825
-726.6328605
-730.8796919
-725.6940872
-719.5250058
-723.0118779
-730.3208983
-730.4103053
-721.4472558
-717.8709767
-727.1916541
-735.1712269
-738.9263199
-744.7154218
-760.0710702
-759.7581458
-741.1614944
-739.3510031
-747.844666
-741.2061979
-722.8107122
-700.3695608
-679.8506594
-669.2782842
-673.7039296
-677.9060576
-693.2393543
-711.4783778
-717.9603836
-717.1333691
-721.603718
-730.0079739
-732.9807559
-726.0740669
-725.5152733
-737.875788
-742.4578956
-738.8592647
-737.3393461
-744.3354421
-745.0059944
-737.696974
-734.3665641
-740.0886107
-752.5608841
-751.2644829
-757.1429917
-779.4276809
-735.9982414
-583.5146408
-321.9992306
102.3039344
559.8217916
522.00264
22.86583458
-528.5740529
-1034.237568
-1519.270422
-1920.528939
-2030.968908
-1868.069395
-1573.249885
-1234.308032
-990.741073
-845.9911759
-725.0458866
-662.5057057
-627.1675977
-614.5835655
-605.2405364
-583.1123094
-562.0569661
-555.9325881
-551.9986811
-537.045364
-517.0629045
-502.4448636
-496.7451688
-487.4691948
-468.470212
-454.1427438
-449.2253601
-436.7754384
-415.027191
-400.7220746
-394.4859379
-381.4995744
-359.8854375
-346.0497077
-332.7727715
-318.9593934
-300.452149
-280.067358
-267.036291
-252.775878
-221.550491
-191.6885604
-166.2075718
-142.3806122
-110.3282106
-71.19030609
-42.91534935
-23.22346249
13.16517748
54.51590473
84.62370451
103.9579635
132.3670307
167.6380834
189.4310343
199.2881536
212.6992002
235.0062412
236.2579389
218.5106538
195.1307291
171.9072666
134.9151295
72.53141076
0.245869189
-68.68691071
-138.111429
-216.4989968
-291.086768
-349.7600972
-397.3469612
-446.9454821
-496.2981339
-529.4234192
-554.1444485
-579.2678093
-606.1793096
-621.624365
-623.725429
-626.3852866
-637.2705862
-643.3055572
-643.149095
-643.4173159
-651.3298334
-658.5717986
-650.9722055
-644.7137171
-650.1675427
-657.230694
-652.6038829
-645.5630834
