Detector 2,,,,,,,,Detector 4,,,,,,,,Detector 6,,,,,,,,Detector 8,,,,,,,,Detector 10,,,,,,,,Detector 12,,,,,,,,Detector 14,,,,,,,,Detector 16,,,,,,,
"RED1,2,3,4","IR1,2,3,4 ","RED5,6,7,8","IR5,6,7,8 ","RED9,10,11,12","IR9,10,11,12 ","RED13,14,15,16","IR13,14,15,16 ","RED1,2,3,4","IR1,2,3,4 ","RED5,6,7,8","IR5,6,7,8 ","RED9,10,11,12","IR9,10,11,12 ","RED13,14,15,16","IR13,14,15,16 ","RED1,2,3,4","IR1,2,3,4 ","RED5,6,7,8","IR5,6,7,8 ","RED9,10,11,12","IR9,10,11,12 ","RED13,14,15,16","IR13,14,15,16 ","RED1,2,3,4","IR1,2,3,4 ","RED5,6,7,8","IR5,6,7,8 ","RED9,10,11,12","IR9,10,11,12 ","RED13,14,15,16","IR13,14,15,16 ","RED1,2,3,4","IR1,2,3,4 ","RED5,6,7,8","IR5,6,7,8 ","RED9,10,11,12","IR9,10,11,12 ","RED13,14,15,16","IR13,14,15,16 ","RED1,2,3,4","IR1,2,3,4 ","RED5,6,7,8","IR5,6,7,8 ","RED9,10,11,12","IR9,10,11,12 ","RED13,14,15,16","IR13,14,15,16 ","RED1,2,3,4","IR1,2,3,4 ","RED5,6,7,8","IR5,6,7,8 ","RED9,10,11,12","IR9,10,11,12 ","RED13,14,15,16","IR13,14,15,16 ","RED1,2,3,4","IR1,2,3,4 ","RED5,6,7,8","IR5,6,7,8 ","RED9,10,11,12","IR9,10,11,12 ","RED13,14,15,16","IR13,14,15,16 "
11757,65535,3202,209,169,163,161,157,1529,14535,358,187,187,183,184,184,775,9646,262,219,167,158,161,163,1564,3858,1422,1415,1405,1406,1405,1410,1483,1560,26421,33529,16075,26497,1769,1493,3201,3217,12397,14926,13307,15171,3289,3200,523,5327,17226,36378,13159,30195,31821,27164,407,3427,15775,26997,16407,27390,25243,36279
11518,65535,3132,209,170,164,159,161,1507,14475,357,186,183,187,187,188,761,9590,260,222,161,163,160,160,1554,3847,1417,1411,1405,1404,1405,1405,1475,1555,26369,33387,16022,26341,1768,1486,3169,3183,12316,14781,13247,15063,3286,3185,832,5284,17207,36262,13123,30057,31710,27050,759,3407,15712,26890,16395,27332,25190,36213
11527,65535,3171,209,169,161,158,159,1507,14463,355,187,187,183,186,182,763,9609,257,218,164,159,160,163,1555,3843,1420,1405,1405,1403,1409,1404,1481,1547,26386,33375,16019,26307,1771,1485,3172,3172,12306,14758,13235,15048,3286,3189,833,5277,17180,36211,13121,30029,31673,27023,759,3403,15666,26873,16393,27319,25183,36204
11535,65535,3143,209,167,162,158,157,1506,14459,356,185,186,180,198,184,766,9611,261,218,165,159,162,158,1555,3843,1419,1408,1405,1407,1405,1412,1480,1550,26378,33363,16022,26326,1768,1495,3169,3186,12295,14772,13238,15079,3286,3208,834,5278,17175,36201,13126,30039,31675,27038,760,3404,15646,26868,16398,27342,25198,36263
11553,65535,3182,210,169,161,159,159,1508,14477,357,185,185,183,184,185,765,9629,259,221,162,160,156,159,1553,3849,1418,1414,1401,1405,1404,1408,1474,1556,26383,33387,16026,26329,1767,1491,3177,3190,12309,14789,13252,15079,3293,3198,833,5283,17178,36203,13129,30037,31697,27045,760,3405,15653,26902,16407,27344,25205,36255
11539,65535,3136,209,170,163,159,157,1507,14459,356,184,188,182,187,192,764,9611,258,219,165,159,161,162,1553,3839,1419,1407,1405,1400,1406,1403,1478,1547,26404,33371,16021,26301,1770,1484,3182,3183,12322,14781,13253,15067,3300,3205,836,5279,17193,36206,13127,30018,31686,27040,763,3403,15669,26881,16397,27330,25193,36245
11546,65535,3176,210,171,159,152,158,1507,14461,355,185,187,180,186,186,769,9623,261,218,163,162,159,159,1556,3841,1420,1407,1408,1401,1405,1407,1479,1548,26402,33377,16026,26322,1768,1492,3188,3198,12321,14800,13255,15089,3301,3220,835,5283,17185,36194,13131,30031,31690,27058,759,3407,15639,26872,16390,27332,25195,36266
11562,65535,3158,209,166,164,162,161,1507,14470,356,187,185,184,187,188,770,9642,258,220,164,156,159,160,1552,3843,1415,1410,1402,1406,1402,1407,1478,1559,26433,33431,16038,26359,1770,1492,3187,3207,12335,14824,13259,15107,3315,3227,839,5289,17180,36202,13137,30062,31704,27095,762,3411,15630,26883,16398,27351,25213,36322
11581,65535,3207,211,169,162,163,167,1508,14495,358,191,187,181,186,183,769,9663,259,221,163,165,158,156,1554,3847,1422,1411,1409,1406,1412,1408,1482,1555,26439,33446,16064,26410,1780,1490,3208,3216,12365,14861,13297,15150,3343,3240,838,5299,17189,36227,13152,30109,31736,27155,761,3417,15605,26885,16408,27390,25239,36405
11599,65535,3195,209,167,160,159,159,1510,14514,355,186,187,183,185,183,771,9693,259,217,163,161,158,156,1561,3853,1427,1413,1413,1409,1416,1418,1489,1555,26473,33523,16087,26489,1781,1502,3233,3238,12395,14926,13323,15219,3355,3271,841,5319,17183,36250,13167,30173,31783,27230,763,3427,15592,26911,16417,27435,25281,36504
11631,65535,3248,210,167,161,162,154,1517,14541,360,187,185,180,184,185,772,9723,261,221,166,160,159,157,1563,3869,1425,1419,1412,1415,1412,1418,1486,1565,26478,33577,16106,26549,1780,1503,3240,3260,12419,14982,13345,15260,3363,3275,836,5332,17191,36282,13181,30227,31832,27305,765,3435,15605,26967,16434,27479,25317,36583
11649,65535,3231,211,168,161,159,159,1514,14565,356,187,185,174,184,185,770,9750,259,222,163,159,159,160,1565,3869,1428,1419,1415,1415,1419,1417,1488,1565,26518,33635,16133,26609,1790,1499,3252,3260,12447,15018,13371,15293,3379,3281,843,5352,17204,36322,13199,30284,31889,27366,769,3446,15630,27025,16449,27525,25353,36657
11666,65535,3281,209,168,161,159,161,1515,14584,359,181,187,181,186,185,775,9767,262,224,162,164,163,156,1570,3876,1435,1420,1418,1414,1421,1419,1495,1564,26541,33682,16153,26657,1790,1505,3267,3269,12468,15059,13390,15335,3379,3292,842,5361,17219,36375,13215,30345,31935,27433,766,3454,15650,27076,16455,27561,25382,36731
11693,65535,3261,207,167,160,158,158,1520,14608,356,189,187,179,187,183,778,9796,261,224,166,161,165,159,1570,3881,1431,1421,1415,1418,1417,1423,1495,1571,26561,33758,16170,26729,1787,1506,3264,3284,12475,15097,13394,15373,3376,3289,846,5376,17220,36398,13233,30395,31985,27499,769,3462,15645,27101,16475,27608,25414,36820
11718,65535,3315,212,169,166,161,159,1518,14631,361,188,185,182,183,186,773,9835,261,221,166,158,158,159,1565,3886,1429,1424,1415,1417,1420,1421,1492,1571,26629,33849,16194,26775,1797,1508,3263,3274,12505,15136,13423,15411,3395,3292,843,5399,17211,36429,13249,30461,32031,27568,771,3472,15639,27131,16489,27658,25458,36871
11675,65535,3215,212,167,160,157,160,1519,14591,358,186,182,180,185,187,771,9717,260,219,165,161,163,159,1573,3881,1436,1425,1423,1417,1423,1421,1500,1570,26567,33705,16148,26620,1791,1502,3281,3281,12515,15081,13409,15307,3376,3287,845,5361,17309,36533,13227,30335,32006,27354,772,3459,15806,27149,16455,27524,25331,36457
11557,65535,3161,210,169,164,159,158,1514,14496,359,186,190,181,180,184,766,9585,258,223,163,159,157,163,1573,3869,1438,1426,1423,1422,1420,1426,1493,1565,26439,33489,16085,26422,1781,1503,3258,3275,12419,14920,13331,15189,3368,3285,839,5286,17299,36402,13182,30126,31843,27157,765,3412,15731,26945,16425,27419,25245,36316
11557,65535,3139,210,170,165,158,159,1511,14475,355,186,187,187,183,184,765,9612,257,221,164,161,162,159,1571,3870,1441,1430,1426,1427,1429,1431,1488,1569,26503,33499,16063,26380,1791,1505,3255,3271,12416,14897,13330,15169,3399,3304,839,5277,17244,36337,13165,30099,31797,27131,766,3403,15678,26916,16422,27399,25235,36304
11560,65535,3169,210,170,163,159,158,1511,14483,360,190,189,183,188,183,766,9610,259,218,165,157,159,158,1585,3873,1446,1433,1433,1428,1433,1431,1503,1567,26417,33434,16079,26388,1791,1503,3289,3291,12424,14899,13345,15187,3402,3313,839,5270,17257,36319,13169,30086,31786,27125,767,3405,15643,26889,16423,27412,25235,36344
11574,65535,3153,209,169,162,158,162,1511,14489,358,186,187,181,186,181,770,9629,259,219,164,160,163,159,1583,3875,1445,1435,1429,1429,1429,1434,1497,1568,26485,33496,16073,26403,1784,1507,3283,3300,12426,14926,13336,15205,3391,3308,837,5280,17240,36317,13172,30103,31809,27147,762,3410,15623,26917,16429,27433,25247,36355
11567,65535,3173,211,168,161,158,161,1513,14479,357,187,186,182,189,184,767,9620,258,222,162,159,160,162,1579,3875,1443,1437,1429,1430,1430,1431,1494,1568,26453,33465,16070,26377,1785,1498,3277,3291,12426,14918,13339,15181,3389,3287,839,5278,17253,36311,13169,30079,31807,27133,766,3407,15671,26931,16431,27410,25247,36337
11564,65535,3141,210,168,163,161,159,1511,14473,356,187,191,186,189,185,768,9624,262,219,167,162,159,157,1581,3871,1443,1430,1430,1424,1431,1431,1492,1560,26507,33498,16069,26376,1787,1500,3271,3270,12417,14897,13315,15162,3376,3283,839,5278,17230,36284,13164,30076,31794,27145,769,3406,15659,26932,16426,27417,25249,36372
11582,65535,3192,210,169,161,160,158,1511,14481,358,184,188,181,185,185,771,9640,261,222,164,153,163,159,1580,3871,1444,1431,1427,1425,1425,1430,1496,1562,26482,33507,16083,26419,1788,1512,3259,3275,12406,14916,13316,15188,3369,3287,839,5286,17228,36286,13171,30101,31813,27174,761,3411,15639,26934,16432,27431,25269,36422
11595,65535,3171,209,167,163,160,159,1514,14491,355,185,187,187,178,188,769,9665,259,222,165,164,160,159,1577,3876,1438,1435,1431,1432,1433,1438,1494,1580,26557,33597,16099,26465,1811,1530,3258,3278,12431,14951,13341,15225,3406,3315,843,5295,17209,36283,13175,30139,31824,27227,769,3419,15644,26970,16436,27459,25302,36503
11622,65535,3226,212,169,162,159,160,1516,14525,359,187,190,184,189,187,770,9698,260,221,164,158,159,159,1586,3890,1456,1446,1445,1443,1448,1446,1527,1597,26530,33587,16164,26554,1839,1553,3304,3313,12481,15015,13411,15317,3450,3355,842,5308,17227,36330,13199,30200,31870,27295,776,3430,15612,26964,16442,27493,25338,36605
11641,65535,3213,216,170,161,162,158,1520,14549,355,188,191,188,186,188,774,9719,262,221,164,162,160,162,1601,3902,1464,1449,1446,1446,1447,1450,1548,1621,26569,33666,16185,26634,1842,1564,3339,3351,12518,15087,13443,15385,3453,3370,842,5323,17226,36350,13207,30257,31919,27364,777,3444,15614,27013,16451,27530,25373,36685
11666,65535,3262,210,167,161,158,161,1522,14563,363,189,187,182,183,191,774,9752,261,222,166,158,160,161,1597,3910,1458,1454,1446,1449,1447,1453,1543,1625,26596,33749,16199,26686,1844,1557,3336,3353,12530,15124,13459,15409,3459,3366,840,5342,17215,36372,13219,30306,31967,27431,777,3450,15644,27076,16464,27567,25406,36754
11681,65535,3242,210,168,162,159,161,1519,14588,357,191,190,184,186,187,772,9775,261,223,165,158,156,159,1605,3915,1465,1456,1455,1451,1457,1452,1546,1619,26600,33751,16229,26745,1848,1553,3349,3354,12563,15161,13495,15455,3474,3374,844,5353,17242,36436,13235,30371,32020,27500,781,3457,15659,27116,16470,27598,25429,36823
11700,65535,3291,211,170,162,160,157,1521,14610,363,187,187,180,186,185,777,9796,262,215,175,163,159,163,1607,3919,1465,1450,1447,1443,1446,1446,1550,1617,26603,33825,16239,26796,1834,1552,3350,3354,12556,15187,13476,15469,3431,3343,844,5372,17237,36439,13247,30410,32061,27551,777,3467,15632,27118,16479,27646,25461,36910
11726,65535,3270,210,167,163,160,157,1521,14619,357,187,187,182,185,184,777,9822,258,223,165,153,160,163,1594,3913,1453,1447,1438,1439,1438,1440,1533,1613,26695,33903,16224,26779,1830,1543,3307,3326,12545,15196,13456,15441,3409,3309,847,5389,17234,36494,13252,30429,32106,27532,778,3475,15699,27237,16489,27643,25451,36731
11607,65535,3180,211,169,162,158,159,1518,14521,358,187,185,183,185,184,769,9616,259,222,168,159,159,159,1586,3889,1450,1439,1437,1434,1438,1435,1529,1600,26538,33618,16151,26521,1822,1531,3286,3288,12488,14999,13380,15247,3388,3285,844,5309,17313,36496,13205,30209,31950,27254,773,3429,15791,27047,16439,27467,25306,36413
11569,65535,3131,209,170,161,162,158,1514,14487,358,187,187,182,187,183,769,9594,263,217,163,160,160,157,1588,3881,1449,1435,1433,1430,1432,1432,1530,1592,26485,33501,16113,26437,1813,1534,3268,3276,12414,14911,13333,15194,3367,3280,839,5267,17279,36393,13185,30120,31882,27184,770,3409,15692,26931,16423,27427,25263,36373
11575,65535,3169,209,168,162,158,160,1515,14473,358,187,187,181,184,184,769,9614,259,221,165,159,159,157,1581,3875,1437,1431,1423,1425,1423,1427,1518,1595,26492,33537,16103,26421,1809,1527,3247,3263,12385,14891,13300,15159,3346,3257,837,5273,17239,36329,13175,30089,31850,27163,769,3407,15651,26920,16427,27422,25262,36380
11585,65535,3153,211,170,161,159,162,1514,14482,355,186,186,181,185,186,769,9640,261,220,164,158,156,159,1575,3876,1439,1433,1426,1426,1430,1427,1515,1589,26520,33539,16119,26445,1815,1525,3237,3248,12399,14900,13319,15182,3364,3267,839,5284,17231,36328,13182,30127,31853,27198,774,3408,15613,26914,16435,27451,25278,36434
11588,65535,3178,209,167,161,159,158,1514,14488,358,186,188,180,186,183,772,9627,264,217,165,159,160,162,1581,3875,1443,1431,1432,1425,1430,1432,1522,1587,26487,33516,16113,26435,1810,1529,3248,3257,12407,14915,13321,15194,3355,3270,840,5279,17243,36348,13183,30117,31870,27191,769,3415,15669,26967,16431,27436,25279,36405
11582,65535,3141,209,168,164,162,159,1515,14487,356,186,187,187,187,184,771,9622,258,221,162,162,159,158,1581,3879,1439,1436,1424,1425,1422,1428,1515,1594,26488,33531,16104,26431,1806,1528,3237,3257,12386,14897,13300,15171,3339,3248,841,5273,17236,36320,13177,30098,31861,27185,772,3411,15661,26939,16426,27429,25273,36414
11589,65535,3187,211,167,162,159,158,1515,14481,357,188,188,184,184,184,769,9642,259,219,163,155,157,159,1572,3874,1435,1428,1420,1419,1421,1421,1512,1586,26526,33553,16112,26434,1810,1521,3223,3225,12377,14883,13293,15155,3330,3230,842,5285,17217,36301,13177,30113,31855,27208,770,3412,15649,26960,16430,27438,25288,36460
11609,65535,3171,209,170,165,159,157,1514,14497,359,186,187,182,186,182,775,9660,263,219,163,159,159,166,1573,3870,1437,1423,1423,1420,1426,1427,1517,1582,26527,33563,16121,26477,1810,1528,3219,3223,12377,14907,13300,15195,3335,3251,842,5293,17215,36325,13186,30155,31881,27256,771,3419,15651,27001,16433,27457,25315,36533
11634,65535,3225,211,169,162,158,158,1515,14518,359,186,191,182,187,185,773,9690,261,223,165,159,159,157,1579,3881,1439,1429,1426,1427,1427,1432,1513,1594,26513,33604,16139,26547,1810,1532,3223,3247,12393,14957,13327,15253,3349,3263,839,5307,17216,36337,13199,30197,31914,27317,774,3429,15624,26998,16439,27487,25350,36624
11659,65535,3212,211,168,164,158,159,1515,14545,353,188,186,185,185,185,770,9729,258,222,162,161,159,153,1579,3890,1444,1436,1433,1430,1436,1436,1516,1595,26499,33577,16185,26643,1821,1529,3234,3241,12412,14976,13411,15372,3326,3221,842,5322,17198,36333,13201,30246,31915,27366,777,3437,15665,27147,16427,27462,25448,36737
11719,65535,3281,211,168,162,160,159,1516,14569,360,190,192,181,187,184,778,9794,263,215,162,160,158,163,1589,3903,1456,1442,1443,1437,1448,1442,1524,1593,26177,33333,16267,26793,1827,1540,3205,3205,12387,15006,13524,15517,3316,3227,841,5323,17124,36287,13226,30333,31955,27442,775,3457,15917,27563,16375,27438,25463,36773
11747,65535,3262,209,167,162,158,159,1519,14591,358,187,187,181,189,189,780,9835,260,220,163,163,157,160,1595,3915,1454,1447,1442,1444,1441,1447,1529,1607,26211,33446,16280,26847,1826,1546,3198,3218,12419,15079,13509,15532,3330,3241,842,5346,17159,36367,13255,30417,32021,27513,782,3473,15941,27594,16386,27488,25457,36826
11764,65535,3311,211,168,163,162,158,1519,14615,361,187,187,183,184,185,779,9856,262,221,162,157,158,158,1594,3924,1458,1449,1443,1444,1449,1447,1531,1611,26298,33559,16289,26887,1838,1547,3217,3230,12459,15121,13517,15537,3353,3251,845,5368,17189,36434,13277,30483,32077,27582,777,3478,15885,27527,16398,27531,25473,36905
11790,65535,3296,211,168,161,159,157,1519,14631,356,187,188,184,186,183,782,9872,263,219,166,159,159,161,1601,3924,1465,1448,1447,1443,1451,1449,1541,1609,26378,33662,16305,26940,1841,1549,3243,3243,12494,15170,13532,15578,3357,3264,849,5393,17198,36466,13293,30557,32129,27656,781,3485,15819,27463,16405,27575,25498,36978
11796,65535,3312,211,169,161,159,156,1519,14627,361,189,188,183,187,186,782,9830,263,219,162,159,158,167,1600,3925,1457,1451,1441,1442,1439,1443,1540,1617,26387,33664,16283,26875,1829,1546,3233,3253,12496,15175,13509,15514,3325,3231,848,5394,17248,36573,13297,30514,32163,27526,779,3490,15917,27519,16389,27503,25394,36619
11642,65535,3154,211,169,161,163,160,1514,14490,355,187,185,184,186,185,770,9617,257,221,158,159,158,158,1591,3894,1449,1442,1436,1434,1435,1432,1525,1604,26288,33422,16194,26600,1819,1531,3199,3207,12399,14933,13397,15288,3301,3198,846,5307,17282,36479,13234,30269,31959,27259,779,3422,15894,27221,16331,27322,25265,36363
11630,65535,3187,211,168,160,159,158,1511,14466,358,188,189,186,190,185,774,9623,261,217,164,161,159,157,1585,3883,1448,1435,1434,1431,1436,1431,1523,1591,26260,33346,16166,26523,1819,1530,3182,3183,12339,14852,13356,15232,3291,3199,841,5279,17233,36381,13216,30199,31884,27196,769,3411,15799,27137,16309,27275,25220,36304
11627,65535,3153,209,167,162,163,157,1510,14450,357,186,187,183,186,185,772,9621,260,218,164,158,159,159,1587,3880,1446,1438,1431,1432,1430,1437,1521,1595,26263,33343,16152,26507,1812,1537,3172,3188,12325,14847,13339,15229,3290,3207,839,5273,17223,36353,13207,30175,31859,27175,771,3403,15759,27083,16296,27248,25200,36301
11637,65535,3201,211,169,161,161,159,1510,14468,357,188,187,182,185,184,772,9651,254,221,163,163,160,157,1583,3887,1444,1445,1430,1432,1433,1435,1520,1598,26262,33342,16163,26525,1819,1531,3179,3194,12333,14859,13356,15241,3304,3207,841,5281,17210,36348,13214,30191,31863,27193,768,3406,15689,27055,16298,27261,25210,36326
11628,65535,3157,211,169,165,158,159,1508,14458,355,190,191,183,186,184,773,9634,259,222,165,159,157,159,1584,3881,1447,1435,1432,1425,1434,1433,1527,1593,26263,33330,16163,26506,1819,1530,3193,3192,12343,14855,13356,15231,3295,3204,844,5283,17230,36362,13210,30178,31867,27180,770,3409,15736,27075,16279,27227,25193,36291
11619,65535,3185,210,170,163,161,158,1510,14454,358,186,186,185,186,188,776,9628,263,218,166,159,161,159,1583,3878,1444,1433,1427,1429,1428,1435,1522,1595,26281,33359,16150,26501,1811,1532,3176,3189,12323,14847,13328,15216,3279,3196,839,5278,17218,36343,13205,30163,31851,27175,769,3407,15715,27038,16267,27207,25179,36286
11626,65535,3161,210,168,161,158,156,1506,14457,355,189,186,183,188,185,770,9647,258,223,163,159,163,160,1577,3881,1441,1435,1426,1429,1429,1434,1516,1596,26288,33372,16157,26515,1814,1530,3166,3181,12323,14849,13339,15223,3290,3193,841,5282,17225,36341,13214,30186,31859,27199,772,3405,15685,27027,16258,27201,25184,36322
11637,65535,3210,211,169,165,159,160,1508,14474,357,186,187,182,189,184,773,9670,260,217,166,157,159,161,1581,3881,1447,1431,1431,1426,1434,1428,1522,1591,26303,33398,16174,26554,1821,1530,3179,3179,12335,14867,13347,15247,3295,3203,840,5292,17209,36345,13219,30216,31863,27245,768,3409,15665,27031,16251,27217,25199,36375
11658,65535,3197,211,172,160,159,158,1512,14494,356,190,188,182,186,184,779,9694,259,221,165,161,157,164,1584,3886,1448,1436,1432,1431,1432,1437,1526,1595,26331,33461,16185,26621,1818,1539,3182,3196,12351,14919,13363,15297,3301,3220,842,5305,17218,36382,13231,30271,31903,27306,770,3418,15627,27023,16251,27238,25226,36462
11681,65535,3248,211,172,161,161,158,1510,14521,358,187,187,182,185,185,774,9732,261,221,165,164,160,161,1582,3893,1445,1439,1431,1433,1432,1439,1522,1604,26365,33544,16213,26683,1825,1540,3191,3209,12379,14970,13391,15339,3324,3227,842,5331,17219,36408,13248,30330,31950,27373,772,3426,15609,27027,16254,27268,25258,36553
11697,65535,3233,211,167,165,160,163,1510,14547,359,188,189,183,185,185,775,9760,261,221,167,159,159,159,1587,3899,1450,1439,1436,1433,1439,1437,1531,1601,26409,33601,16241,26743,1833,1540,3213,3214,12412,15012,13419,15382,3334,3237,845,5343,17223,36442,13260,30391,31999,27450,774,3441,15607,27049,16262,27305,25291,36642
11719,65535,3283,211,172,164,159,158,1516,14571,362,186,189,181,185,183,777,9779,263,219,166,158,159,163,1589,3908,1454,1441,1437,1436,1438,1441,1535,1606,26433,33674,16261,26804,1833,1551,3219,3233,12426,15066,13431,15431,3340,3260,845,5360,17234,36474,13276,30443,32052,27511,772,3446,15606,27068,16267,27338,25317,36705
11732,65535,3262,211,168,160,163,157,1518,14595,358,187,186,181,185,185,779,9807,264,221,164,159,159,163,1587,3913,1449,1442,1436,1439,1437,1439,1534,1616,26491,33757,16272,26853,1837,1549,3233,3253,12461,15109,13462,15462,3364,3259,849,5373,17229,36496,13283,30484,32089,27569,778,3454,15603,27080,16279,27371,25346,36777
11753,65535,3313,210,165,160,161,158,1518,14624,359,186,190,186,185,188,778,9838,262,220,164,159,160,159,1588,3915,1453,1440,1441,1433,1441,1440,1541,1613,26523,33823,16301,26916,1845,1550,3244,3247,12475,15133,13484,15503,3369,3274,846,5389,17228,36519,13302,30546,32135,27636,780,3465,15577,27084,16292,27416,25375,36865
11763,65535,3269,215,170,166,163,162,1519,14628,359,188,191,184,188,185,780,9820,263,219,166,164,159,159,1593,3919,1455,1440,1435,1434,1432,1437,1544,1617,26546,33826,16279,26858,1830,1546,3254,3263,12497,15158,13479,15473,3345,3255,848,5394,17270,36615,13301,30514,32172,27530,778,3473,15663,27155,16275,27363,25293,36538
11609,65535,3174,210,169,160,159,158,1516,14506,358,185,189,187,183,189,770,9612,259,224,163,159,160,159,1583,3893,1443,1435,1430,1431,1429,1434,1529,1607,26418,33577,16186,26588,1823,1536,3217,3230,12397,14934,13376,15261,3321,3224,845,5308,17310,36532,13241,30269,31979,27263,771,3408,15666,26893,16227,27190,25167,36274
11590,65535,3137,210,169,166,161,158,1513,14484,355,191,185,184,184,185,770,9618,259,219,162,160,159,158,1579,3885,1443,1431,1428,1422,1428,1429,1526,1595,26409,33513,16159,26498,1821,1532,3208,3209,12352,14850,13339,15201,3315,3218,842,5276,17255,36421,13213,30186,31908,27197,771,3395,15581,26817,16224,27160,25127,36234
11594,65535,3169,209,169,162,159,157,1513,14472,361,185,190,183,189,185,773,9620,261,220,164,159,160,159,1581,3881,1443,1429,1425,1427,1430,1436,1524,1594,26409,33501,16143,26478,1812,1536,3200,3208,12327,14838,13317,15190,3308,3227,839,5275,17240,36390,13208,30157,31876,27174,770,3392,15546,26788,16222,27146,25117,36225
11599,65535,3154,211,170,161,159,162,1513,14489,357,190,187,186,185,185,772,9648,265,222,162,164,156,159,1578,3884,1439,1432,1424,1427,1426,1432,1518,1599,26401,33498,16144,26497,1818,1534,3195,3215,12330,14852,13330,15205,3320,3227,842,5278,17231,36381,13214,30171,31875,27188,769,3398,15500,26787,16230,27169,25133,36267
11591,65535,3175,207,169,162,163,153,1511,14481,358,186,187,181,185,186,771,9638,260,223,162,164,159,159,1580,3886,1441,1429,1429,1423,1429,1429,1524,1593,26403,33487,16144,26465,1818,1526,3209,3212,12344,14850,13333,15188,3322,3225,845,5278,17239,36386,13205,30152,31878,27176,769,3397,15548,26816,16227,27152,25122,36242
11581,65535,3141,209,169,163,159,161,1513,14474,355,186,190,187,184,184,773,9633,261,217,166,161,159,160,1579,3881,1441,1430,1426,1424,1426,1430,1523,1591,26431,33519,16127,26461,1811,1531,3205,3213,12331,14846,13309,15184,3312,3235,841,5274,17225,36362,13202,30135,31858,27171,767,3395,15530,26791,16222,27149,25120,36248
11595,65535,3184,218,167,160,161,157,1512,14488,359,187,186,183,183,186,771,9653,259,220,166,159,159,160,1577,3884,1438,1435,1424,1429,1426,1431,1516,1598,26421,33525,16137,26482,1815,1531,3206,3225,12338,14864,13323,15197,3331,3237,839,5280,17221,36360,13204,30157,31857,27197,771,3398,15509,26795,16234,27162,25134,36293
11603,65535,3165,211,170,162,163,158,1513,14502,355,187,188,183,186,182,771,9674,258,221,164,159,159,161,1581,3889,1446,1432,1430,1427,1433,1430,1522,1594,26447,33556,16158,26517,1822,1534,3222,3226,12361,14885,13343,15226,3347,3250,843,5285,17216,36369,13211,30195,31874,27242,772,3402,15500,26810,16243,27196,25159,36370
11624,65535,3221,212,170,161,165,160,1515,14527,359,186,188,183,186,184,775,9702,261,217,162,159,157,156,1587,3895,1447,1435,1434,1433,1434,1439,1527,1597,26468,33617,16172,26591,1821,1542,3234,3244,12379,14944,13363,15287,3353,3274,840,5304,17212,36393,13223,30243,31905,27306,773,3413,15475,26829,16255,27239,25202,36469
11646,65535,3210,210,168,163,163,163,1515,14559,358,191,187,187,186,189,776,9737,266,225,164,163,159,162,1585,3908,1448,1442,1433,1438,1436,1439,1529,1611,26495,33682,16197,26660,1827,1543,3246,3264,12407,14999,13400,15340,3380,3282,844,5323,17216,36430,13239,30303,31949,27379,773,3423,15480,26871,16270,27281,25244,36562
11668,65535,3259,214,167,163,159,158,1516,14585,359,188,187,183,184,185,778,9767,261,218,164,162,160,161,1587,3911,1453,1441,1440,1436,1443,1439,1533,1606,26517,33723,16227,26712,1839,1545,3268,3270,12442,15036,13427,15375,3385,3286,845,5340,17229,36471,13250,30355,31997,27447,771,3435,15504,26933,16286,27326,25278,36642
11689,65535,3242,212,172,161,161,158,1518,14603,357,189,187,180,189,188,778,9788,263,220,165,161,160,161,1593,3915,1455,1442,1439,1439,1441,1443,1539,1609,26555,33795,16233,26777,1833,1552,3268,3278,12453,15082,13438,15418,3386,3302,846,5354,17237,36517,13261,30407,32040,27507,775,3443,15528,26995,16298,27363,25305,36707
11707,65535,3289,212,163,161,160,158,1520,14631,360,187,190,184,187,185,780,9819,261,220,164,161,160,161,1592,3925,1453,1448,1441,1442,1443,1446,1536,1616,26551,33841,16254,26829,1838,1551,3270,3291,12473,15121,13461,15450,3399,3300,847,5367,17247,36547,13275,30455,32086,27561,775,3452,15545,27033,16314,27407,25339,36771
11726,65535,3270,211,167,161,157,158,1519,14652,357,188,187,182,184,182,778,9847,259,223,164,162,157,161,1595,3930,1458,1447,1442,1439,1448,1444,1542,1614,26602,33905,16281,26877,1846,1551,3285,3290,12499,15150,13481,15487,3407,3314,848,5381,17250,36578,13285,30515,32121,27626,776,3461,15537,27063,16330,27454,25371,36866
11752,65535,3320,211,170,161,159,157,1524,14681,361,187,191,188,188,183,783,9871,265,218,165,159,160,160,1599,3935,1461,1448,1448,1446,1446,1448,1546,1619,26604,33929,16297,26913,1841,1558,3293,3308,12518,15202,13508,15531,3407,3318,850,5400,17257,36637,13303,30549,32196,27621,775,3476,15553,27119,16341,27467,25363,36731
11631,65535,3170,212,169,162,159,161,1522,14579,357,194,187,187,195,185,773,9676,259,225,164,162,159,159,1598,3921,1456,1448,1439,1440,1439,1442,1538,1618,26511,33732,16209,26651,1832,1548,3281,3296,12479,15050,13439,15343,3396,3296,848,5327,17331,36629,13248,30311,32023,27326,777,3428,15647,26939,16297,27290,25207,36358
11579,65535,3175,210,167,161,161,157,1517,14531,356,186,191,178,185,188,772,9647,263,222,166,164,156,159,1592,3909,1454,1441,1439,1434,1441,1440,1537,1608,26496,33631,16156,26505,1831,1541,3277,3275,12412,14926,13386,15250,3377,3282,844,5279,17260,36477,13203,30186,31905,27222,769,3403,15564,26847,16282,27246,25161,36303
11592,65535,3155,209,171,160,159,159,1516,14530,356,185,189,180,184,185,776,9666,260,218,165,160,158,160,1594,3903,1454,1443,1440,1439,1442,1443,1536,1606,26462,33583,16149,26505,1826,1548,3261,3272,12383,14911,13366,15251,3370,3293,842,5277,17250,36462,13205,30173,31885,27208,771,3402,15523,26823,16278,27235,25152,36293
11595,65535,3195,209,171,164,160,158,1515,14544,363,191,184,182,184,187,772,9687,261,222,163,162,160,159,1592,3914,1450,1447,1436,1439,1439,1441,1531,1611,26444,33594,16155,26521,1829,1541,3259,3278,12385,14920,13374,15257,3379,3280,840,5278,17238,36446,13207,30184,31882,27223,770,3405,15480,26801,16291,27257,25157,36337
11597,65535,3161,210,168,162,159,157,1515,14545,357,186,187,183,184,184,773,9681,259,219,164,159,159,159,1591,3907,1451,1439,1436,1433,1439,1436,1535,1600,26467,33583,16155,26499,1830,1537,3262,3262,12390,14913,13373,15242,3365,3268,842,5282,17243,36455,13206,30176,31891,27217,771,3407,15517,26846,16293,27257,25161,36315
11588,65535,3187,208,168,159,157,158,1514,14541,361,185,188,184,187,187,775,9676,263,223,165,160,160,159,1591,3903,1449,1437,1438,1432,1432,1437,1534,1600,26451,33575,16141,26491,1820,1541,3246,3257,12366,14902,13346,15232,3351,3266,840,5275,17241,36438,13198,30156,31878,27206,769,3405,15512,26834,16295,27249,25153,36311
11595,65535,3163,210,168,161,158,158,1515,14546,356,189,187,176,185,189,774,9696,257,222,164,158,163,161,1583,3905,1445,1437,1430,1431,1428,1431,1524,1606,26461,33600,16141,26501,1819,1535,3234,3251,12362,14897,13343,15217,3349,3250,844,5278,17229,36427,13196,30169,31871,27228,771,3407,15500,26839,16297,27257,25167,36341
11617,65535,3207,210,168,163,158,159,1515,14563,356,187,187,183,184,194,777,9713,262,221,163,157,160,159,1582,3902,1443,1430,1432,1425,1431,1430,1526,1599,26461,33605,16156,26530,1826,1533,3236,3239,12365,14897,13347,15234,3350,3256,843,5288,17226,36431,13203,30196,31885,27268,770,3413,15492,26862,16309,27287,25187,36403
11624,65535,3192,210,167,162,159,160,1517,14582,360,186,197,179,189,189,779,9735,261,218,168,158,160,159,1584,3908,1443,1434,1428,1433,1430,1433,1528,1596,26487,33663,16162,26583,1820,1540,3237,3249,12375,14952,13351,15276,3351,3271,845,5300,17222,36453,13211,30241,31913,27318,771,3421,15472,26869,16313,27323,25215,36482
11650,65535,3245,213,169,160,162,158,1518,14613,359,186,186,185,178,186,776,9773,261,221,165,160,161,162,1581,3913,1442,1436,1429,1433,1430,1434,1524,1604,26502,33720,16184,26649,1827,1537,3239,3257,12396,14988,13377,15316,3364,3265,844,5316,17217,36472,13230,30298,31951,27385,771,3428,15467,26901,16329,27362,25251,36580
11673,65535,3231,212,167,163,159,158,1518,14635,358,190,186,186,185,183,777,9801,262,224,163,162,157,161,1583,3919,1451,1435,1436,1431,1436,1434,1535,1599,26527,33761,16215,26708,1835,1541,3252,3256,12425,15024,13406,15355,3372,3279,847,5335,17227,36513,13240,30359,31998,27452,774,3439,15485,26961,16339,27404,25286,36655
11694,65535,3278,209,169,161,158,156,1521,14662,361,188,187,183,187,185,780,9824,268,220,162,159,159,160,1591,3925,1449,1440,1433,1434,1433,1437,1537,1606,26537,33823,16227,26767,1828,1546,3257,3271,12433,15072,13419,15399,3374,3290,844,5347,17232,36556,13253,30406,32040,27507,773,3453,15509,27015,16353,27439,25316,36717
11713,65535,3257,210,171,160,158,161,1523,14676,359,190,187,183,185,186,781,9849,260,222,164,159,158,159,1585,3930,1445,1438,1431,1434,1435,1437,1532,1611,26569,33878,16240,26806,1835,1544,3255,3271,12445,15096,13431,15417,3379,3281,851,5360,17242,36583,13263,30449,32081,27562,776,3458,15525,27059,16368,27477,25348,36790
11740,65535,3309,211,167,162,160,158,1521,14708,361,187,187,179,186,189,781,9878,261,221,167,161,157,159,1587,3933,1450,1439,1439,1434,1440,1440,1535,1609,26607,33933,16267,26862,1841,1547,3268,3270,12471,15132,13454,15463,3389,3298,849,5376,17239,36612,13274,30512,32119,27631,776,3472,15512,27079,16381,27524,25378,36874
11749,65535,3261,211,167,162,163,159,1525,14717,359,187,187,182,187,182,783,9855,262,220,164,159,160,162,1593,3940,1454,1441,1435,1434,1432,1438,1539,1612,26585,33906,16245,26803,1826,1542,3273,3286,12488,15146,13454,15431,3367,3274,850,5374,17288,36704,13273,30460,32142,27502,780,3474,15603,27137,16370,27466,25305,36549
11600,65535,3176,211,168,162,160,158,1520,14585,364,187,189,185,185,185,771,9666,259,223,162,161,159,159,1583,3914,1443,1437,1428,1432,1430,1432,1524,1601,26481,33671,16156,26540,1818,1530,3239,3249,12390,14930,13357,15227,3340,3241,846,5290,17303,36591,13207,30217,31945,27253,776,3417,15596,26900,16332,27308,25183,36319
11588,65535,3145,211,170,162,159,156,1516,14567,359,186,187,186,185,185,773,9675,261,219,164,163,163,158,1581,3907,1445,1434,1431,1426,1432,1429,1525,1591,26465,33598,16131,26466,1818,1529,3226,3224,12347,14859,13323,15183,3337,3248,843,5267,17253,36493,13188,30143,31872,27195,770,3407,15523,26837,16317,27282,25147,36271
11592,65535,3175,212,168,162,162,162,1518,14565,360,186,186,182,185,185,775,9672,262,219,167,171,159,159,1584,3906,1442,1434,1428,1430,1428,1433,1523,1596,26445,33573,16114,26443,1813,1535,3223,3239,12333,14856,13308,15178,3335,3254,840,5257,17239,36458,13179,30119,31846,27170,770,3405,15503,26821,16316,27270,25138,36275
11599,65535,3155,209,167,161,160,157,1515,14576,360,186,188,184,184,184,774,9698,262,223,164,159,162,159,1582,3916,1442,1439,1428,1433,1430,1432,1522,1598,26447,33584,16120,26460,1817,1530,3225,3243,12343,14869,13320,15191,3349,3247,842,5263,17225,36446,13182,30129,31845,27182,770,3406,15457,26813,16325,27294,25151,36304
11592,65535,3179,212,169,162,161,158,1516,14568,359,187,187,185,186,183,774,9686,262,219,167,155,163,159,1583,3908,1447,1434,1430,1428,1431,1430,1525,1592,26441,33555,16118,26431,1818,1529,3235,3234,12349,14859,13324,15182,3341,3247,837,5264,17227,36444,13173,30114,31835,27162,770,3406,15507,26847,16322,27277,25145,36277
11585,65535,3144,208,167,161,158,160,1517,14563,361,185,199,177,185,189,778,9682,261,220,169,157,158,154,1582,3904,1441,1432,1426,1427,1427,1429,1522,1591,26447,33565,16107,26431,1810,1530,3222,3233,12326,14854,13296,15168,3323,3238,842,5258,17217,36414,13165,30095,31814,27159,769,3403,15498,26827,16321,27265,25136,36274
11594,65535,3184,209,168,162,159,157,1517,14573,359,189,185,183,184,183,774,9705,259,222,166,160,159,160,1576,3906,1437,1433,1422,1427,1426,1430,1513,1595,26448,33576,16113,26444,1815,1526,3212,3223,12324,14851,13303,15169,3331,3233,841,5264,17207,36411,13169,30113,31806,27173,775,3409,15484,26845,16325,27279,25143,36315
11610,65535,3167,210,167,161,159,158,1515,14587,357,187,182,182,190,184,775,9724,261,217,165,157,157,159,1579,3907,1445,1429,1429,1425,1429,1429,1524,1589,26453,33587,16129,26480,1817,1531,3221,3225,12345,14873,13322,15202,3340,3251,843,5272,17203,36411,13172,30146,31822,27218,771,3411,15473,26862,16327,27301,25163,36381
11630,65535,3219,210,168,163,161,158,1518,14609,360,187,185,183,183,183,779,9749,262,221,171,160,163,165,1583,3915,1444,1433,1427,1428,1428,1433,1525,1597,26473,33655,16139,26543,1818,1538,3223,3242,12351,14922,13331,15245,3341,3258,842,5287,17191,36423,13181,30191,31856,27271,770,3423,15458,26882,16335,27331,25197,36464
11654,65535,3202,210,171,162,160,159,1519,14636,357,187,189,183,185,182,776,9787,258,223,159,160,158,159,1581,3923,1443,1437,1428,1433,1432,1437,1519,1603,26499,33706,16161,26605,1825,1538,3231,3248,12382,14967,13366,15289,3363,3265,844,5302,17194,36440,13195,30241,31883,27329,777,3431,15464,26920,16341,27366,25229,36545
11676,65535,3252,211,168,162,158,159,1517,14661,361,186,187,181,184,186,778,9806,263,223,167,162,157,157,1587,3927,1449,1437,1434,1429,1437,1435,1531,1597,26511,33741,16189,26660,1832,1540,3255,3256,12406,15004,13388,15331,3367,3275,846,5315,17193,36476,13203,30291,31922,27398,772,3441,15479,26975,16349,27402,25255,36623
11696,65535,3234,208,171,161,159,157,1524,14677,360,185,189,181,184,186,784,9827,263,219,163,164,163,163,1591,3933,1449,1439,1434,1436,1434,1438,1531,1603,26540,33799,16199,26718,1826,1545,3253,3269,12418,15050,13402,15369,3372,3292,848,5329,17206,36521,13214,30340,31962,27453,775,3450,15494,27011,16358,27431,25277,36678
11719,65535,3279,211,168,160,160,162,1524,14707,361,190,185,181,185,185,782,9856,262,224,167,163,155,157,1587,3941,1447,1442,1432,1434,1437,1436,1529,1610,26543,33843,16219,26761,1832,1543,3261,3280,12441,15081,13424,15395,3386,3287,849,5338,17213,36547,13224,30376,31994,27501,775,3459,15502,27043,16372,27466,25307,36742
11739,65535,3261,213,171,162,159,159,1523,14728,359,192,187,183,185,185,781,9883,261,224,164,157,164,159,1587,3942,1449,1436,1436,1432,1437,1436,1534,1606,26575,33887,16240,26816,1835,1541,3271,3273,12461,15110,13444,15428,3387,3290,850,5353,17208,36568,13238,30435,32032,27569,780,3469,15489,27059,16383,27515,25342,36844
11765,65535,3311,210,171,164,162,161,1524,14755,363,186,188,182,187,184,786,9908,264,222,165,163,164,163,1591,3950,1451,1439,1435,1435,1433,1437,1538,1608,26602,33946,16248,26842,1830,1545,3271,3285,12473,15156,13456,15465,3383,3295,850,5369,17213,36612,13250,30469,32098,27562,778,3478,15506,27116,16391,27520,25335,36711
11646,65535,3160,209,171,163,159,156,1521,14650,358,187,186,184,183,186,775,9709,259,223,164,158,159,159,1585,3931,1443,1437,1427,1430,1428,1429,1527,1606,26506,33726,16160,26573,1817,1530,3258,3270,12424,14987,13373,15253,3346,3244,848,5299,17281,36598,13194,30231,31927,27260,780,3435,15598,26917,16340,27332,25175,36326
11594,65535,3162,212,167,165,163,161,1518,14606,361,186,186,182,186,184,773,9674,259,219,165,166,161,160,1580,3913,1442,1427,1427,1421,1429,1424,1520,1590,26450,33594,16113,26429,1814,1523,3228,3226,12338,14843,13309,15153,3331,3237,843,5250,17221,36453,13151,30094,31801,27151,771,3409,15507,26826,16322,27271,25119,36251
11599,65535,3131,212,168,161,160,158,1516,14588,358,186,187,181,190,183,777,9682,261,218,165,162,152,158,1578,3911,1443,1428,1427,1424,1426,1433,1519,1587,26443,33559,16094,26405,1808,1531,3216,3226,12316,14827,13289,15143,3328,3247,842,5242,17196,36405,13142,30064,31771,27115,771,3407,15471,26791,16321,27255,25100,36218
11596,65535,3165,209,168,165,159,161,1519,14593,358,189,186,182,189,186,779,9694,261,221,170,156,159,164,1578,3919,1439,1433,1423,1429,1426,1429,1511,1594,26432,33563,16094,26400,1816,1533,3215,3234,12316,14841,13303,15160,3357,3258,842,5240,17179,36369,13140,30049,31749,27119,769,3403,15437,26763,16324,27266,25103,36258
11605,65535,3133,214,169,165,158,157,1516,14606,356,188,184,184,188,184,774,9697,258,220,165,160,159,158,1579,3917,1441,1428,1425,1421,1427,1426,1524,1591,26457,33557,16093,26383,1815,1524,3241,3242,12340,14838,13309,15143,3339,3246,843,5241,17168,36343,13128,30040,31748,27108,773,3407,15456,26799,16327,27255,25099,36230
11591,65535,3161,208,171,160,162,158,1516,14595,360,185,188,181,185,187,777,9682,262,223,165,165,161,159,1581,3910,1443,1426,1424,1425,1423,1430,1522,1588,26434,33534,16077,26366,1805,1528,3224,3235,12314,14829,13288,15134,3330,3251,840,5237,17169,36333,13123,30017,31729,27095,767,3408,15451,26777,16316,27239,25085,36217
11599,65535,3131,208,169,164,157,157,1517,14594,358,185,186,183,186,185,778,9699,259,223,161,160,167,159,1577,3916,1437,1431,1424,1425,1425,1429,1513,1595,26439,33548,16076,26380,1808,1527,3221,3238,12313,14833,13289,15130,3343,3248,842,5238,17155,36315,13119,30025,31714,27107,776,3406,15435,26767,16313,27240,25086,36245
11610,65535,3176,211,167,161,158,160,1511,14603,360,190,185,185,185,185,775,9718,264,221,167,160,155,163,1578,3916,1441,1430,1427,1424,1430,1426,1517,1586,26442,33553,16098,26410,1815,1525,3233,3236,12329,14845,13302,15151,3353,3257,841,5248,17151,36319,13124,30053,31717,27141,769,3409,15417,26783,16320,27257,25097,36290
11628,65535,3161,211,170,165,161,158,1516,14623,359,187,188,183,186,183,779,9737,262,217,163,159,159,157,1581,3921,1443,1433,1429,1428,1433,1433,1521,1588,26460,33603,16111,26467,1814,1536,3240,3251,12348,14897,13316,15201,3359,3281,843,5258,17141,36330,13133,30097,31742,27196,769,3418,15400,26790,16327,27290,25127,36376
11653,65535,3214,210,168,162,160,161,1518,14653,359,187,187,183,189,184,779,9773,263,222,167,162,154,161,1583,3931,1445,1439,1429,1430,1435,1435,1522,1599,26490,33671,16133,26537,1818,1535,3249,3269,12371,14948,13346,15247,3380,3286,842,5277,17141,36341,13146,30142,31775,27259,771,3428,15394,26837,16344,27334,25163,36455
11673,65535,3197,215,166,161,159,161,1518,14679,359,187,187,182,189,186,778,9799,261,223,168,159,160,160,1585,3936,1447,1435,1434,1435,1435,1435,1528,1597,26517,33703,16160,26591,1828,1533,3269,3274,12407,14985,13374,15280,3390,3294,846,5289,17147,36375,13155,30198,31821,27325,773,3439,15419,26888,16359,27372,25194,36538
11696,65535,3248,210,168,162,159,158,1522,14703,365,185,187,186,187,185,784,9819,263,221,167,160,157,153,1589,3940,1453,1439,1436,1437,1438,1441,1532,1599,26543,33769,16175,26653,1824,1543,3276,3286,12422,15033,13385,15330,3390,3313,846,5303,17154,36404,13170,30247,31860,27382,773,3449,15430,26936,16365,27404,25222,36601
11712,65535,3226,211,168,161,159,159,1522,14722,360,189,191,183,184,183,782,9839,261,222,165,159,163,159,1589,3950,1449,1443,1439,1439,1438,1443,1533,1609,26546,33808,16190,26703,1828,1544,3277,3297,12439,15069,13409,15362,3402,3308,847,5316,17168,36446,13179,30289,31902,27434,776,3455,15449,26977,16379,27437,25251,36660
11731,65535,3275,210,168,161,160,158,1521,14742,361,184,187,184,186,185,781,9870,263,224,162,159,158,159,1590,3954,1454,1441,1440,1437,1442,1439,1535,1605,26585,33862,16213,26750,1836,1541,3291,3293,12463,15095,13431,15386,3409,3314,848,5330,17164,36470,13185,30345,31938,27498,776,3462,15449,27011,16392,27479,25279,36749
11758,65535,3263,212,168,161,159,159,1525,14772,365,189,187,184,187,185,787,9895,268,222,164,160,163,157,1596,3960,1457,1444,1447,1441,1444,1448,1541,1606,26617,33930,16237,26820,1835,1553,3297,3306,12481,15147,13448,15450,3415,3335,852,5346,17164,36500,13199,30409,31986,27562,777,3474,15439,27039,16409,27526,25322,36821
11750,65535,3261,209,167,161,159,161,1525,14759,367,185,185,187,187,185,783,9844,263,225,164,160,159,161,1597,3968,1455,1445,1436,1441,1439,1442,1538,1615,26576,33863,16205,26722,1827,1541,3301,3319,12495,15135,13444,15374,3399,3296,851,5335,17223,36586,13195,30325,31978,27387,778,3472,15551,27054,16390,27432,25217,36445
11606,65535,3120,211,170,162,160,159,1519,14644,357,188,187,186,189,185,772,9678,259,221,164,163,163,160,1591,3938,1451,1440,1437,1433,1437,1437,1527,1599,26484,33631,16119,26466,1821,1529,3274,3274,12401,14919,13348,15186,3372,3273,847,5254,17216,36448,13129,30095,31781,27165,777,3416,15515,26835,16346,27302,25107,36256
11607,65535,3161,212,168,165,161,159,1520,14626,360,186,188,182,185,188,782,9693,262,218,164,156,159,160,1590,3930,1451,1438,1439,1434,1436,1439,1525,1592,26472,33587,16100,26422,1815,1535,3258,3264,12354,14874,13314,15168,3363,3282,844,5235,17168,36355,13116,30042,31726,27121,767,3412,15441,26788,16345,27281,25084,36222
11607,65535,3126,210,168,161,160,154,1517,14628,365,185,186,183,189,184,778,9697,260,221,163,158,161,159,1586,3934,1448,1444,1437,1436,1437,1439,1521,1600,26443,33565,16093,26410,1815,1535,3253,3275,12348,14866,13312,15165,3378,3283,842,5229,17155,36319,13105,30027,31703,27103,769,3406,15431,26784,16351,27278,25079,36242
11618,65535,3171,211,170,162,159,161,1518,14646,360,186,187,187,184,184,776,9720,260,222,162,159,161,160,1588,3935,1454,1440,1437,1434,1438,1436,1525,1594,26445,33552,16107,26425,1823,1529,3269,3271,12360,14875,13330,15176,3378,3280,841,5236,17145,36310,13109,30037,31712,27117,770,3415,15398,26791,16357,27293,25091,36250
11605,65535,3124,210,169,161,159,158,1518,14627,361,186,189,180,190,183,779,9700,262,219,164,160,160,159,1592,3931,1452,1438,1436,1434,1435,1436,1525,1594,26445,33542,16091,26400,1812,1535,3262,3265,12351,14869,13316,15163,3362,3279,845,5230,17145,36293,13103,30008,31701,27095,770,3415,15443,26799,16347,27271,25077,36220
11602,65535,3159,211,173,162,162,159,1519,14627,362,187,188,186,185,188,781,9708,261,221,162,159,160,160,1588,3935,1447,1441,1434,1432,1434,1440,1516,1595,26438,33544,16084,26397,1813,1532,3248,3265,12341,14865,13307,15150,3364,3274,843,5230,17131,36272,13096,30002,31679,27094,768,3408,15423,26784,16346,27254,25069,36230
11612,65535,3137,214,171,162,162,158,1513,14639,358,185,187,181,187,183,777,9726,259,220,163,158,160,163,1586,3934,1448,1440,1435,1437,1442,1434,1519,1594,26448,33540,16099,26415,1819,1530,3254,3257,12353,14871,13318,15160,3371,3274,843,5234,17129,36268,13099,30021,31682,27124,772,3412,15411,26789,16345,27273,25079,36266
11623,65535,3182,209,171,161,159,160,1517,14651,361,189,188,181,190,185,781,9742,266,218,166,161,159,158,1591,3935,1451,1439,1436,1434,1436,1439,1526,1593,26455,33582,16106,26463,1816,1536,3256,3263,12361,14900,13319,15191,3368,3286,841,5245,17115,36263,13102,30051,31700,27163,769,3420,15399,26802,16354,27297,25101,36334
11647,65535,3169,211,167,160,164,162,1520,14679,359,190,187,183,188,186,781,9775,259,224,163,160,159,161,1589,3945,1446,1443,1434,1439,1434,1440,1520,1600,26475,33639,16125,26519,1818,1535,3254,3275,12371,14941,13339,15227,3377,3288,845,5259,17114,36269,13117,30102,31732,27225,772,3428,15382,26814,16367,27332,25144,36423
11661,65535,3220,212,168,163,159,157,1517,14700,359,188,189,182,186,188,779,9805,263,222,164,163,160,159,1590,3947,1450,1442,1438,1434,1442,1441,1525,1595,26508,33676,16153,26573,1827,1532,3269,3276,12403,14975,13363,15263,3392,3295,844,5277,17110,36297,13131,30154,31773,27289,773,3438,15390,26863,16382,27375,25170,36508
11687,65535,3205,210,169,168,159,160,1520,14727,362,187,191,183,185,188,785,9822,263,219,167,158,160,160,1593,3950,1453,1440,1438,1436,1439,1440,1530,1597,26523,33733,16168,26641,1822,1538,3275,3285,12415,15020,13373,15306,3383,3303,846,5289,17120,36329,13138,30207,31818,27355,773,3448,15408,26919,16388,27411,25202,36577
11706,65535,3251,211,170,164,159,163,1522,14748,366,187,187,182,189,185,783,9849,262,221,163,159,159,162,1591,3959,1452,1444,1435,1437,1437,1441,1526,1605,26532,33783,16180,26689,1825,1541,3269,3294,12427,15057,13394,15334,3395,3299,846,5302,17126,36365,13151,30256,31861,27407,775,3455,15428,26968,16401,27439,25234,36636
11724,65535,3233,211,175,164,160,160,1521,14769,362,191,189,183,189,184,783,9874,263,223,164,160,160,160,1591,3965,1453,1442,1439,1434,1441,1439,1529,1602,26561,33826,16203,26729,1830,1538,3282,3288,12449,15078,13417,15360,3399,3300,849,5311,17134,36397,13162,30301,31899,27464,778,3463,15438,27003,16411,27479,25264,36715
11751,65535,3285,211,170,161,158,156,1526,14793,363,185,188,182,185,184,788,9904,264,218,167,162,160,159,1594,3964,1455,1442,1440,1438,1443,1443,1535,1603,26557,33852,16227,26809,1831,1545,3286,3289,12450,15108,13435,15432,3377,3295,849,5331,17131,36418,13175,30359,31939,27530,775,3476,15445,27066,16419,27510,25326,36814
11766,65535,3247,213,170,162,157,159,1526,14801,361,187,187,181,185,183,785,9906,261,224,164,159,161,163,1594,3972,1452,1447,1436,1439,1437,1440,1530,1611,26517,33819,16217,26770,1824,1538,3262,3280,12450,15116,13455,15407,3361,3261,852,5335,17173,36501,13181,30335,31983,27430,779,3483,15570,27192,16403,27444,25246,36503
11620,65535,3157,212,170,162,161,158,1520,14681,361,188,186,181,183,184,776,9700,260,219,162,160,160,164,1588,3944,1448,1436,1433,1427,1434,1430,1525,1595,26429,33580,16132,26495,1817,1525,3239,3236,12373,14897,13347,15189,3331,3231,846,5254,17204,36415,13119,30091,31779,27171,773,3425,15570,26924,16343,27274,25109,36239
11603,65535,3123,208,171,160,162,156,1517,14649,362,186,188,180,186,185,782,9704,264,218,164,161,160,159,1587,3931,1446,1432,1430,1428,1430,1433,1523,1585,26415,33525,16087,26414,1809,1530,3214,3219,12310,14824,13291,15132,3318,3237,845,5227,17142,36284,13089,30008,31700,27099,770,3410,15482,26829,16335,27239,25066,36191
11602,65535,3151,208,168,162,159,158,1515,14641,359,186,186,183,185,183,779,9702,261,223,167,160,161,162,1582,3933,1444,1434,1428,1431,1430,1434,1515,1593,26398,33494,16080,26385,1812,1528,3203,3225,12298,14805,13285,15119,3326,3234,842,5219,17132,36251,13087,29979,31676,27077,767,3408,15450,26791,16339,27231,25055,36178
11606,65535,3131,210,169,162,155,161,1514,14649,358,188,185,183,184,181,776,9723,262,221,162,157,162,158,1582,3938,1447,1433,1431,1428,1433,1432,1517,1587,26398,33489,16091,26394,1814,1528,3215,3223,12308,14814,13298,15130,3332,3233,843,5222,17111,36223,13087,29992,31663,27085,769,3408,15400,26779,16342,27244,25063,36209
11606,65535,3155,210,169,161,160,159,1516,14644,361,189,188,184,185,183,780,9711,266,219,165,159,163,157,1585,3931,1445,1433,1430,1428,1428,1431,1522,1588,26391,33476,16081,26378,1810,1527,3217,3224,12306,14819,13289,15125,3317,3235,841,5223,17116,36222,13081,29980,31667,27075,768,3409,15441,26803,16334,27222,25053,36177
11598,65535,3120,208,167,162,164,159,1516,14636,359,187,186,181,186,189,778,9713,262,221,161,161,161,162,1583,3931,1441,1433,1426,1428,1427,1430,1511,1589,26399,33479,16072,26378,1804,1526,3203,3221,12293,14810,13275,15110,3317,3225,844,5220,17104,36185,13077,29960,31647,27069,768,3407,15427,26771,16332,27203,25050,36182
11604,65535,3159,211,167,162,161,158,1512,14644,362,191,188,183,185,188,775,9731,261,222,164,159,164,160,1579,3929,1439,1431,1427,1425,1428,1428,1514,1585,26402,33477,16084,26391,1811,1520,3205,3211,12297,14803,13287,15116,3319,3222,841,5223,17091,36179,13078,29973,31647,27086,770,3406,15416,26786,16326,27210,25061,36222
11623,65535,3144,208,169,161,158,161,1515,14656,360,183,186,182,188,186,780,9749,261,218,166,159,164,160,1582,3932,1444,1429,1430,1428,1430,1431,1518,1587,26390,33483,16095,26438,1810,1531,3205,3212,12293,14825,13290,15152,3309,3232,842,5233,17087,36173,13083,30006,31657,27125,769,3415,15424,26833,16328,27220,25083,36286
11646,65535,3196,211,169,160,161,155,1517,14683,359,191,189,183,185,184,783,9784,263,222,163,163,157,160,1580,3943,1442,1438,1430,1432,1429,1437,1515,1593,26394,33534,16115,26497,1813,1533,3200,3218,12306,14865,13309,15190,3323,3231,845,5247,17081,36189,13099,30052,31687,27186,768,3424,15423,26869,16329,27241,25111,36361
11666,65535,3183,211,169,161,159,161,1515,14705,358,186,185,183,187,185,781,9813,261,221,163,159,158,160,1583,3948,1446,1439,1436,1432,1438,1435,1521,1596,26446,33600,16140,26558,1824,1529,3213,3219,12340,14901,13347,15238,3337,3243,845,5267,17079,36207,13109,30107,31727,27254,772,3431,15422,26900,16335,27275,25144,36447
11689,65535,3235,209,167,166,159,153,1517,14725,361,187,189,184,186,187,786,9838,263,219,167,160,159,160,1589,3954,1450,1438,1436,1434,1436,1441,1528,1593,26465,33649,16159,26624,1823,1541,3226,3233,12361,14957,13364,15288,3339,3257,846,5280,17085,36239,13119,30161,31773,27318,770,3443,15436,26950,16338,27305,25173,36523
11713,65535,3221,210,166,165,159,159,1517,14744,362,185,189,183,184,189,784,9865,262,221,167,159,156,160,1590,3961,1449,1446,1435,1440,1442,1443,1526,1606,26479,33701,16175,26682,1827,1543,3224,3244,12373,14997,13390,15329,3350,3258,847,5298,17096,36271,13132,30215,31816,27381,772,3455,15462,27013,16339,27329,25203,36586
11734,65535,3267,212,167,162,165,158,1518,14763,363,188,187,187,186,188,783,9891,262,222,164,159,159,160,1591,3968,1454,1443,1441,1441,1443,1446,1531,1604,26488,33724,16203,26735,1835,1543,3236,3242,12399,15023,13429,15374,3351,3254,848,5311,17106,36318,13146,30269,31854,27437,775,3460,15479,27073,16342,27348,25243,36660
11759,65535,3254,211,168,161,161,161,1518,14783,362,184,188,183,184,183,787,9913,264,219,168,159,161,159,1598,3973,1462,1447,1447,1443,1448,1449,1539,1607,26493,33768,16231,26813,1839,1553,3235,3244,12409,15068,13455,15445,3356,3275,849,5324,17111,36353,13160,30330,31901,27506,777,3470,15516,27151,16342,27373,25271,36741
11784,65535,3307,211,171,160,160,158,1520,14813,364,188,187,183,186,185,788,9954,264,222,167,159,159,163,1600,3985,1465,1455,1446,1454,1450,1454,1539,1620,26529,33850,16255,26891,1844,1557,3244,3268,12443,15133,13489,15497,3379,3287,851,5347,17118,36387,13182,30395,31959,27570,774,3482,15482,27143,16343,27402,25298,36778
11741,65535,3208,212,169,163,158,159,1519,14778,361,192,193,186,187,189,784,9844,261,225,164,160,162,161,1602,3983,1461,1451,1445,1442,1446,1443,1545,1619,26488,33733,16215,26722,1837,1541,3264,3264,12460,15068,13457,15362,3352,3243,852,5313,17204,36479,13162,30268,31921,27348,779,3468,15602,27065,16304,27271,25142,36334
11623,65535,3160,210,167,165,160,158,1514,14674,363,184,186,183,191,183,778,9715,266,219,169,159,161,159,1599,3952,1459,1443,1443,1438,1444,1443,1541,1601,26417,33555,16136,26508,1827,1543,3223,3228,12349,14879,13355,15213,3323,3239,845,5242,17170,36325,13105,30063,31737,27156,769,3418,15512,26856,16263,27154,25053,36189
11626,65535,3139,209,171,165,159,158,1514,14661,361,190,188,184,185,185,778,9738,262,223,164,160,161,159,1594,3955,1455,1447,1439,1443,1441,1447,1530,1604,26415,33527,16113,26472,1823,1544,3207,3227,12317,14843,13336,15187,3330,3241,843,5231,17122,36235,13094,30022,31695,27110,768,3411,15440,26777,16259,27123,25028,36157
11621,65535,3162,210,168,161,158,160,1512,14655,360,187,187,187,185,191,773,9740,261,221,162,161,161,163,1595,3956,1457,1447,1443,1441,1444,1444,1529,1602,26401,33492,16107,26444,1830,1536,3224,3233,12330,14837,13353,15182,3361,3263,842,5223,17119,36212,13089,30004,31663,27101,770,3404,15418,26747,16259,27122,25022,36168
11628,65535,3146,210,168,160,160,159,1514,14668,359,184,187,183,187,188,782,9748,263,216,166,163,159,160,1597,3951,1458,1445,1441,1439,1443,1441,1533,1597,26405,33496,16111,26457,1822,1539,3251,3262,12348,14878,13365,15214,3370,3289,843,5230,17109,36200,13088,30010,31673,27107,769,3411,15369,26729,16267,27138,25007,36151
11613,65535,3160,211,169,161,162,157,1512,14657,364,187,192,181,185,186,781,9735,262,220,162,163,162,160,1592,3951,1452,1444,1437,1439,1437,1443,1526,1602,26419,33509,16089,26427,1818,1536,3255,3275,12353,14877,13356,15191,3371,3283,844,5224,17114,36181,13083,29979,31663,27082,767,3409,15382,26697,16267,27122,24992,36117
11611,65535,3129,210,169,161,160,161,1513,14652,359,187,185,183,190,187,777,9739,260,220,164,163,159,160,1590,3948,1451,1442,1437,1435,1442,1437,1522,1596,26456,33520,16097,26420,1823,1532,3260,3270,12363,14869,13356,15176,3381,3285,846,5225,17104,36165,13083,29981,31653,27087,771,3407,15354,26665,16277,27130,24996,36139
11619,65535,3174,210,169,161,159,159,1511,14664,361,187,185,181,190,188,782,9753,263,217,169,164,161,159,1591,3947,1455,1438,1438,1435,1439,1440,1528,1594,26456,33530,16096,26447,1820,1537,3269,3275,12366,14887,13351,15194,3383,3301,843,5228,17105,36164,13091,30003,31658,27117,768,3412,15341,26677,16291,27159,25006,36184
11633,65535,3154,212,168,163,160,156,1517,14683,362,188,187,181,181,185,781,9773,262,221,165,160,159,162,1591,3955,1451,1444,1437,1441,1437,1444,1523,1604,26471,33567,16109,26498,1821,1543,3272,3293,12375,14925,13369,15229,3402,3312,843,5238,17102,36169,13093,30038,31679,27159,769,3417,15329,26687,16312,27204,25041,36258
11647,65535,3203,211,166,161,159,158,1514,14711,365,186,186,182,187,184,779,9801,261,223,164,160,159,160,1591,3959,1457,1443,1441,1436,1444,1441,1530,1605,26495,33613,16135,26547,1831,1539,3293,3301,12412,14962,13397,15264,3417,3317,843,5255,17102,36187,13109,30089,31710,27225,769,3427,15311,26704,16337,27254,25086,36361
11669,65535,3189,210,169,162,161,157,1515,14736,361,187,186,181,191,184,783,9823,262,219,162,159,161,159,1596,3963,1459,1444,1445,1439,1442,1444,1537,1602,26525,33671,16157,26619,1829,1545,3304,3312,12434,15012,13412,15316,3422,3340,845,5272,17108,36219,13120,30145,31757,27292,772,3439,15330,26761,16360,27307,25121,36443
11688,65535,3240,210,169,162,157,158,1519,14760,363,186,186,184,185,190,784,9849,263,225,165,155,158,160,1595,3970,1457,1447,1442,1445,1440,1449,1533,1613,26539,33723,16169,26671,1832,1548,3311,3333,12454,15056,13435,15351,3436,3345,845,5286,17124,36260,13137,30197,31803,27354,772,3452,15354,26818,16377,27345,25163,36508
11702,65535,3216,213,169,161,159,158,1521,14778,359,190,189,183,186,189,781,9871,260,224,165,160,159,161,1595,3977,1454,1445,1441,1440,1445,1440,1535,1609,26556,33753,16189,26712,1837,1541,3325,3329,12481,15082,13455,15370,3438,3336,848,5300,17139,36301,13143,30237,31844,27405,775,3459,15378,26871,16397,27399,25201,36583
11723,65535,3266,210,170,161,163,159,1521,14799,363,190,188,181,188,188,785,9896,265,219,169,163,164,159,1596,3973,1457,1442,1441,1438,1441,1446,1541,1608,26589,33822,16201,26766,1835,1548,3319,3324,12483,15112,13454,15406,3428,3347,848,5312,17142,36327,13155,30286,31888,27467,773,3466,15387,26907,16419,27445,25237,36670
11748,65535,3251,211,169,162,159,158,1521,14823,362,185,189,187,186,184,786,9925,262,222,171,161,156,158,1593,3983,1455,1451,1439,1442,1439,1446,1534,1615,26616,33882,16218,26831,1833,1550,3316,3337,12499,15157,13475,15443,3438,3345,849,5326,17149,36366,13173,30342,31945,27517,779,3476,15383,26940,16436,27491,25270,36700
11694,65535,3214,215,167,164,159,157,1522,14780,364,187,186,183,186,190,781,9809,262,222,164,156,159,161,1593,3973,1453,1439,1435,1431,1434,1433,1533,1609,26574,33749,16171,26638,1826,1531,3321,3320,12498,15066,13435,15302,3400,3299,850,5292,17225,36426,13146,30191,31866,27279,778,3459,15511,26886,16411,27354,25136,36296
11590,65535,3110,210,168,161,160,158,1514,14691,360,192,189,183,186,185,779,9702,261,220,167,159,163,158,1588,3947,1447,1433,1430,1427,1430,1432,1528,1591,26490,33557,16090,26445,1812,1532,3279,3279,12388,14889,13337,15165,3371,3291,847,5225,17194,36285,13092,30003,31706,27118,769,3414,15450,26736,16390,27265,25068,36184
11599,65535,3151,213,168,163,160,159,1515,14676,363,186,187,182,189,188,777,9723,263,222,163,157,154,157,1581,3946,1442,1435,1428,1431,1429,1437,1516,1592,26476,33531,16070,26407,1811,1531,3261,3280,12359,14862,13321,15149,3380,3290,842,5214,17153,36204,13084,29962,31659,27075,769,3408,15397,26689,16392,27254,25051,36149
11589,65535,3117,211,168,163,159,157,1514,14673,359,187,186,183,188,184,780,9721,261,222,163,157,160,163,1585,3948,1448,1433,1432,1427,1431,1430,1518,1591,26466,33497,16079,26406,1816,1527,3270,3276,12363,14851,13337,15153,3385,3286,844,5209,17142,36178,13079,29957,31642,27079,772,3405,15392,26699,16402,27271,25059,36204
11605,65535,3161,210,169,164,161,158,1513,14688,362,185,190,181,186,184,781,9741,263,222,164,159,157,155,1585,3946,1445,1431,1432,1427,1432,1433,1525,1593,26454,33486,16078,26419,1813,1530,3271,3276,12356,14859,13333,15166,3356,3273,842,5221,17133,36169,13079,29965,31647,27078,767,3417,15398,26763,16410,27279,25083,36209
11601,65535,3118,209,171,162,163,158,1515,14675,358,191,187,186,185,185,781,9737,259,224,165,164,159,144,1584,3947,1446,1439,1428,1431,1430,1435,1519,1593,26383,33428,16073,26423,1811,1530,3239,3253,12331,14833,13325,15148,3339,3247,845,5215,17135,36158,13081,29946,31648,27066,768,3413,15462,26812,16393,27244,25085,36187
11602,65535,3154,213,168,165,159,158,1511,14670,360,187,185,184,184,182,777,9753,261,220,167,169,159,160,1583,3947,1442,1433,1428,1425,1429,1427,1518,1591,26418,33460,16078,26408,1818,1524,3226,3229,12325,14818,13312,15127,3330,3229,841,5218,17104,36123,13073,29945,31631,27079,769,3412,15458,26823,16391,27239,25079,36218
11620,65535,3137,209,169,162,159,161,1513,14677,360,187,191,182,190,186,781,9768,263,219,167,159,160,156,1581,3942,1442,1428,1424,1424,1425,1427,1521,1585,26429,33475,16083,26443,1809,1529,3213,3215,12312,14825,13299,15149,3315,3234,841,5230,17106,36127,13079,29971,31647,27112,771,3417,15443,26827,16390,27252,25091,36265
11637,65535,3187,214,171,162,159,157,1513,14691,361,191,187,182,186,186,785,9794,263,222,165,163,160,159,1576,3949,1437,1433,1423,1428,1425,1432,1514,1593,26435,33521,16093,26490,1810,1530,3203,3222,12315,14853,13313,15172,3328,3239,842,5240,17096,36127,13088,30010,31677,27166,768,3421,15425,26839,16394,27272,25121,36342
11659,65535,3174,211,167,165,160,157,1511,14719,359,186,190,183,184,183,780,9825,259,222,168,159,170,165,1579,3954,1442,1435,1429,1425,1430,1429,1519,1592,26453,33554,16121,26547,1819,1526,3219,3223,12343,14882,13347,15216,3330,3229,847,5257,17097,36152,13104,30064,31719,27235,772,3431,15406,26857,16399,27301,25156,36434
11685,65535,3229,210,171,162,160,159,1514,14741,363,191,188,181,185,183,786,9848,264,218,164,159,159,159,1584,3955,1447,1430,1428,1425,1430,1431,1524,1592,26477,33610,16140,26618,1816,1533,3213,3220,12348,14923,13356,15259,3318,3235,846,5279,17100,36175,13118,30121,31767,27295,769,3442,15428,26927,16399,27327,25189,36514
11707,65535,3213,210,169,165,160,159,1516,14759,362,186,186,183,185,187,785,9877,264,222,165,160,158,163,1583,3965,1441,1435,1429,1430,1429,1437,1519,1597,26510,33680,16154,26678,1818,1538,3206,3227,12362,14974,13377,15305,3344,3258,848,5293,17111,36228,13132,30179,31821,27366,773,3451,15458,26980,16407,27360,25220,36583
11725,65535,3259,211,169,165,161,157,1514,14783,362,190,187,184,185,186,782,9904,261,223,167,157,161,159,1586,3972,1447,1439,1435,1438,1437,1436,1527,1601,26539,33727,16177,26718,1830,1537,3242,3251,12416,15020,13428,15349,3374,3275,848,5303,17116,36255,13146,30219,31864,27426,774,3459,15459,27005,16417,27391,25239,36643
11743,65535,3239,210,167,163,159,162,1518,14802,360,187,188,181,185,185,788,9918,263,219,164,164,162,159,1592,3976,1453,1437,1436,1431,1436,1433,1534,1599,26563,33783,16197,26780,1825,1539,3261,3264,12428,15054,13427,15377,3361,3279,851,5319,17123,36276,13157,30279,31913,27489,775,3468,15448,27019,16421,27427,25267,36726
11767,65535,3291,211,168,162,159,157,1519,14829,365,189,187,181,184,189,788,9953,267,224,168,162,164,162,1585,3981,1445,1441,1430,1433,1435,1441,1525,1604,26594,33863,16214,26846,1829,1542,3245,3266,12431,15094,13444,15418,3372,3285,849,5337,17124,36303,13178,30346,31971,27557,774,3478,15423,27017,16435,27466,25311,36821
11783,65535,3259,211,168,164,163,158,1517,14848,361,187,187,182,186,185,785,9957,262,223,167,155,160,157,1587,3990,1450,1439,1436,1432,1436,1435,1531,1606,26604,33850,16218,26814,1829,1534,3264,3274,12467,15120,13470,15410,3369,3261,851,5348,17158,36401,13186,30343,32020,27481,780,3484,15488,27096,16429,27435,25246,36539
11638,65535,3165,210,171,161,161,160,1514,14717,364,188,188,180,186,183,781,9742,261,216,164,163,164,157,1587,3956,1446,1432,1426,1423,1427,1429,1529,1590,26498,33613,16122,26542,1813,1526,3237,3237,12375,14909,13350,15192,3317,3233,847,5265,17200,36332,13127,30094,31806,27202,772,3429,15510,26835,16376,27253,25100,36242
11615,65535,3123,209,167,160,158,158,1511,14683,359,185,187,183,185,184,779,9739,260,219,167,158,159,160,1578,3948,1438,1431,1423,1428,1427,1430,1511,1586,26455,33531,16078,26451,1804,1525,3198,3217,12298,14815,13301,15131,3311,3220,844,5232,17153,36206,13099,30007,31723,27119,773,3414,15437,26760,16361,27208,25061,36185
11608,65535,3152,210,168,163,160,160,1510,14674,359,188,185,183,187,184,777,9743,262,220,168,157,159,160,1581,3944,1437,1429,1422,1422,1430,1427,1511,1585,26445,33487,16075,26414,1811,1519,3200,3205,12298,14783,13301,15105,3318,3217,844,5225,17135,36167,13098,29971,31691,27094,767,3406,15409,26731,16357,27191,25046,36167
11615,65535,3129,212,170,162,162,158,1509,14682,361,190,188,181,185,183,781,9757,262,220,163,159,159,158,1580,3945,1443,1428,1425,1423,1427,1427,1517,1583,26454,33486,16078,26438,1808,1529,3203,3210,12294,14796,13301,15126,3311,3230,843,5228,17122,36147,13097,29994,31686,27101,769,3411,15366,26721,16366,27209,25056,36204
11615,65535,3157,209,170,161,159,160,1509,14681,365,185,187,185,189,185,778,9752,263,224,161,159,159,159,1577,3948,1439,1429,1422,1427,1427,1428,1513,1590,26433,33484,16069,26426,1804,1524,3197,3215,12290,14801,13300,15119,3310,3217,841,5228,17128,36149,13099,29975,31691,27089,767,3411,15406,26751,16362,27191,25053,36175
11604,65535,3115,211,169,161,163,158,1508,14669,357,187,185,182,185,185,776,9745,259,221,167,161,159,159,1576,3947,1440,1428,1424,1423,1426,1428,1510,1583,26458,33487,16069,26408,1808,1519,3197,3201,12296,14782,13295,15096,3316,3217,843,5225,17127,36130,13089,29957,31676,27084,770,3406,15400,26727,16357,27182,25042,36183
11611,65535,3156,209,169,161,158,161,1509,14670,366,186,187,183,187,183,781,9759,264,220,163,158,157,161,1580,3944,1443,1428,1427,1425,1427,1428,1515,1581,26468,33501,16073,26429,1807,1527,3203,3213,12296,14805,13300,15125,3319,3239,843,5232,17117,36121,13095,29977,31673,27103,767,3410,15377,26722,16358,27185,25049,36211
11623,65535,3142,210,167,163,162,158,1509,14684,360,187,186,186,186,185,782,9780,260,222,167,161,161,157,1581,3952,1442,1433,1425,1430,1427,1438,1513,1590,26462,33519,16084,26477,1809,1532,3210,3229,12310,14837,13317,15153,3334,3245,844,5239,17119,36131,13101,30014,31697,27145,767,3414,15361,26729,16365,27203,25079,36278
11638,65535,3191,212,168,162,158,158,1508,14711,361,188,190,183,186,185,780,9805,261,222,164,158,158,156,1585,3959,1448,1436,1438,1432,1437,1435,1521,1592,26496,33570,16113,26529,1821,1531,3229,3238,12342,14871,13349,15193,3359,3265,843,5253,17114,36141,13114,30061,31723,27208,769,3422,15341,26744,16379,27237,25111,36370
11659,65535,3181,218,168,162,159,158,1510,14732,360,188,186,180,185,184,783,9832,263,220,164,159,163,157,1590,3964,1452,1439,1438,1436,1439,1443,1531,1594,26526,33633,16138,26606,1821,1542,3251,3259,12372,14935,13374,15256,3365,3284,845,5271,17112,36166,13130,30117,31775,27281,769,3433,15340,26778,16383,27280,25147,36458
11683,65535,3231,212,163,161,159,158,1513,14760,362,191,190,186,189,184,783,9864,262,223,164,159,160,160,1592,3975,1449,1445,1439,1439,1437,1444,1526,1605,26543,33696,16152,26666,1825,1543,3251,3273,12386,14981,13395,15293,3378,3283,847,5287,17119,36206,13144,30176,31823,27347,775,3445,15362,26839,16396,27313,25182,36539
11702,65535,3212,210,167,164,165,159,1514,14777,362,187,190,184,186,188,782,9885,260,224,165,161,159,160,1593,3980,1455,1444,1440,1439,1449,1439,1529,1602,26586,33745,16177,26713,1836,1544,3268,3273,12424,15020,13435,15338,3407,3314,849,5301,17137,36247,13159,30224,31875,27411,775,3448,15383,26882,16407,27344,25222,36603
11721,65535,3261,210,170,162,159,161,1514,14799,363,188,191,185,186,185,789,9907,264,218,165,160,159,163,1596,3983,1458,1439,1442,1439,1443,1443,1539,1611,26612,33804,16195,26765,1836,1553,3299,3307,12453,15079,13450,15382,3408,3323,848,5313,17135,36262,13167,30273,31912,27465,773,3462,15386,26910,16423,27381,25241,36668
11741,65535,3246,210,168,163,158,161,1516,14823,362,186,186,182,185,185,787,9940,263,223,165,158,160,160,1593,3991,1453,1447,1439,1443,1437,1444,1535,1619,26627,33865,16211,26831,1840,1556,3290,3313,12458,15105,13474,15420,3419,3328,850,5331,17139,36301,13182,30331,31958,27535,774,3467,15382,26937,16437,27427,25279,36759
11765,65535,3296,210,168,161,161,159,1518,14851,365,191,185,183,185,185,785,9972,263,222,167,162,158,157,1595,3996,1460,1447,1442,1440,1445,1443,1545,1618,26661,33914,16235,26879,1848,1553,3315,3320,12502,15154,13515,15466,3440,3341,851,5348,17144,36342,13201,30387,32030,27569,777,3479,15368,26956,16449,27457,25293,36722
11679,65535,3169,209,170,166,162,156,1515,14773,362,186,187,182,186,186,785,9811,263,217,165,159,161,164,1597,3980,1454,1441,1435,1431,1437,1437,1550,1615,26598,33767,16166,26664,1833,1550,3318,3323,12489,15067,13461,15324,3410,3329,851,5304,17222,36383,13160,30212,31906,27307,775,3454,15479,26827,16406,27297,25123,36290
11605,65535,3155,205,169,162,162,158,1513,14710,361,185,187,187,183,187,778,9745,268,226,165,161,159,160,1587,3967,1447,1439,1432,1435,1435,1438,1533,1613,26558,33651,16098,26506,1831,1547,3299,3318,12417,14942,13411,15233,3425,3335,844,5242,17198,36281,13121,30058,31756,27170,769,3417,15371,26658,16390,27235,25062,36199
11609,65535,3135,213,163,161,161,157,1508,14705,360,187,185,183,186,184,777,9770,258,221,164,160,160,158,1585,3962,1450,1438,1438,1431,1435,1436,1536,1608,26572,33627,16092,26476,1838,1547,3318,3320,12428,14924,13419,15225,3437,3338,845,5235,17173,36229,13112,30045,31722,27143,770,3414,15323,26617,16398,27233,25051,36183
11609,65535,3175,212,168,167,157,158,1509,14703,362,185,188,183,187,185,781,9770,264,220,164,158,160,163,1590,3964,1454,1439,1438,1436,1439,1439,1544,1611,26550,33617,16097,26501,1835,1555,3320,3331,12420,14934,13420,15252,3437,3355,843,5236,17155,36193,13113,30052,31704,27155,766,3415,15308,26627,16413,27268,25064,36239
11618,65535,3144,210,171,160,159,161,1512,14717,363,185,187,183,184,187,781,9778,264,222,160,160,159,161,1590,3969,1450,1443,1436,1437,1436,1439,1541,1619,26508,33583,16097,26503,1834,1553,3324,3340,12429,14950,13427,15252,3433,3339,846,5239,17145,36174,13112,30049,31715,27146,767,3421,15329,26663,16429,27275,25073,36209
11599,65535,3162,213,169,162,165,157,1508,14706,362,187,186,183,185,186,777,9765,262,222,163,156,162,159,1591,3965,1451,1439,1437,1432,1438,1437,1543,1611,26503,33561,16095,26475,1838,1549,3321,3324,12433,14924,13421,15227,3431,3336,843,5235,17129,36138,13108,30027,31689,27129,767,3418,15350,26654,16428,27265,25071,36210
11603,65535,3139,213,167,161,159,159,1509,14705,360,187,189,180,183,185,781,9771,262,220,167,158,163,157,1591,3964,1452,1436,1436,1434,1435,1439,1543,1609,26489,33550,16089,26493,1831,1554,3315,3323,12424,14929,13409,15238,3418,3337,844,5235,17112,36114,13102,30029,31678,27141,769,3417,15338,26663,16436,27274,25077,36229
11612,65535,3179,209,171,160,160,162,1511,14712,361,186,186,187,184,186,780,9788,263,225,162,159,157,163,1584,3967,1447,1439,1433,1435,1434,1437,1535,1615,26474,33559,16097,26527,1835,1552,3307,3325,12422,14940,13418,15244,3428,3336,841,5240,17101,36109,13110,30053,31697,27171,768,3420,15343,26682,16447,27293,25092,36272
11620,65535,3161,212,171,161,156,157,1511,14729,359,191,187,184,185,185,779,9813,261,222,165,158,162,162,1590,3969,1449,1436,1435,1432,1436,1433,1540,1610,26491,33581,16124,26573,1839,1548,3322,3322,12441,14957,13435,15270,3433,3336,847,5249,17107,36131,13121,30095,31727,27220,771,3424,15329,26697,16459,27333,25123,36355
11645,65535,3215,211,175,165,159,157,1514,14746,363,190,187,183,186,185,783,9837,269,220,169,159,160,161,1587,3969,1447,1437,1433,1433,1436,1440,1545,1612,26563,33695,16130,26621,1845,1567,3317,3327,12456,15017,13437,15315,3445,3367,843,5268,17084,36118,13121,30130,31749,27278,770,3436,15337,26758,16484,27382,25159,36438
11665,65535,3199,209,168,164,164,158,1509,14767,364,186,185,184,184,186,782,9863,266,223,166,160,163,164,1588,3982,1453,1445,1439,1443,1442,1446,1553,1631,26559,33707,16160,26689,1858,1570,3340,3362,12502,15071,13493,15377,3480,3384,848,5287,17096,36162,13132,30187,31789,27339,773,3447,15365,26816,16499,27413,25201,36505
11685,65535,3243,211,167,162,158,159,1515,14800,363,188,186,187,187,185,783,9886,263,220,167,161,157,157,1598,3990,1461,1451,1447,1444,1449,1445,1563,1633,26517,33687,16187,26740,1859,1567,3373,3375,12531,15101,13531,15421,3487,3395,845,5294,17111,36203,13152,30230,31834,27394,775,3452,15386,26864,16504,27443,25222,36559
11695,65535,3223,208,169,160,162,159,1514,14813,363,185,187,183,186,187,785,9904,264,220,165,159,160,157,1601,3993,1459,1451,1445,1445,1443,1452,1562,1632,26543,33755,16186,26787,1848,1572,3371,3381,12537,15141,13531,15449,3483,3397,848,5306,17105,36211,13155,30271,31866,27446,773,3462,15387,26891,16513,27473,25246,36619
11706,65535,3255,211,172,162,159,155,1511,14821,363,187,186,182,185,185,780,9909,259,228,162,160,160,157,1597,3998,1458,1450,1443,1443,1443,1442,1550,1626,26543,33743,16180,26750,1838,1543,3368,3385,12555,15153,13540,15426,3472,3364,848,5314,17138,36288,13163,30270,31907,27375,773,3464,15426,26911,16511,27441,25205,36401
11585,65535,3115,210,166,162,158,158,1509,14709,359,186,187,186,186,181,774,9729,259,219,165,159,161,158,1596,3967,1456,1439,1437,1428,1434,1431,1534,1596,26460,33538,16080,26481,1808,1518,3344,3336,12479,14958,13434,15224,3422,3325,848,5247,17171,36218,13100,30033,31723,27130,771,3417,15434,26684,16457,27274,25075,36147
11567,65535,3144,217,168,161,161,157,1507,14678,363,187,192,183,186,184,778,9731,262,219,165,159,158,160,1582,3957,1443,1433,1428,1429,1427,1433,1507,1576,26433,33455,16017,26388,1793,1517,3300,3311,12403,14880,13371,15165,3405,3321,841,5214,17116,36105,13071,29957,31623,27065,764,3397,15366,26631,16452,27241,25040,36101
11573,65535,3114,211,165,162,158,160,1503,14677,358,185,186,182,181,186,773,9741,260,223,163,160,157,160,1576,3954,1440,1432,1425,1426,1427,1427,1499,1578,26384,33403,16021,26382,1799,1511,3293,3308,12402,14858,13392,15163,3418,3321,842,5209,17111,36079,13075,29950,31618,27053,764,3393,15335,26579,16455,27246,25018,36102
11574,65535,3157,211,167,162,156,157,1504,14683,359,187,186,183,185,185,778,9755,260,218,165,159,163,158,1579,3950,1441,1427,1429,1423,1427,1427,1504,1567,26457,33460,16023,26396,1799,1511,3309,3313,12419,14893,13402,15201,3427,3343,841,5219,17089,36065,13073,29979,31611,27082,759,3402,15283,26581,16468,27277,25047,36140
11575,65535,3119,208,168,162,162,156,1503,14686,359,187,188,188,186,185,779,9743,260,222,167,164,160,164,1576,3953,1436,1426,1418,1420,1416,1423,1501,1574,26357,33395,16007,26386,1786,1508,3309,3329,12419,14893,13391,15185,3409,3319,841,5214,17122,36079,13073,29954,31612,27060,762,3400,15323,26596,16473,27271,25045,36111
11565,65535,3146,210,171,166,160,158,1507,14673,360,190,186,182,183,183,775,9745,260,222,167,157,163,160,1567,3947,1430,1422,1416,1415,1416,1418,1491,1565,26419,33437,15997,26361,1789,1500,3293,3297,12409,14864,13375,15149,3399,3300,840,5207,17100,36043,13067,29946,31591,27055,762,3396,15315,26571,16481,27273,25044,36125
11569,65535,3127,208,169,162,159,159,1502,14680,362,186,190,182,183,185,778,9760,265,219,166,157,162,159,1569,3940,1433,1421,1421,1418,1419,1421,1494,1559,26441,33445,16001,26375,1786,1506,3286,3291,12409,14872,13369,15165,3394,3315,841,5218,17079,36020,13065,29962,31578,27081,760,3400,15313,26599,16495,27297,25057,36167
11589,65535,3174,210,168,163,162,158,1503,14694,362,190,186,183,184,185,778,9777,264,223,168,157,164,160,1573,3952,1432,1428,1419,1425,1423,1431,1492,1570,26383,33427,16008,26435,1791,1510,3284,3306,12416,14900,13389,15200,3411,3325,841,5221,17076,36037,13073,29999,31608,27126,759,3405,15317,26631,16509,27327,25092,36236
11597,65535,3154,210,171,160,162,158,1503,14713,359,187,186,184,185,182,777,9800,254,222,164,164,159,159,1577,3958,1442,1431,1427,1423,1431,1428,1499,1568,26405,33486,16044,26486,1798,1507,3308,3310,12449,14931,13419,15231,3406,3306,842,5236,17046,35982,13075,30014,31642,27175,763,3415,15296,26630,16530,27375,25135,36344
11615,65535,3207,211,169,162,163,157,1507,14728,364,186,191,182,185,185,781,9828,264,220,164,158,163,159,1581,3959,1443,1429,1429,1426,1429,1430,1501,1570,26472,33556,16063,26555,1794,1515,3288,3293,12437,14953,13414,15268,3384,3304,841,5259,17022,36011,13087,30083,31675,27247,763,3428,15347,26751,16548,27412,25176,36411
11639,65535,3188,211,169,161,159,161,1506,14759,360,190,185,183,185,182,779,9851,261,229,167,160,159,159,1579,3971,1439,1432,1423,1426,1426,1427,1501,1575,26400,33544,16079,26604,1791,1505,3270,3291,12436,14971,13414,15272,3369,3275,845,5269,17053,36065,13096,30117,31719,27299,764,3431,15385,26814,16559,27437,25194,36465
11653,65535,3234,212,167,164,161,159,1507,14766,361,186,186,182,183,186,781,9878,269,220,164,157,161,160,1573,3966,1439,1426,1426,1421,1427,1426,1494,1563,26536,33679,16085,26624,1791,1498,3254,3256,12447,14986,13404,15273,3358,3268,845,5284,17045,36086,13102,30154,31755,27358,762,3438,15399,26866,16574,27479,25229,36549
11677,65535,3219,210,167,167,159,161,1506,14789,364,185,190,181,183,185,784,9895,267,220,168,159,159,159,1580,3974,1444,1434,1430,1432,1433,1435,1494,1565,26556,33686,16093,26655,1788,1507,3249,3267,12465,15031,13429,15326,3374,3291,846,5300,17076,36168,13117,30191,31819,27357,768,3447,15431,26929,16575,27480,25222,36424
11573,65535,3139,209,167,161,158,157,1506,14697,361,185,177,185,187,184,777,9723,260,225,166,160,155,160,1584,3964,1445,1438,1429,1433,1430,1431,1489,1568,26379,33439,16034,26432,1780,1491,3257,3270,12424,14881,13379,15154,3347,3246,843,5236,17156,36161,13079,29974,31679,27093,764,3410,15455,26678,16520,27299,25077,36097
11518,65535,3075,210,172,162,161,159,1501,14638,356,187,187,184,180,182,772,9691,257,218,164,157,159,159,1582,3947,1441,1427,1422,1418,1420,1416,1482,1549,26406,33371,15977,26297,1768,1480,3228,3222,12346,14746,13294,15039,3299,3202,843,5193,17093,36023,13031,29851,31565,26991,760,3382,15379,26581,16500,27235,25023,36019
11517,65535,3112,214,167,160,157,156,1499,14607,361,187,186,180,187,185,776,9695,262,219,164,172,158,159,1567,3929,1429,1415,1407,1407,1406,1412,1471,1541,26418,33363,15941,26245,1753,1477,3171,3180,12278,14694,13221,14967,3253,3174,841,5191,17056,35956,13015,29801,31500,26943,755,3376,15364,26586,16502,27202,25005,35986
11527,65535,3089,211,167,161,160,160,1497,14620,356,187,181,181,186,185,773,9713,258,222,164,160,160,159,1560,3928,1421,1415,1407,1408,1406,1408,1461,1540,26373,33298,15943,26265,1758,1472,3146,3161,12260,14669,13226,14968,3262,3165,841,5183,17078,35978,13022,29826,31503,26966,757,3374,15349,26592,16500,27211,25016,36023
11533,65535,3122,214,167,160,162,161,1498,14629,359,185,185,184,186,183,776,9713,255,226,164,165,161,163,1557,3924,1421,1405,1405,1401,1403,1400,1467,1532,26373,33321,15948,26249,1757,1471,3152,3150,12269,14681,13221,14959,3249,3160,839,5190,17060,35950,13019,29803,31525,26971,758,3381,15352,26597,16504,27209,25003,36009
11517,65535,3081,208,167,162,160,158,1496,14598,359,184,189,181,184,183,775,9701,261,220,161,160,164,160,1553,3912,1413,1403,1398,1397,1396,1402,1459,1530,26484,33405,15923,26229,1743,1466,3128,3142,12250,14674,13182,14933,3217,3133,840,5194,17017,35882,13003,29786,31507,26952,757,3378,15359,26587,16496,27183,24993,36007
11521,65535,3121,209,167,161,160,157,1493,14597,359,187,186,182,180,193,771,9722,258,221,162,163,156,160,1546,3913,1411,1404,1393,1395,1395,1398,1449,1525,26468,33388,15922,26228,1743,1455,3107,3116,12230,14647,13174,14909,3211,3112,841,5197,17013,35878,13007,29793,31491,26964,757,3375,15348,26589,16487,27166,24992,36018
11535,65535,3101,210,168,162,159,159,1494,14607,357,186,186,184,184,187,773,9732,260,218,162,159,162,159,1547,3909,1406,1393,1394,1385,1392,1387,1448,1518,26478,33401,15927,26251,1740,1453,3098,3095,12222,14641,13151,14902,3184,3101,842,5201,17018,35899,13003,29810,31488,27000,758,3381,15343,26609,16488,27183,25010,36071
11552,65535,3156,208,169,162,158,158,1494,14622,357,187,186,181,185,177,777,9757,263,227,167,159,157,160,1537,3903,1402,1388,1383,1383,1382,1388,1442,1519,26511,33463,15931,26317,1731,1456,3070,3086,12210,14661,13133,14916,3173,3089,839,5219,17018,35931,13021,29866,31517,27061,757,3386,15329,26625,16498,27219,25038,36159
11575,65535,3146,211,168,161,163,159,1491,14647,357,186,185,183,185,182,774,9791,260,222,163,158,159,160,1533,3911,1395,1389,1385,1383,1385,1384,1438,1515,26557,33543,15954,26370,1739,1448,3062,3074,12225,14690,13154,14936,3174,3075,843,5237,17013,35947,13030,29923,31563,27131,760,3398,15330,26671,16517,27266,25084,36261
11598,65535,3197,212,168,162,159,159,1494,14663,358,186,190,182,185,182,777,9814,263,223,164,160,160,159,1537,3909,1400,1386,1388,1383,1389,1385,1446,1511,26606,33599,15989,26460,1741,1456,3063,3066,12243,14729,13174,14995,3171,3087,842,5264,17016,35995,13057,30014,31636,27215,759,3409,15349,26726,16531,27303,25121,36352
11620,65535,3181,209,171,162,159,158,1497,14690,358,185,187,181,186,182,780,9842,261,221,163,157,162,159,1536,3915,1395,1386,1375,1378,1372,1375,1445,1523,26501,33581,16016,26532,1733,1455,3055,3073,12235,14755,13183,15026,3147,3056,846,5275,17043,36042,13075,30061,31678,27274,761,3419,15347,26756,16533,27336,25153,36424
11640,65535,3231,211,169,162,159,158,1494,14705,359,187,185,181,183,183,775,9878,263,223,166,164,153,155,1519,3904,1376,1368,1359,1357,1362,1361,1439,1512,26580,33661,16013,26534,1735,1444,3025,3029,12226,14752,13163,14996,3121,3021,847,5290,17042,36088,13076,30100,31718,27298,761,3426,15402,26866,16555,27361,25164,36355
11561,65535,3106,210,168,161,160,159,1493,14629,357,184,186,180,182,186,772,9721,262,218,163,155,160,160,1512,3879,1373,1359,1360,1354,1357,1355,1435,1503,26471,33439,15956,26333,1716,1433,3001,3002,12179,14613,13098,14847,3082,2998,846,5245,17137,36149,13058,29938,31619,27054,763,3397,15471,26668,16497,27181,25021,35994
11496,65535,3090,209,168,164,159,158,1492,14572,359,182,183,179,185,185,774,9670,260,218,165,168,159,159,1504,3864,1362,1353,1343,1345,1343,1346,1417,1494,26396,33331,15887,26182,1700,1420,2965,2978,12076,14469,13013,14721,3044,2954,841,5191,17068,35965,13005,29775,31488,26925,755,3363,15373,26534,16476,27105,24962,35901
11494,65535,3059,210,169,163,159,158,1486,14542,355,189,185,178,186,182,771,9680,258,225,166,164,160,167,1491,3847,1352,1340,1336,1338,1339,1337,1408,1479,26457,33341,15872,26134,1699,1411,2929,2931,12039,14405,12977,14664,3027,2931,845,5185,17033,35907,12999,29751,31456,26890,755,3357,15351,26511,16474,27082,24942,35873
11496,65535,3101,208,167,162,159,156,1488,14547,358,183,185,185,182,183,773,9687,260,217,164,158,159,159,1489,3843,1352,1339,1337,1335,1336,1338,1409,1473,26396,33280,15873,26154,1696,1415,2913,2919,12016,14397,12963,14675,3014,2936,839,5185,17046,35925,13007,29762,31433,26902,751,3360,15317,26503,16474,27087,24943,35911
11510,65535,3076,213,171,162,159,158,1489,14561,357,187,186,183,181,182,772,9699,261,221,162,163,158,163,1486,3844,1347,1340,1331,1335,1332,1337,1401,1477,26403,33295,15864,26145,1691,1411,2902,2919,12011,14405,12961,14664,3005,2917,840,5191,17045,35919,13006,29764,31449,26910,755,3363,15339,26533,16477,27080,24949,35889
11495,65535,3095,210,171,164,160,158,1487,14545,355,186,185,181,187,184,770,9690,260,220,159,156,160,159,1484,3843,1350,1339,1335,1333,1341,1338,1399,1470,26426,33302,15867,26123,1699,1409,2899,2903,12020,14394,12967,14659,3022,2929,840,5189,17041,35911,13006,29754,31439,26898,756,3360,15335,26499,16467,27058,24937,35889
11499,65535,3075,213,167,162,160,162,1487,14548,356,185,186,180,185,182,774,9700,260,217,164,163,153,159,1490,3843,1351,1338,1335,1334,1336,1339,1407,1474,26433,33317,15859,26133,1697,1418,2914,2921,12029,14419,12965,14677,3013,2932,843,5190,17023,35881,12993,29751,31426,26905,753,3359,15320,26507,16473,27062,24942,35916
11518,65535,3122,209,171,164,159,158,1486,14557,358,184,185,180,185,183,772,9724,260,222,169,156,159,165,1484,3846,1348,1343,1334,1339,1340,1342,1401,1480,26456,33365,15869,26166,1698,1419,2900,2918,12021,14425,12975,14697,3023,2933,839,5200,16998,35854,12999,29779,31431,26942,755,3363,15325,26543,16479,27077,24965,35968
11529,65535,3107,212,171,160,159,161,1485,14581,355,187,187,181,183,184,770,9746,255,219,159,162,159,159,1491,3856,1359,1349,1347,1343,1352,1346,1409,1479,26435,33358,15907,26238,1706,1417,2919,2924,12059,14467,13022,14749,3043,2953,843,5214,17016,35911,13021,29838,31463,27005,756,3371,15302,26541,16473,27100,24996,36057
11561,65535,3166,212,172,162,160,157,1491,14610,362,184,185,181,185,183,777,9774,263,218,164,160,160,158,1501,3862,1362,1348,1343,1345,1345,1350,1411,1482,26477,33455,15913,26295,1700,1422,2931,2943,12069,14519,13019,14782,3029,2952,842,5231,17009,35929,13025,29883,31503,27063,755,3383,15303,26597,16489,27142,25031,36129
11577,65535,3149,210,167,162,158,158,1491,14618,356,186,183,181,182,181,775,9802,257,220,162,160,156,159,1494,3868,1358,1355,1347,1349,1352,1352,1405,1488,26583,33580,15934,26358,1708,1422,2923,2941,12101,14570,13050,14821,3056,2963,848,5253,17006,35962,13039,29951,31549,27139,757,3391,15325,26639,16501,27175,25066,36210
11605,65535,3203,214,167,162,157,160,1489,14646,358,185,183,182,184,182,775,9832,265,220,168,162,150,163,1503,3877,1367,1354,1349,1347,1351,1349,1415,1482,26547,33567,15968,26426,1710,1419,2954,2953,12139,14613,13086,14870,3058,2965,845,5269,17044,36037,13062,30017,31595,27204,758,3403,15313,26659,16512,27214,25101,36285
11613,65535,3168,208,168,160,159,160,1491,14652,359,185,185,179,183,184,777,9820,260,221,167,159,163,159,1499,3871,1357,1343,1338,1337,1332,1336,1416,1483,26595,33621,15944,26376,1692,1414,2940,2947,12132,14614,13053,14817,3008,2923,847,5275,17069,36096,13055,29976,31623,27109,758,3407,15391,26719,16519,27171,25046,36040
11490,65535,3085,209,167,163,161,159,1487,14524,360,186,188,180,182,186,767,9662,259,220,164,157,162,158,1481,3841,1343,1337,1328,1328,1328,1333,1395,1470,26555,33449,15860,26139,1687,1400,2887,2896,12043,14410,12962,14630,2981,2884,845,5209,17072,35997,13002,29770,31451,26887,754,3358,15397,26497,16471,27015,24944,35831
11479,65535,3055,211,171,160,159,158,1481,14514,354,185,185,179,184,185,772,9668,259,218,165,163,156,160,1479,3829,1343,1327,1325,1321,1326,1323,1397,1460,26451,33314,15843,26081,1686,1399,2869,2867,11991,14332,12930,14587,2958,2871,842,5183,17047,35924,12987,29713,31378,26842,752,3348,15333,26450,16464,26991,24926,35803
11484,65535,3090,208,168,165,159,158,1485,14502,357,183,183,179,183,181,772,9670,257,218,166,157,159,158,1472,3822,1336,1326,1320,1322,1323,1328,1392,1464,26470,33341,15831,26072,1680,1407,2846,2861,11965,14324,12909,14584,2959,2881,839,5181,17011,35881,12985,29705,31358,26835,751,3347,15336,26459,16466,26985,24923,35825
11499,65535,3076,213,171,161,159,157,1480,14519,356,186,184,182,181,183,769,9700,259,221,162,159,160,162,1474,3832,1339,1334,1327,1329,1332,1331,1390,1467,26473,33336,15861,26123,1694,1407,2859,2877,11995,14363,12954,14630,2997,2904,842,5195,17017,35908,13007,29763,31395,26870,755,3351,15285,26440,16472,26999,24943,35854
11493,65535,3101,209,167,162,161,160,1483,14522,357,188,183,179,183,181,773,9691,261,219,164,163,162,157,1482,3836,1347,1332,1330,1327,1330,1328,1402,1466,26423,33293,15861,26101,1689,1405,2892,2891,12013,14365,12962,14626,2984,2900,841,5189,17038,35917,13000,29731,31381,26851,752,3353,15335,26480,16472,26980,24941,35833
11494,65535,3071,208,168,158,158,157,1480,14509,356,185,189,181,182,183,771,9694,260,220,163,162,157,159,1475,3832,1341,1334,1328,1330,1334,1340,1396,1467,26499,33381,15847,26109,1689,1415,2871,2890,12002,14375,12954,14636,2996,2917,842,5194,17011,35880,12989,29731,31375,26855,755,3353,15335,26482,16477,26984,24939,35852
11508,65535,3116,209,168,161,159,159,1479,14523,355,190,187,185,181,183,768,9719,258,220,163,159,160,160,1484,3839,1349,1343,1340,1342,1338,1341,1403,1478,26450,33333,15885,26159,1705,1416,2899,2914,12040,14406,13009,14687,3033,2937,843,5200,17035,35933,13014,29781,31389,26894,752,3354,15308,26459,16470,26989,24962,35901
11525,65535,3103,210,168,162,158,157,1480,14541,355,184,185,181,183,182,773,9735,259,216,163,160,159,158,1490,3843,1354,1338,1338,1333,1337,1340,1412,1476,26426,33344,15894,26195,1698,1417,2922,2922,12047,14430,13011,14707,3013,2930,843,5207,17036,35933,13011,29804,31409,26940,756,3361,15307,26506,16481,27021,24983,35967
11541,65535,3152,211,170,162,159,159,1481,14553,357,183,185,181,184,183,775,9763,260,217,167,162,158,159,1487,3840,1348,1339,1334,1336,1335,1341,1406,1479,26513,33473,15903,26254,1695,1419,2898,2919,12047,14469,13011,14735,3019,2937,845,5230,17009,35933,13022,29854,31451,26999,751,3369,15306,26530,16491,27055,25019,36045
11563,65535,3142,212,168,165,162,157,1485,14586,354,188,184,181,182,186,774,9798,259,221,163,159,159,160,1489,3854,1351,1343,1341,1336,1339,1336,1403,1483,26488,33463,15943,26327,1703,1411,2918,2926,12084,14501,13053,14781,3028,2930,848,5246,17044,36007,13050,29934,31499,27069,756,3378,15292,26542,16499,27089,25062,36134
11595,65535,3199,211,167,161,160,157,1486,14613,358,183,185,181,183,181,777,9827,263,218,166,159,157,163,1487,3853,1348,1335,1332,1330,1329,1333,1408,1472,26525,33550,15947,26374,1693,1411,2914,2910,12074,14522,13039,14791,2999,2918,846,5259,17018,35995,13049,29971,31541,27127,756,3388,15324,26635,16523,27142,25099,36205
11598,65535,3148,209,168,160,158,160,1485,14598,359,183,184,179,185,182,777,9802,262,218,165,154,160,159,1483,3849,1342,1338,1329,1335,1328,1335,1396,1474,26584,33582,15929,26311,1686,1405,2887,2909,12085,14523,13038,14751,2993,2899,851,5269,17047,36069,13052,29929,31563,27010,756,3391,15411,26647,16512,27067,25038,35927
11481,65535,3076,210,167,163,159,159,1478,14501,355,183,187,181,181,186,767,9651,257,220,162,158,163,159,1481,3829,1343,1330,1328,1323,1325,1322,1394,1462,26388,33269,15864,26071,1681,1391,2876,2877,12005,14313,12963,14583,2960,2859,845,5194,17088,35993,12999,29711,31379,26804,752,3341,15372,26402,16462,26921,24938,35734
11470,65535,3039,205,168,162,162,159,1475,14465,354,183,184,180,182,180,771,9655,260,217,162,153,159,161,1473,3814,1335,1321,1323,1316,1320,1321,1389,1452,26427,33274,15813,25991,1669,1389,2839,2840,11938,14248,12898,14515,2927,2851,841,5166,17019,35871,12967,29633,31315,26742,749,3331,15332,26379,16460,26882,24905,35679
11464,65535,3062,208,169,162,159,159,1477,14443,355,185,188,181,185,181,769,9651,259,218,163,158,158,159,1467,3814,1333,1328,1323,1325,1325,1329,1377,1454,26433,33246,15814,25994,1673,1395,2823,2845,11934,14244,12910,14527,2960,2871,840,5163,17016,35869,12979,29639,31297,26733,748,3325,15308,26327,16452,26867,24895,35691
11487,65535,3053,209,167,173,159,161,1475,14483,353,184,184,185,183,183,768,9679,258,219,164,163,157,159,1473,3819,1338,1328,1325,1317,1323,1319,1384,1455,26358,33200,15831,26010,1677,1390,2855,2857,11948,14259,12930,14543,2962,2869,842,5168,17021,35873,12980,29651,31298,26748,751,3332,15249,26339,16456,26889,24907,35719
11479,65535,3077,212,170,161,153,159,1475,14456,356,183,184,177,184,179,771,9668,262,221,166,163,158,160,1470,3811,1333,1319,1317,1315,1319,1321,1387,1452,26447,33285,15814,25984,1671,1397,2849,2859,11963,14277,12917,14537,2952,2876,841,5173,17001,35845,12965,29615,31294,26729,749,3333,15311,26371,16458,26871,24902,35707
11481,65535,3049,213,170,162,159,158,1476,14457,352,184,185,179,182,181,771,9675,256,220,163,158,158,160,1465,3810,1330,1323,1313,1320,1317,1318,1383,1457,26446,33263,15813,26001,1673,1391,2847,2863,11951,14267,12923,14537,2954,2859,843,5177,17014,35883,12975,29638,31286,26741,749,3333,15295,26351,16451,26867,24911,35718
11501,65535,3097,210,171,161,162,159,1474,14472,355,188,183,194,183,183,772,9694,260,220,166,159,162,160,1461,3807,1327,1315,1309,1305,1311,1310,1381,1448,26428,33269,15818,26010,1670,1384,2845,2842,11938,14249,12912,14522,2935,2843,841,5181,17021,35885,12970,29650,31295,26770,749,3337,15294,26389,16460,26885,24919,35754
11513,65535,3081,210,172,162,160,158,1474,14473,357,186,185,180,187,185,777,9710,264,217,164,159,159,159,1457,3800,1323,1310,1307,1309,1311,1314,1379,1444,26516,33382,15827,26064,1665,1391,2822,2834,11939,14287,12906,14556,2944,2870,843,5197,17006,35887,12978,29688,31319,26822,749,3340,15291,26407,16471,26915,24943,35833
11535,65535,3134,209,166,162,163,161,1475,14506,356,183,185,179,182,181,771,9744,263,225,163,164,162,157,1461,3816,1326,1320,1312,1314,1311,1314,1377,1456,26443,33345,15863,26145,1675,1391,2841,2862,11967,14331,12956,14613,2962,2867,843,5210,17047,35969,13010,29759,31360,26881,750,3349,15261,26406,16479,26943,24983,35907
11557,65535,3121,211,169,165,159,156,1477,14527,353,183,183,179,186,182,773,9767,258,219,167,159,160,163,1461,3813,1325,1312,1311,1304,1311,1307,1383,1449,26527,33460,15877,26180,1675,1387,2853,2849,11993,14361,12954,14619,2953,2864,850,5225,17027,35970,13005,29803,31399,26947,752,3358,15287,26479,16500,26997,25015,35996
11577,65535,3173,209,166,162,158,159,1477,14537,356,181,184,179,184,181,775,9793,263,222,166,160,158,163,1459,3817,1326,1315,1314,1316,1317,1323,1381,1452,26620,33571,15901,26270,1679,1403,2844,2859,12016,14427,12982,14693,2981,2904,846,5246,17024,36015,13033,29886,31453,27021,753,3371,15298,26507,16511,27031,25057,36076
11603,65535,3150,209,169,162,159,162,1479,14575,356,185,187,180,180,182,775,9803,260,227,164,159,164,158,1468,3834,1331,1325,1315,1315,1314,1315,1386,1467,26504,33485,15909,26247,1679,1391,2879,2900,12052,14456,13025,14695,2979,2879,850,5254,17094,36124,13038,29867,31496,26958,755,3377,15335,26548,16514,27007,25028,35866
11480,65535,3059,211,170,161,160,162,1473,14442,355,185,185,179,180,181,766,9625,259,217,162,156,159,164,1464,3801,1325,1310,1309,1304,1310,1308,1385,1447,26482,33312,15819,25977,1666,1381,2851,2850,11975,14257,12919,14485,2934,2849,845,5185,17100,36010,12966,29606,31315,26708,749,3329,15369,26322,16469,26842,24899,35598
11451,65535,3008,207,168,160,160,158,1469,14391,355,184,183,180,183,193,776,9611,259,215,165,159,158,161,1458,3791,1324,1315,1310,1311,1312,1315,1375,1443,26469,33232,15780,25901,1662,1385,2825,2843,11922,14187,12885,14457,2942,2867,844,5153,17055,35923,12953,29545,31240,26631,746,3311,15289,26226,16448,26783,24861,35530
11455,65535,3034,212,167,162,163,158,1468,14389,354,183,186,180,183,182,766,9611,257,224,163,164,156,158,1458,3791,1324,1314,1309,1307,1307,1309,1371,1447,26371,33130,15764,25845,1661,1377,2835,2848,11910,14149,12884,14411,2944,2847,840,5134,17059,35880,12934,29479,31188,26584,746,3306,15271,26205,16451,26762,24837,35497
11451,65535,3008,212,168,162,163,161,1463,14380,351,184,185,178,183,181,767,9621,259,217,165,157,159,159,1456,3785,1321,1309,1310,1307,1312,1313,1371,1435,26457,33204,15770,25860,1662,1380,2832,2835,11911,14164,12873,14424,2949,2871,840,5143,17015,35826,12929,29490,31179,26601,747,3309,15236,26202,16457,26782,24839,35535
11459,65535,3045,208,168,158,161,157,1467,14387,355,184,184,179,183,183,769,9621,259,219,163,163,157,159,1462,3789,1327,1317,1312,1310,1308,1315,1375,1447,26375,33133,15783,25887,1658,1386,2846,2864,11927,14191,12898,14458,2951,2869,841,5150,17059,35895,12948,29508,31185,26594,744,3312,15250,26205,16451,26764,24845,35510
11455,65535,3010,210,168,161,159,157,1465,14378,354,182,182,185,181,186,764,9623,261,219,163,157,158,160,1455,3785,1316,1313,1302,1301,1303,1305,1368,1442,26397,33157,15759,25851,1660,1371,2837,2843,11912,14160,12872,14406,2933,2835,841,5140,17038,35836,12923,29468,31163,26584,748,3310,15272,26231,16459,26765,24837,35508
11456,65535,3045,207,167,165,160,160,1463,14369,354,185,183,180,186,182,766,9631,261,216,162,161,159,160,1451,3775,1319,1308,1306,1303,1310,1309,1367,1432,26495,33239,15771,25875,1658,1377,2821,2825,11917,14173,12874,14430,2943,2865,840,5147,17003,35823,12932,29501,31177,26613,744,3313,15263,26237,16461,26771,24847,35548
11482,65535,3038,208,170,160,158,158,1469,14398,354,183,185,180,182,186,769,9651,261,218,164,160,157,159,1460,3789,1323,1312,1306,1307,1306,1310,1369,1442,26378,33175,15788,25937,1657,1383,2841,2857,11924,14209,12902,14472,2942,2859,843,5154,17036,35865,12943,29535,31183,26649,746,3316,15235,26231,16465,26796,24875,35606
11495,65535,3085,212,172,161,157,157,1467,14411,357,183,184,180,183,175,766,9679,259,222,165,157,156,159,1452,3787,1317,1308,1302,1303,1305,1308,1366,1442,26466,33285,15803,25978,1660,1377,2834,2841,11935,14232,12904,14483,2944,2851,841,5170,17003,35837,12944,29566,31217,26703,746,3325,15242,26289,16487,26841,24903,35694
11513,65535,3074,210,168,165,159,158,1465,14426,352,183,188,180,182,186,770,9699,259,216,163,159,163,158,1455,3790,1325,1311,1315,1309,1315,1314,1373,1438,26527,33341,15839,26067,1666,1385,2844,2850,11979,14291,12950,14556,2968,2888,844,5192,17009,35894,12971,29654,31268,26777,748,3333,15236,26311,16494,26877,24951,35785
11547,65535,3130,209,168,162,159,161,1466,14465,355,183,185,182,191,179,773,9731,261,229,162,162,158,162,1462,3803,1326,1316,1309,1310,1309,1313,1377,1448,26451,33341,15857,26122,1663,1388,2858,2876,11985,14334,12965,14595,2961,2876,843,5203,17032,35938,12977,29690,31307,26835,747,3345,15258,26379,16514,26921,24987,35855
11557,65535,3111,212,167,164,159,159,1467,14473,353,185,183,180,181,186,772,9748,260,221,161,159,157,159,1454,3802,1321,1312,1312,1310,1313,1315,1374,1446,26551,33468,15872,26163,1675,1383,2851,2860,12008,14366,12983,14615,2976,2886,849,5216,17010,35933,12980,29740,31354,26897,751,3349,15291,26431,16534,26964,25022,35937
11582,65535,3168,210,169,165,158,158,1470,14502,357,182,187,179,181,181,772,9779,261,219,163,158,160,157,1466,3811,1331,1318,1320,1313,1319,1318,1382,1449,26513,33451,15911,26249,1681,1393,2878,2882,12042,14419,13035,14698,2990,2907,846,5235,17046,36015,13014,29810,31407,26963,750,3362,15269,26436,16545,27009,25069,36015
11587,65535,3112,208,169,163,159,158,1472,14503,354,179,183,180,183,183,773,9744,261,219,163,158,161,163,1464,3815,1328,1319,1309,1309,1306,1311,1381,1457,26511,33441,15876,26154,1664,1386,2878,2893,12048,14414,13013,14626,2962,2872,853,5229,17077,36061,12996,29727,31411,26813,753,3363,15371,26477,16539,26937,24991,35685
11456,65535,3020,207,168,163,159,158,1466,14363,353,183,190,180,183,180,762,9583,262,222,164,161,158,158,1455,3783,1320,1311,1306,1307,1311,1310,1372,1443,26459,33234,15794,25895,1663,1379,2843,2849,11966,14201,12936,14454,2957,2860,845,5155,17063,35923,12937,29491,31227,26598,746,3309,15343,26222,16489,26779,24886,35497
11451,65535,2986,209,169,165,159,156,1463,14345,352,182,186,180,187,182,766,9583,259,216,165,159,158,161,1459,3775,1323,1309,1305,1300,1303,1301,1373,1437,26352,33083,15762,25828,1654,1375,2847,2847,11915,14130,12907,14415,2931,2848,841,5123,17042,35849,12916,29417,31155,26532,745,3299,15277,26175,16477,26741,24859,35434
11433,65535,3000,215,170,161,159,157,1460,14310,353,178,184,182,180,180,766,9566,259,219,167,159,161,159,1447,3764,1310,1304,1297,1300,1298,1304,1362,1435,26383,33110,15739,25781,1647,1375,2814,2833,11880,14102,12871,14373,2920,2837,842,5110,17000,35759,12896,29361,31120,26491,741,3293,15279,26154,16479,26720,24839,35410
11437,65535,2982,211,169,161,159,158,1458,14319,351,184,183,178,181,181,763,9591,258,219,163,163,158,157,1445,3767,1315,1307,1303,1301,1304,1300,1360,1435,26384,33079,15763,25818,1655,1371,2819,2831,11898,14113,12904,14401,2937,2839,840,5120,17003,35787,12911,29402,31125,26510,745,3294,15223,26131,16477,26725,24851,35437
11450,65535,3014,207,167,163,160,159,1459,14324,353,184,186,179,186,185,766,9582,259,217,164,160,159,159,1451,3761,1313,1299,1293,1289,1293,1292,1368,1430,26317,33037,15747,25787,1643,1365,2820,2821,11879,14094,12873,14369,2893,2810,838,5117,17011,35766,12895,29361,31115,26492,742,3297,15275,26186,16480,26720,24844,35408
11442,65535,2975,208,169,165,160,158,1457,14297,350,182,186,177,186,180,765,9583,257,219,167,158,157,158,1434,3749,1299,1294,1286,1289,1288,1294,1351,1423,26424,33135,15733,25775,1639,1367,2774,2791,11853,14085,12839,14347,2897,2816,840,5118,16978,35719,12888,29351,31113,26496,747,3295,15281,26189,16478,26707,24847,35421
11449,65535,3020,205,171,164,158,158,1456,14309,350,185,183,180,184,183,764,9600,259,215,161,156,159,159,1437,3755,1303,1294,1289,1286,1288,1288,1357,1427,26387,33083,15757,25803,1649,1366,2799,2809,11885,14101,12881,14371,2911,2810,841,5120,16987,35731,12897,29368,31111,26516,743,3295,15250,26171,16477,26716,24853,35455
11469,65535,3005,209,167,163,159,157,1459,14317,351,184,184,183,181,180,769,9615,259,219,168,160,158,155,1434,3746,1299,1285,1283,1280,1285,1289,1360,1423,26432,33157,15757,25842,1641,1367,2791,2793,11863,14106,12863,14379,2885,2809,840,5133,16965,35713,12896,29395,31130,26559,745,3305,15257,26207,16491,26749,24873,35523
11487,65535,3059,210,168,164,159,157,1459,14331,351,183,187,176,178,178,768,9643,259,219,168,156,157,160,1431,3757,1301,1292,1290,1291,1289,1297,1351,1427,26480,33229,15781,25921,1645,1371,2781,2801,11884,14161,12890,14439,2911,2826,841,5150,16973,35758,12920,29465,31177,26627,747,3311,15241,26215,16494,26771,24915,35608
11512,65535,3052,214,167,162,159,158,1458,14371,351,185,184,182,181,181,766,9673,258,221,162,158,157,157,1438,3764,1304,1295,1291,1287,1295,1290,1357,1429,26441,33231,15813,25976,1654,1363,2806,2813,11914,14195,12921,14465,2911,2814,845,5163,17000,35806,12929,29510,31221,26696,747,3320,15248,26266,16510,26822,24949,35693
11534,65535,3101,210,168,161,160,159,1463,14377,354,183,183,176,187,183,774,9690,261,217,168,162,159,166,1437,3763,1304,1291,1289,1289,1294,1300,1359,1424,26553,33368,15821,26033,1649,1372,2800,2806,11931,14249,12922,14503,2912,2839,845,5181,16974,35804,12935,29559,31273,26762,747,3328,15274,26326,16526,26861,24991,35767
11552,65535,3087,212,168,164,157,159,1461,14404,351,185,181,183,181,181,771,9715,259,221,167,159,161,161,1440,3774,1309,1303,1295,1298,1297,1301,1357,1435,26512,33359,15861,26119,1653,1375,2812,2834,11967,14302,12977,14571,2941,2847,847,5197,17026,35907,12966,29631,31336,26829,749,3341,15271,26345,16534,26894,25032,35839
11575,65535,3138,212,167,162,158,158,1462,14434,355,182,182,180,183,183,769,9743,260,220,163,163,154,155,1447,3781,1307,1297,1295,1291,1297,1294,1363,1435,26546,33431,15874,26152,1658,1368,2828,2829,11979,14322,12981,14578,2929,2836,846,5205,17021,35903,12968,29662,31386,26891,748,3344,15294,26407,16561,26951,25070,35924
11594,65535,3127,213,168,164,160,159,1463,14444,352,184,183,183,185,179,773,9761,260,217,167,159,159,160,1444,3778,1311,1300,1300,1298,1302,1305,1367,1432,26682,33581,15897,26232,1662,1383,2820,2830,12005,14387,12999,14647,2951,2876,851,5228,17001,35921,12988,29748,31450,26971,752,3358,15291,26433,16577,26997,25123,36031
11617,65535,3157,208,169,162,157,158,1471,14473,355,185,183,179,180,181,772,9761,259,221,162,160,159,158,1448,3799,1317,1312,1300,1303,1299,1302,1367,1448,26549,33461,15899,26195,1659,1378,2850,2869,12039,14413,13046,14635,2945,2843,852,5230,17091,36073,13000,29723,31501,26872,754,3361,15357,26484,16574,26952,25068,35725
11477,65535,2990,211,167,160,159,157,1460,14334,353,187,183,182,181,180,766,9578,259,224,163,163,158,161,1443,3762,1307,1295,1294,1287,1294,1292,1363,1432,26514,33277,15802,25904,1645,1359,2821,2816,11946,14179,12926,14413,2900,2809,847,5149,17089,35924,12918,29446,31295,26619,750,3309,15397,26263,16532,26796,24947,35495
11462,65535,3015,207,168,164,159,157,1456,14293,353,185,187,179,184,182,767,9577,259,218,165,158,155,157,1443,3748,1310,1298,1297,1294,1295,1299,1358,1422,26509,33204,15775,25845,1644,1369,2791,2803,11895,14123,12899,14397,2903,2828,841,5123,17044,35833,12915,29398,31244,26564,743,3299,15331,26190,16521,26750,24919,35449
11457,65535,2971,207,167,163,158,157,1457,14288,350,183,185,180,185,181,768,9567,257,226,165,159,161,161,1441,3755,1306,1299,1291,1293,1289,1293,1354,1429,26412,33110,15758,25796,1641,1363,2796,2813,11877,14091,12887,14359,2899,2809,843,5107,17047,35798,12903,29341,31212,26531,744,3291,15329,26179,16519,26731,24907,35426
11460,65535,3010,206,166,163,159,158,1452,14280,351,188,183,180,183,184,764,9586,258,218,160,156,158,158,1438,3749,1305,1297,1294,1291,1298,1297,1356,1422,26493,33166,15769,25812,1647,1362,2794,2794,11888,14102,12892,14369,2910,2825,843,5113,17011,35754,12904,29359,31219,26547,744,3293,15291,26174,16527,26749,24921,35455
11465,65535,2977,208,171,161,161,158,1457,14278,351,186,183,178,184,180,767,9578,259,221,163,159,166,162,1446,3750,1313,1298,1295,1295,1293,1295,1358,1423,26427,33106,15767,25819,1640,1367,2806,2813,11893,14118,12900,14381,2904,2820,845,5114,17040,35785,12911,29355,31227,26543,743,3297,15325,26187,16521,26737,24925,35435
11461,65535,3009,208,169,161,161,162,1454,14269,352,184,183,183,179,181,765,9583,257,219,166,159,160,162,1439,3748,1302,1297,1287,1292,1290,1292,1351,1426,26451,33137,15758,25800,1640,1360,2789,2802,11877,14102,12879,14348,2891,2799,843,5113,17015,35728,12899,29334,31221,26544,744,3293,15330,26202,16525,26735,24927,35454
11473,65535,2983,208,167,162,163,158,1452,14269,349,183,187,178,183,182,766,9592,258,218,165,163,159,157,1436,3743,1309,1294,1294,1292,1297,1295,1353,1421,26497,33156,15782,25838,1646,1363,2787,2789,11895,14109,12896,14370,2902,2815,844,5117,17005,35723,12911,29367,31236,26573,744,3298,15318,26203,16525,26746,24943,35493
11487,65535,3034,209,167,165,159,158,1456,14287,354,183,182,178,182,185,768,9609,261,217,167,156,159,154,1444,3750,1307,1297,1292,1293,1293,1298,1358,1423,26464,33168,15794,25885,1641,1368,2795,2808,11895,14149,12907,14414,2903,2830,842,5125,17005,35726,12914,29395,31261,26615,739,3300,15305,26219,16532,26771,24969,35556
11507,65535,3021,210,168,161,160,157,1456,14299,350,187,183,179,181,181,765,9638,257,226,162,160,162,162,1440,3754,1308,1299,1295,1295,1297,1298,1351,1429,26507,33242,15814,25952,1647,1367,2800,2815,11920,14187,12932,14445,2922,2830,846,5139,17003,35735,12927,29441,31297,26679,746,3308,15306,26247,16547,26803,25007,35642
11521,65535,3074,213,169,163,158,159,1456,14322,355,182,187,179,181,181,767,9661,260,220,164,156,157,166,1445,3760,1314,1302,1303,1297,1303,1303,1363,1427,26535,33286,15849,26011,1658,1369,2819,2822,11955,14235,12974,14500,2937,2853,847,5157,17004,35767,12943,29503,31354,26753,746,3317,15311,26287,16558,26842,25053,35729
11547,65535,3065,209,167,160,158,158,1457,14343,352,177,184,179,182,180,771,9681,261,217,166,157,157,162,1450,3764,1318,1309,1302,1303,1305,1306,1364,1435,26547,33339,15864,26081,1654,1379,2831,2844,11975,14289,12995,14553,2942,2862,847,5172,17015,35802,12958,29560,31413,26819,748,3328,15329,26344,16566,26884,25091,35799
11564,65535,3111,211,168,162,158,157,1458,14366,353,183,181,182,183,181,767,9704,258,221,163,159,159,159,1453,3773,1316,1311,1303,1306,1306,1309,1364,1441,26575,33398,15887,26132,1659,1377,2835,2850,11998,14323,13020,14575,2956,2860,848,5183,17028,35835,12977,29607,31475,26883,748,3334,15350,26379,16583,26924,25129,35874
11581,65535,3096,210,167,161,159,157,1459,14385,351,185,183,177,181,182,770,9725,260,218,167,156,158,155,1451,3774,1323,1305,1302,1301,1307,1305,1369,1435,26602,33443,15909,26185,1662,1377,2847,2846,12021,14361,13040,14615,2954,2864,850,5197,17038,35867,12989,29663,31527,26951,751,3342,15349,26410,16595,26964,25164,35959
11609,65535,3154,209,168,163,158,158,1463,14408,357,183,188,179,182,181,773,9752,262,219,164,155,157,158,1451,3775,1317,1306,1303,1301,1299,1307,1367,1440,26628,33522,15925,26255,1657,1380,2842,2857,12023,14399,13047,14655,2948,2868,850,5215,17036,35892,13007,29725,31591,27026,751,3355,15344,26442,16617,27018,25218,36041
11604,65535,3088,211,167,164,162,160,1461,14400,352,184,183,181,183,182,769,9712,258,221,166,160,160,159,1446,3778,1313,1304,1295,1295,1297,1297,1362,1439,26615,33462,15903,26152,1650,1365,2838,2850,12036,14369,13044,14574,2926,2823,853,5207,17109,35995,13007,29658,31631,26895,755,3351,15469,26474,16603,26927,25137,35694
11488,65535,3013,213,168,164,158,159,1457,14280,351,183,183,179,183,180,763,9570,258,217,169,158,158,157,1441,3746,1307,1294,1292,1286,1292,1287,1359,1420,26525,33243,15820,25911,1639,1357,2807,2804,11939,14166,12941,14401,2893,2803,847,5138,17101,35859,12946,29435,31470,26722,748,3303,15443,26270,16561,26803,25039,35531
11489,65535,2983,209,167,160,158,158,1455,14258,351,184,183,178,181,179,767,9578,259,218,162,163,155,159,1435,3737,1303,1293,1288,1288,1290,1292,1348,1418,26519,33210,15792,25873,1635,1361,2777,2793,11891,14122,12907,14371,2881,2804,845,5116,17055,35770,12934,29395,31443,26694,745,3294,15393,26226,16563,26783,25030,35510
11482,65535,3006,208,168,162,162,161,1453,14248,351,183,184,180,181,182,763,9574,258,221,163,162,158,163,1433,3737,1300,1294,1289,1285,1289,1290,1343,1418,26499,33179,15793,25865,1640,1356,2777,2789,11893,14107,12917,14361,2896,2799,846,5106,17047,35733,12940,29388,31430,26698,744,3291,15383,26209,16567,26776,25033,35540
11497,65535,2990,209,169,163,159,158,1453,14261,349,186,184,178,182,180,767,9594,257,221,164,159,163,157,1437,3733,1302,1288,1289,1283,1289,1286,1353,1416,26506,33186,15807,25885,1636,1357,2786,2789,11898,14127,12924,14384,2888,2802,846,5118,17043,35725,12947,29408,31466,26724,749,3297,15349,26222,16567,26794,25051,35555
11491,65535,3011,209,167,164,159,160,1453,14242,350,184,182,179,185,181,767,9581,259,219,165,159,159,161,1434,3733,1298,1291,1285,1283,1285,1289,1347,1419,26506,33188,15796,25871,1631,1356,2774,2791,11889,14127,12907,14369,2879,2794,845,5116,17045,35718,12946,29390,31471,26723,742,3297,15402,26235,16568,26773,25053,35545
11493,65535,2983,210,167,166,158,160,1450,14240,348,182,183,180,180,183,763,9590,257,221,160,160,159,159,1428,3730,1299,1290,1286,1283,1287,1285,1341,1417,26526,33197,15802,25882,1637,1351,2769,2780,11895,14119,12917,14363,2885,2792,847,5116,17037,35693,12947,29401,31480,26744,748,3295,15383,26222,16572,26777,25067,35576
11505,65535,3031,209,171,162,161,158,1455,14251,351,183,183,179,182,184,768,9601,259,217,164,156,161,158,1432,3727,1304,1287,1290,1281,1287,1286,1347,1413,26521,33206,15818,25915,1635,1354,2779,2783,11898,14138,12925,14390,2879,2801,845,5124,17029,35695,12956,29427,31503,26782,745,3302,15378,26243,16570,26798,25091,35632
11523,65535,3016,209,171,163,158,158,1457,14262,354,181,183,182,183,185,769,9615,261,220,162,159,155,160,1431,3729,1297,1289,1280,1284,1283,1289,1345,1419,26537,33258,15828,25975,1635,1358,2773,2790,11902,14173,12933,14419,2884,2804,847,5130,17028,35697,12969,29469,31542,26839,746,3303,15368,26253,16582,26825,25126,35709
11542,65535,3069,212,167,163,158,159,1455,14285,351,184,187,180,184,186,766,9649,262,218,163,156,159,158,1430,3737,1298,1288,1286,1281,1287,1290,1344,1417,26565,33307,15861,26030,1641,1353,2782,2788,11929,14205,12966,14453,2898,2804,847,5149,17027,35708,12982,29526,31589,26908,747,3311,15347,26266,16598,26863,25172,35810
11566,65535,3063,209,168,166,162,159,1457,14301,350,185,184,177,183,180,769,9669,259,220,163,157,159,158,1434,3731,1303,1286,1285,1284,1286,1287,1351,1418,26592,33365,15883,26111,1641,1361,2789,2793,11952,14253,12983,14505,2896,2816,848,5169,17036,35741,13001,29593,31651,26989,749,3323,15359,26320,16607,26909,25216,35903
11593,65535,3116,205,171,162,161,158,1459,14327,353,186,184,177,181,181,772,9694,263,220,163,163,156,157,1431,3740,1298,1293,1281,1286,1284,1293,1347,1425,26608,33429,15904,26176,1641,1361,2788,2807,11965,14299,13004,14545,2901,2815,849,5185,17046,35776,13022,29658,31720,27062,748,3333,15379,26379,16625,26946,25265,35980
11609,65535,3100,211,169,164,159,167,1457,14349,350,184,183,180,183,184,771,9721,258,222,161,159,159,160,1429,3745,1299,1288,1285,1283,1287,1285,1349,1422,26634,33467,15931,26225,1647,1357,2798,2799,11988,14325,13035,14578,2909,2813,854,5197,17061,35821,13042,29713,31778,27129,753,3341,15411,26425,16633,26985,25302,36064
11631,65535,3154,212,167,167,159,161,1461,14373,355,182,184,179,186,183,773,9743,262,217,162,158,158,159,1434,3744,1301,1287,1287,1282,1291,1295,1359,1422,26665,33532,15948,26299,1647,1366,2796,2804,11999,14367,13048,14624,2909,2829,853,5214,17067,35845,13058,29779,31839,27203,751,3350,15401,26451,16649,27035,25347,36159
11659,65535,3139,208,170,162,162,155,1461,14401,350,182,183,181,181,182,772,9766,259,220,163,163,156,158,1433,3755,1300,1294,1286,1287,1286,1289,1351,1429,26673,33573,15958,26325,1648,1360,2796,2820,12019,14408,13075,14650,2906,2798,856,5229,17078,35899,13078,29824,31941,27235,755,3357,15420,26513,16663,27046,25350,36033
11551,65535,3044,211,166,161,159,158,1458,14290,351,184,181,183,181,181,765,9594,258,219,163,160,162,159,1429,3728,1294,1283,1280,1277,1279,1277,1345,1415,26589,33362,15888,26068,1635,1343,2771,2771,11958,14215,12983,14431,2855,2761,853,5166,17159,35911,13031,29595,31854,27029,751,3318,15545,26343,16611,26868,25207,35684
11512,65535,2979,207,169,160,157,159,1455,14234,349,182,183,178,181,179,768,9553,262,219,164,158,163,158,1427,3710,1291,1278,1277,1276,1276,1278,1340,1404,26547,33241,15824,25941,1622,1348,2743,2745,11878,14105,12920,14358,2838,2760,850,5122,17110,35769,12994,29476,31771,26953,748,3297,15468,26244,16599,26812,25160,35619
11510,65535,3010,208,169,162,159,157,1455,14213,351,181,185,179,185,180,765,9557,257,223,164,159,160,159,1421,3709,1288,1281,1274,1277,1274,1278,1333,1410,26526,33204,15818,25915,1623,1345,2729,2749,11857,14081,12911,14337,2846,2754,847,5115,17083,35715,12996,29456,31753,26936,745,3289,15433,26205,16595,26783,25159,35602
11505,65535,2981,210,166,163,163,158,1454,14211,348,183,183,183,182,180,762,9564,257,218,166,159,157,160,1421,3704,1288,1278,1275,1272,1279,1275,1335,1403,26524,33186,15829,25922,1629,1342,2738,2739,11866,14079,12925,14347,2850,2758,849,5116,17073,35673,13000,29470,31755,26965,746,3287,15398,26179,16601,26803,25176,35659
11519,65535,3015,212,172,164,162,158,1456,14213,353,185,183,178,183,180,770,9565,260,217,165,157,162,155,1424,3703,1288,1277,1272,1272,1273,1276,1338,1402,26519,33197,15825,25930,1623,1344,2740,2749,11867,14101,12921,14357,2839,2761,849,5122,17076,35680,13004,29468,31786,26978,744,3292,15425,26225,16596,26801,25183,35643
11511,65535,2978,210,168,161,162,157,1453,14199,348,187,182,178,181,192,764,9558,256,223,164,160,159,161,1416,3702,1281,1278,1270,1273,1270,1274,1327,1405,26526,33196,15815,25918,1618,1337,2731,2749,11866,14088,12915,14338,2841,2751,848,5117,17082,35665,12999,29457,31788,26984,748,3288,15435,26201,16596,26783,25183,35647
11515,65535,3016,211,168,162,158,161,1451,14199,354,187,182,180,180,179,763,9566,258,218,162,158,159,157,1418,3698,1284,1276,1273,1269,1274,1270,1332,1399,26547,33198,15831,25931,1625,1336,2736,2736,11875,14093,12922,14343,2842,2753,849,5122,17073,35647,13013,29479,31796,27011,747,3289,15410,26201,16597,26792,25196,35689
11531,65535,3003,208,170,159,160,158,1451,14209,354,181,183,177,180,181,767,9578,261,220,163,160,157,160,1418,3695,1285,1277,1271,1271,1270,1274,1334,1400,26557,33247,15844,25994,1620,1345,2734,2744,11877,14125,12931,14381,2841,2766,850,5133,17069,35648,13018,29518,31830,27061,746,3295,15405,26215,16605,26819,25229,35762
11548,65535,3057,210,167,165,160,155,1454,14231,351,181,182,179,181,179,767,9604,256,225,163,163,157,162,1415,3702,1288,1278,1270,1273,1272,1275,1329,1410,26581,33295,15867,26053,1626,1344,2735,2755,11894,14159,12959,14415,2856,2763,850,5147,17068,35659,13034,29573,31868,27121,747,3302,15386,26221,16618,26854,25273,35860
11572,65535,3047,212,177,162,160,159,1454,14255,349,184,183,179,174,183,771,9631,256,219,162,162,161,159,1419,3705,1286,1274,1275,1271,1276,1273,1336,1404,26616,33339,15893,26121,1629,1344,2749,2751,11922,14193,12984,14458,2854,2767,852,5169,17071,35687,13055,29639,31920,27196,752,3311,15385,26264,16629,26898,25319,35959
11603,65535,3105,213,167,159,159,157,1458,14279,353,183,187,177,181,183,772,9657,260,218,163,159,159,159,1421,3709,1288,1279,1277,1274,1277,1279,1339,1410,26622,33402,15921,26205,1630,1355,2747,2759,11931,14250,13007,14519,2859,2779,851,5187,17079,35727,13075,29713,31984,27273,749,3322,15399,26318,16641,26942,25365,36052
11625,65535,3093,210,168,161,159,150,1457,14302,350,186,183,181,180,181,772,9689,257,225,163,163,161,162,1419,3716,1288,1282,1275,1275,1276,1278,1337,1417,26652,33470,15944,26263,1637,1350,2749,2766,11960,14293,13039,14559,2869,2776,855,5200,17096,35771,13097,29781,32051,27350,752,3327,15425,26374,16657,26987,25414,36134
11640,65535,3143,215,168,162,157,158,1461,14327,356,183,187,179,182,181,772,9705,261,218,163,163,157,156,1423,3719,1293,1277,1279,1273,1279,1275,1345,1413,26674,33515,15973,26323,1641,1351,2763,2762,11980,14323,13059,14595,2866,2779,854,5219,17111,35811,13115,29842,32112,27414,753,3341,15445,26426,16675,27029,25448,36219
11666,65535,3135,209,166,162,158,157,1462,14345,354,183,187,177,182,185,775,9735,263,219,166,161,156,159,1423,3720,1289,1280,1277,1277,1279,1281,1348,1420,26702,33589,15990,26401,1638,1359,2754,2770,11990,14373,13071,14646,2867,2789,857,5236,17115,35850,13137,29914,32166,27491,753,3349,15438,26447,16688,27078,25503,36316
11693,65535,3190,211,169,160,162,158,1462,14375,351,187,185,185,179,182,774,9769,263,221,162,159,162,157,1420,3727,1289,1285,1278,1279,1279,1279,1341,1423,26733,33656,16020,26456,1644,1350,2762,2777,12019,14416,13113,14690,2887,2792,859,5259,17128,35894,13163,29979,32259,27555,757,3355,15423,26467,16709,27118,25531,36297
11617,65535,3050,211,167,160,157,157,1462,14295,349,184,182,177,185,180,767,9615,262,217,165,162,159,163,1423,3711,1290,1275,1274,1269,1274,1271,1347,1409,26681,33487,15951,26228,1630,1342,2772,2769,12012,14303,13059,14518,2852,2762,859,5212,17230,35982,13129,29803,32242,27385,755,3332,15615,26403,16663,26948,25365,35853
11541,65535,3019,211,168,161,159,162,1459,14214,351,182,187,181,181,181,770,9534,258,218,162,158,159,163,1416,3692,1283,1273,1269,1272,1271,1272,1333,1404,26594,33317,15873,26053,1621,1345,2735,2746,11909,14148,12978,14409,2833,2751,853,5151,17197,35832,13082,29637,32141,27281,749,3293,15536,26260,16645,26868,25305,35755
11540,65535,2988,210,169,161,161,158,1455,14189,347,185,181,179,182,193,764,9545,255,220,163,162,159,159,1410,3687,1277,1276,1267,1269,1270,1269,1327,1404,26597,33285,15863,26005,1624,1337,2723,2737,11898,14111,12977,14378,2843,2748,849,5141,17165,35761,13077,29607,32117,27262,750,3287,15495,26223,16642,26846,25294,35728
11538,65535,3018,210,167,164,160,159,1454,14183,349,187,185,179,185,183,766,9538,258,217,163,159,159,158,1415,3683,1284,1272,1270,1267,1273,1274,1334,1399,26590,33255,15869,26011,1625,1342,2736,2737,11897,14113,12975,14396,2847,2762,852,5139,17156,35735,13083,29611,32105,27268,747,3286,15475,26206,16645,26862,25299,35782
11551,65535,3000,209,167,160,160,158,1458,14189,348,184,184,179,185,179,769,9555,257,217,162,157,162,158,1418,3685,1282,1275,1267,1271,1267,1274,1334,1407,26587,33278,15870,26037,1620,1347,2736,2751,11901,14142,12984,14410,2844,2760,854,5147,17153,35735,13087,29631,32135,27292,745,3290,15471,26231,16655,26869,25317,35784
11543,65535,3024,211,167,161,158,161,1453,14177,350,187,179,178,181,182,763,9544,255,220,162,159,154,159,1413,3683,1281,1272,1267,1266,1269,1268,1331,1402,26589,33262,15869,26011,1625,1337,2735,2743,11914,14132,12991,14390,2850,2750,851,5143,17162,35730,13086,29619,32139,27291,748,3285,15509,26229,16651,26857,25321,35783
11548,65535,2997,209,169,161,159,157,1454,14170,349,183,185,182,179,180,769,9545,258,217,164,160,157,154,1413,3677,1281,1270,1269,1264,1268,1269,1334,1398,26610,33278,15873,26025,1623,1344,2737,2740,11914,14141,12989,14404,2839,2759,852,5152,17141,35692,13087,29636,32133,27307,750,3289,15489,26222,16655,26862,25331,35815
11563,65535,3045,210,167,165,159,157,1454,14179,354,181,182,179,185,181,769,9567,256,219,164,160,159,159,1412,3678,1280,1271,1263,1268,1267,1272,1332,1407,26603,33308,15882,26078,1623,1346,2730,2749,11911,14162,12993,14429,2838,2752,850,5159,17117,35651,13098,29668,32141,27339,747,3291,15481,26238,16662,26883,25357,35870
11582,65535,3037,211,167,160,160,158,1454,14196,347,185,183,189,181,179,769,9596,257,223,161,163,157,157,1411,3680,1283,1272,1270,1265,1272,1271,1334,1409,26606,33337,15912,26137,1633,1343,2735,2738,11927,14180,13020,14463,2846,2749,854,5171,17069,35591,13106,29728,32157,27386,748,3295,15464,26243,16672,26923,25391,35957
11607,65535,3095,210,167,162,158,158,1455,14222,351,181,183,179,185,179,770,9618,263,215,167,159,155,155,1417,3684,1284,1271,1272,1269,1271,1274,1342,1407,26573,33362,15941,26225,1633,1353,2736,2742,11946,14233,13046,14519,2844,2768,854,5193,17005,35520,13126,29803,32184,27449,749,3307,15447,26270,16684,26968,25431,36057
11635,65535,3090,208,168,162,160,159,1457,14245,351,182,187,177,185,180,772,9653,259,219,163,159,159,161,1417,3692,1283,1278,1270,1272,1271,1277,1342,1417,26543,33397,15964,26316,1635,1357,2736,2759,11963,14289,13074,14573,2860,2773,853,5209,16951,35462,13147,29882,32231,27514,752,3314,15460,26321,16697,27012,25481,36147
11661,65535,3143,213,167,162,160,159,1457,14270,353,183,184,181,186,177,770,9679,259,209,162,163,159,163,1419,3698,1283,1276,1274,1272,1277,1275,1346,1417,26539,33433,16002,26380,1646,1357,2753,2759,12002,14329,13116,14615,2875,2779,854,5226,16926,35452,13169,29964,32274,27578,753,3325,15484,26382,16717,27064,25514,36228
11683,65535,3131,207,169,165,159,160,1459,14294,351,183,185,179,181,181,774,9704,261,216,165,157,168,159,1422,3701,1291,1276,1276,1273,1276,1278,1353,1421,26510,33461,16029,26465,1645,1363,2763,2769,12021,14377,13134,14673,2868,2787,857,5242,16901,35444,13188,30033,32329,27640,755,3335,15507,26428,16732,27111,25553,36305
11705,65535,3181,205,168,162,159,157,1462,14313,351,182,183,180,177,183,774,9728,259,218,162,159,159,158,1419,3708,1286,1281,1273,1275,1275,1279,1347,1427,26515,33515,16055,26536,1649,1363,2756,2774,12036,14421,13153,14710,2875,2786,858,5260,16880,35446,13213,30111,32376,27708,755,3345,15529,26479,16752,27159,25598,36383
11730,65535,3172,210,169,161,162,158,1465,14345,348,183,184,181,181,181,773,9758,259,219,161,159,159,157,1422,3712,1289,1281,1277,1273,1280,1279,1353,1424,26537,33579,16083,26604,1655,1362,2768,2774,12063,14454,13183,14747,2883,2791,860,5278,16881,35471,13234,30196,32433,27778,757,3352,15511,26495,16770,27221,25642,36482
11753,65535,3211,209,167,163,158,159,1466,14358,357,183,183,178,183,181,779,9766,263,217,163,155,161,154,1425,3716,1295,1281,1279,1276,1277,1282,1357,1426,26541,33581,16090,26603,1649,1366,2775,2787,12089,14505,13204,14769,2875,2793,858,5294,16900,35557,13253,30207,32526,27764,760,3361,15607,26637,16778,27206,25597,36223
11612,65535,3030,208,168,165,160,159,1463,14227,348,183,183,180,184,186,767,9551,255,218,159,159,158,163,1422,3692,1285,1282,1274,1276,1275,1278,1347,1424,26415,33331,15994,26321,1639,1355,2759,2772,12028,14303,13119,14558,2862,2769,859,5211,16962,35493,13195,29965,32417,27565,755,3308,15696,26389,16726,27013,25451,35908
11583,65535,3048,209,167,162,162,158,1460,14190,349,182,183,179,182,181,766,9541,258,218,163,159,154,151,1419,3682,1290,1278,1277,1274,1279,1277,1347,1413,26359,33206,15962,26213,1642,1354,2754,2753,11991,14213,13093,14500,2863,2771,852,5178,16905,35366,13175,29877,32341,27501,751,3292,15617,26311,16711,26979,25415,35858
11587,65535,3019,206,169,165,159,159,1459,14173,349,182,183,179,181,182,771,9538,259,216,161,158,163,153,1425,3679,1291,1281,1279,1277,1275,1281,1349,1417,26352,33176,15943,26193,1635,1361,2752,2765,11978,14211,13079,14499,2861,2786,862,5170,16874,35299,13169,29863,32316,27487,749,3286,15608,26302,16715,26971,25403,35844
11599,65535,3061,210,168,162,162,158,1461,14195,350,182,186,181,181,180,768,9557,257,218,163,158,162,158,1419,3684,1288,1283,1279,1280,1278,1282,1343,1422,26326,33176,15953,26217,1646,1363,2755,2774,11991,14235,13104,14526,2883,2792,852,5175,16843,35246,13177,29889,32297,27496,749,3287,15557,26278,16729,26995,25426,35895
11604,65535,3030,209,169,162,157,160,1463,14208,351,184,181,179,183,180,766,9552,256,224,162,159,162,158,1424,3687,1292,1281,1282,1278,1286,1281,1353,1418,26283,33117,15970,26213,1652,1365,2782,2782,12023,14254,13142,14557,2908,2825,855,5177,16806,35173,13180,29897,32306,27491,751,3290,15623,26334,16721,26977,25431,35871
