 EMG Channel 
6667.011281
6667.346557
6666.854819
6660.283406
6658.003528
6659.791667
6663.524409
6657.735307
6657.355327
6661.736269
6661.535104
6660.395165
6656.081278
6658.204694
6660.328109
6664.887865
6659.814019
6658.741135
6660.372813
6658.785839
6657.891769
6655.34367
6655.500133
6655.097801
6654.539007
6654.31549
6654.986042
6653.868455
6653.600234
6651.007432
6655.924816
6653.019089
6654.561359
6656.327147
6655.813057
6657.288272
6654.360194
6652.482647
6653.130848
6651.923853
6651.789743
6653.332013
6650.448638
6654.404897
6655.053098
6651.141542
6654.203731
6653.197903
6650.560397
6649.465161
6654.248435
6656.148333
6648.235816
6648.68285
6650.739211
6651.566225
6653.108496
6654.360194
6650.873321
6651.923853
6655.656595
6652.952034
6653.466124
6658.383508
6656.438906
6653.734345
6649.040478
6651.49917
6653.264958
6650.113362
6645.531254
6645.263034
6648.481685
6651.521522
6649.800438
6647.498208
6648.459333
6655.567188
6659.635205
6660.283406
6657.377679
6663.367947
6656.885941
6650.448638
6651.856798
6652.437944
6649.286348
6646.872359
6650.560397
6656.170685
6651.096839
6648.325223
6650.180417
6649.219292
6650.403935
6650.560397
6649.107534
6653.756696
6654.226083
6656.952996
6657.332976
6655.656595
6654.717821
6653.533179
6655.053098
6656.550664
6658.517618
6656.215388
6652.840275
6653.644938
6656.818885
6656.505961
6655.544836
6655.85776
6655.008394
6651.074487
6651.342708
6654.941339
6654.851932
6656.997699
6657.198865
6656.215388
6657.154162
0.0
6594.234001
6594.47987
6589.495431
6590.009521
6591.395329
6597.251486
6595.686864
6596.312713
6593.250524
6595.105719
6596.91621
6593.250524
6595.977437
6596.223306
6598.525536
6598.391425
6595.105719
6601.900649
6598.547888
6593.183469
6593.228172
6597.519707
6597.497356
6600.268972
6606.058074
6600.470138
6589.651893
6582.119355
6576.978454
6579.839478
6578.118393
6567.993053
6558.135934
6558.739431
6558.515913
6556.213684
6552.793867
6554.894931
6555.386669
6551.989204
6551.788038
6553.35266
6559.097059
6560.415812
6554.447896
6553.173846
6554.291434
6550.513989
6555.431373
6554.693765
6558.381803
6562.092192
6556.526608
6551.43041
6551.788038
6550.759858
6553.397364
6553.531474
6555.766649
6559.477038
6557.465381
6554.358489
6553.419716
6556.101925
6552.145666
6549.463457
6549.306995
6549.485809
6557.845361
6558.806486
6554.023213
6554.067916
6554.894931
6550.335175
6550.871617
6551.206893
6556.884236
6556.191332
6553.933806
6555.27491
6555.185503
6551.385707
6549.821085
6551.408059
6555.252559
6554.313785
6553.039736
6551.005727
6552.771515
6553.173846
6554.850227
6553.21855
6545.395439
6543.137913
6540.142779
6534.957175
6533.012573
6527.134064
6518.305125
6517.589869
6515.689971
6510.303201
6507.509232
6505.385817
6510.191442
6511.599602
6504.648209
6499.484956
6503.687084
6504.759968
6501.653075
6506.615163
6508.068026
6504.692913
6500.04375
6499.842584
6501.429558
6507.017494
6509.029151
6504.648209
6503.172994
6504.737616
6509.587945
6505.363465
6500.311971
6503.441215
6505.832852
6509.14091
6508.068026
6501.317799
6497.294485
6501.58602
6505.743445
6506.995142
6509.990276
6512.046637
6507.35277
6504.715264
6500.870764
6500.356674
6502.189517
6504.290581
6507.464529
6510.817291
6511.532546
6503.597677
6502.055407
6508.11273
6503.396511
6503.262401
6506.503404
6509.431482
6506.615163
6499.864936
6504.91643
6507.86686
6506.682218
6503.351808
6504.670561
6519.243898
6513.253631
6499.037921
6495.953381
6496.646285
6494.813442
6487.906753
6484.174011
6486.878572
6481.201229
6485.515116
6481.938837
6478.384909
6476.462659
6476.97675
6479.278979
6479.904828
6481.558857
6479.681311
6474.428651
6477.356729
6483.123479
6477.401433
6474.428651
6475.903866
6476.820287
6477.960226
6479.971883
6477.848468
6477.62495
6482.430575
6486.900924
6484.889267
6483.570514
6487.370311
6483.883439
6476.060328
6478.384909
6473.221656
6474.003968
6476.954398
6472.305235
6472.998139
6474.451002
6470.382985
6475.345072
6479.189572
6478.697834
6474.249837
6469.466563
6470.986482
6476.708529
6489.247857
6493.561744
6498.590886
6500.155509
6507.598639
6517.232241
6525.323573
6535.851244
6537.773494
6541.238015
6550.201064
6560.147591
6566.719004
6570.988187
6583.46046
6592.289399
6588.556658
6590.367149
6589.383672
6590.456556
6590.836536
6590.277742
6592.892896
6599.173736
6599.821937
6592.870545
6590.903591
6588.780175
6590.098928
6591.998827
6590.814184
6590.881239
6589.875411
6594.412815
6593.854021
6595.977437
6590.680074
6588.489603
6591.842364
6597.497356
6600.045455
6598.816109
6593.295228
6593.630504
6598.212611
6594.85985
6590.769481
6594.748091
6597.475004
6598.816109
6595.731568
6591.596495
6592.445861
6592.512917
6583.393405
6588.981341
6602.951181
6605.052245
6604.404045
6599.911344
6601.297152
6614.752902
6619.223251
6619.670286
6623.000696
6630.376772
6632.79076
6627.091065
6626.465216
6626.331106
6628.499225
6623.648897
6622.598365
6626.50992
6625.749961
6621.927812
6623.470083
6629.885033
6630.890862
6624.542966
6622.754827
6624.855891
6625.034705
6620.765522
6622.128978
6627.940432
6627.001658
6625.213519
6625.48174
6626.8899
6630.22031
6628.834501
6622.911289
6619.893804
6623.31362
6625.772312
6622.441902
6629.32624
6627.985135
6625.347629
6620.698466
6618.507995
6623.894766
6631.181435
6629.572109
6630.957917
6636.881129
6631.673173
6627.180472
6626.018182
6624.72178
6628.186301
6629.46035
6626.599327
6628.43217
6629.370943
6632.455484
6631.181435
6627.739266
6627.381638
6624.855891
6620.676115
6622.643068
6628.208653
6627.202824
6630.287365
6627.336934
6628.320411
6630.689696
6635.428266
6631.941394
6626.666382
6623.403027
6625.146464
6619.044437
6609.321428
6611.087216
6610.550774
6611.64601
6612.562431
6615.356399
6615.423455
6617.703333
6613.791777
6613.18828
6617.055132
6620.407894
6615.49051
6614.283516
6617.502167
6618.597402
6616.362228
6615.646972
6622.263088
6618.776216
6612.651838
6614.59644
6616.429283
6611.355437
6613.814129
6617.03278
6620.921984
6620.474949
6615.199937
6615.043475
6617.233946
6617.435112
6618.642106
6619.290306
6620.944336
6620.430245
6621.503129
6619.044437
6621.704295
6620.072618
6614.484681
6623.17951
6620.787873
6622.084275
6626.085237
6615.088179
6611.578955
6612.987115
6617.591574
6615.021123
6614.372923
6613.389446
6609.142615
6602.794719
6601.498318
6603.621734
6605.074597
6607.086254
6605.432225
6609.366132
6602.280629
6597.877335
6598.816109
6604.202879
6604.4711
6598.994923
6595.75392
6602.638257
6604.538155
6599.106681
6597.720873
6603.129995
6604.448748
6599.59842
6598.458481
6596.893859
6601.341856
6604.225231
6601.967705
6598.972571
6607.220364
6607.198013
6608.069731
6608.203841
6609.522594
6606.549812
6600.671303
6596.133899
6596.044492
6595.306885
6592.021178
6593.07171
6600.961876
6600.894821
6598.458481
6600.894821
6600.716007
6595.37394
6592.17764
6598.480832
6598.860812
6601.118338
6604.739321
6598.302018
6598.793757
6602.302981
6601.945353
6598.413777
6597.765577
6605.812205
6609.969629
6608.092083
6600.827766
6594.077539
6590.903591
6587.528478
6582.611094
6578.096041
6575.346777
6567.747184
6562.44982
6568.797716
6575.39148
6576.531419
6565.757879
6563.120373
6562.047489
6561.533399
6566.920169
6567.434259
6567.389556
6570.027062
6568.21657
6570.630559
6571.211704
6567.680129
6563.612111
6565.869637
6569.155344
6565.914341
6567.098983
6566.16021
6565.534361
6568.954178
6570.00471
6565.176733
6565.13203
6565.869637
6565.444954
6563.545056
6567.635425
6570.563504
6566.070803
6562.293358
6562.718041
6564.953216
6564.305015
6563.008614
6564.528533
6564.349719
6565.176733
6564.662643
6564.729698
6568.529495
6568.797716
6567.166038
6567.143687
6565.757879
6565.556713
6566.607245
6568.685957
6566.003748
6563.947387
6566.473134
6568.127163
6569.870599
6565.668472
6558.828838
6559.253521
6560.862846
6564.573236
6566.026099
6564.796754
6562.8298
6563.947387
6563.925035
6564.305015
6559.946425
6561.667509
6567.613073
6566.361376
6560.147591
6560.058184
6559.655852
6557.979471
6562.494524
6563.053317
6563.20978
6558.895893
6548.323518
6558.292396
6568.641254
6572.999844
6572.418698
6566.808411
6578.498373
6580.845306
6581.448803
6590.054225
6598.123204
6592.17764
6596.379768
6602.124167
6605.074597
6608.114434
6607.063902
6601.2748
6599.106681
6600.827766
6610.014333
6610.282553
6605.36517
6605.36517
6601.364207
6603.644085
6601.073635
6601.051283
6606.52746
6606.505109
6604.292286
6603.733492
6600.425434
6599.039626
6598.70435
6603.353513
6606.616867
6605.231059
6607.153309
6606.974495
6607.488585
6601.587725
6602.325332
6606.661571
6607.399178
6612.718894
6608.494414
6608.405007
6607.868565
6608.181489
6603.532327
6599.620771
6605.275763
6602.995885
6613.411798
6620.787873
6620.027914
6618.776216
6621.659591
6628.208653
6632.723705
6628.387466
6624.766484
6627.202824
6632.679001
6636.478798
6640.703278
6633.461312
6632.679001
6631.181435
6627.985135
6627.202824
6629.952089
6617.435112
6599.285495
6593.541097
6594.234001
6602.235925
6604.135824
6606.639219
6606.616867
6609.679056
6614.842309
6614.909365
6611.489548
6609.388484
6604.806376
6601.52067
6601.721835
6602.906478
6606.750978
6607.376827
6607.93562
6604.716969
6603.44292
6604.60521
6601.2748
6602.437091
6608.382655
6610.595478
6615.11053
6617.368056
6620.497301
6622.017219
6617.859795
6618.217423
6624.230042
6627.783969
6630.622641
6629.773275
6629.169778
6626.308754
6621.503129
6610.036684
6606.929792
6604.247582
6597.966742
6587.036739
6571.41287
6565.959044
6578.811297
6573.357472
6581.15823
6604.627562
6631.695525
6644.972461
6645.933586
6637.283461
6627.873376
6622.79953
6620.162025
6622.598365
6621.346667
6617.457463
6618.664458
6622.017219
6616.921022
6616.272821
6618.373885
6620.474949
6623.246565
6626.442865
6620.22908
6621.614888
6629.169778
6623.17951
6613.143577
6614.46233
6616.697504
6613.791777
6609.902574
6610.416664
6605.745149
6603.554678
6605.298114
6602.526498
6601.051283
6602.414739
6601.788891
6608.762635
6615.311696
6604.962838
6593.339931
6578.72189
6576.062033
6577.246675
6575.614998
6566.853114
6569.62473
6573.044547
6573.178658
6572.463402
6574.586818
6574.586818
6572.664568
6574.765632
6574.87739
6570.205876
6569.155344
6570.854076
6573.782155
6576.419661
6570.205876
6571.077594
6568.775364
6568.708309
6576.15144
6575.704405
6574.87739
6570.563504
6573.670396
6568.395384
6560.795791
6566.227265
6569.803544
6569.781193
6566.316672
6571.03289
6575.25737
6572.642216
6564.059146
6567.925998
6569.781193
6567.858942
6568.551847
6567.143687
6568.328329
6569.870599
6564.819105
6563.366242
6573.424527
6574.564466
6568.663605
6568.507143
6567.456611
6572.95514
6581.717024
6579.057166
6564.215608
6561.019309
6552.659756
6550.223416
6551.788038
6550.491637
6543.674355
6533.213739
6533.347849
6533.325497
6532.610241
6531.515006
6534.532492
6532.386724
6532.610241
6526.284698
6527.201119
6533.347849
6535.627727
6534.577195
6530.844454
6527.961079
6530.822102
6534.107808
6532.766704
6530.486826
6533.347849
6534.443085
6531.984393
6533.437256
6533.705477
6533.504311
6529.793922
6526.284698
6528.475169
6528.296355
6525.189462
6532.409076
6530.375067
6530.755047
6531.090323
6532.431428
6533.571366
6529.369239
6530.039791
6529.056314
6530.419771
6532.051448
6531.112675
6534.867768
6538.131122
6537.46057
6525.770608
6516.584041
6511.443139
6509.051503
6512.896003
6505.274058
6496.445119
6498.836756
6499.931991
6493.785261
6491.371273
6493.651151
6494.79109
6494.433462
6492.310046
6493.673503
6498.657942
6497.808575
6495.461642
6490.410148
6498.1215
6498.680293
6495.238125
6498.1215
6499.172032
6501.541317
6502.10011
6501.206041
6498.836756
6502.345979
6494.992256
6492.265343
6493.561744
6496.780395
6498.63559
6500.669599
6502.345979
6502.256573
6497.272134
6491.930067
6491.550087
6499.507308
6500.021398
6495.215773
6496.735692
6502.256573
6501.876593
6498.300314
6495.394587
6499.931991
6502.48009
6498.032093
6500.311971
6498.546183
6494.880497
6498.367369
6510.750235
6518.081608
6518.595698
6522.328439
6522.842529
6526.843491
6536.119465
6544.166093
6546.848303
6552.369184
6561.645158
6561.42164
6562.606283
6555.565483
6560.505219
6561.376937
6557.95712
6556.504256
6556.817181
6563.679166
6563.120373
6565.355547
6567.635425
6566.473134
6560.482867
6558.426506
6558.247692
6556.995995
6553.106791
6555.811352
6557.711251
6558.270044
6559.275873
6559.275873
6560.326405
6564.595588
6560.035832
6556.057221
6559.678204
6562.31571
6561.064012
6560.102887
6561.622806
6565.13203
6561.309881
6555.051393
6555.587835
6561.578102
6562.248655
6558.426506
6560.058184
6559.208817
6559.432335
6561.108716
6562.986262
6562.673338
6563.790925
6560.594626
6561.667509
6562.896855
6564.863809
6559.454687
6559.700556
6562.44982
6557.264216
6554.179675
6562.31571
6571.949312
6568.484791
6572.44105
6575.860867
6573.782155
6583.683978
6587.662588
6584.667454
6583.683978
6577.805469
6577.201972
6580.331216
6579.61596
6580.487678
6587.081443
6585.919152
6581.784079
6581.717024
6582.0523
6587.506126
6582.856963
6582.901667
6581.672321
6580.174754
6579.146573
6582.231114
6583.236943
6583.639274
6583.281646
6579.168925
6582.0523
6581.4041
6580.554733
6581.001768
6584.309826
6581.649969
6579.884181
6579.705367
6581.806431
6583.147536
6580.241809
6584.600399
6583.438108
6582.275818
6578.2078
6576.084384
6576.643178
6585.270951
6581.091175
6572.284588
6572.30694
6582.007597
6585.136841
6588.847231
6591.730606
6594.278704
6598.167908
6601.699484
6601.095986
6606.482757
6607.041551
6607.466234
6606.706274
6611.467196
6612.808301
6608.896745
6605.87926
6602.302981
6608.270896
6613.165929
6608.472062
6612.808301
6617.077484
6613.545908
6606.147481
6609.232021
6611.713065
6612.227155
6610.126091
6611.511899
6613.232984
6614.238812
6608.3156
6608.919097
6607.443882
6612.562431
6614.484681
6615.937545
6612.361266
6609.522594
6603.509975
6609.321428
6612.115397
6610.662533
6612.249507
6613.545908
6612.517728
6610.662533
6605.588687
6603.420568
6603.19705
6608.986152
6608.673228
6606.862737
6604.918135
6608.114434
6608.874394
6605.834556
6601.297152
6604.359341
6608.3156
6609.634353
6614.059998
6611.690713
6618.217423
6610.260202
6595.686864
6591.66355
6582.722853
6580.755899
6576.442012
6575.994977
6584.175716
6584.823917
6582.409928
6576.240847
6578.185448
6577.827821
6579.057166
6579.99594
6578.945408
6581.962893
6580.733547
6576.352605
6576.039681
6580.331216
6575.816164
6576.017329
6580.487678
6578.878353
6578.58778
6577.201972
6574.631521
6575.592646
6578.699539
6583.84044
6585.829745
6586.41089
6583.46046
6577.023158
6584.242771
6589.674245
6588.824879
6588.780175
6584.86862
6589.338969
6590.657722
6598.100853
6591.440033
6588.064919
6595.575106
6594.144594
6595.128071
6590.63537
6593.362283
6594.569277
6591.596495
6594.837498
6597.631466
6596.580934
6590.233039
6585.650931
6589.361321
6590.12128
6586.433242
6582.991073
6587.416719
6593.362283
6593.07171
6592.04353
6593.786966
6593.317579
6596.022141
6591.238867
6591.350626
6594.457518
6596.603286
6598.614943
6598.994923
6598.369074
6595.642161
6591.596495
6587.439071
6586.299132
6592.132937
6590.903591
6590.724777
6592.17764
6589.338969
6587.103794
6594.971609
6594.234001
6598.033798
6600.648952
6591.931771
6591.954123
6597.050321
6587.394367
6579.99594
6580.621789
6578.252504
6575.235018
6579.392443
6579.683015
6580.845306
6581.560562
6579.057166
6578.118393
6579.861829
6583.683978
6580.733547
6574.497411
6576.754937
6579.258332
6577.827821
6578.252504
6576.173791
6581.359396
6581.53821
6573.111602
6573.133954
6579.638312
6576.106736
6576.263198
6579.168925
6585.2486
6584.578047
6580.040643
6580.621789
6583.192239
6581.694672
6580.867658
6584.555696
6586.969684
6582.141707
6585.628579
6589.562486
6582.700501
6575.927922
6568.08246
6566.875466
6572.105774
6566.808411
6559.991128
6553.509123
6551.564521
6554.179675
6550.513989
6545.842474
6545.395439
6544.009631
6547.720021
6545.753067
6545.328384
6550.871617
6550.469285
6545.52955
6543.830817
6551.184541
6551.206893
6547.854131
6546.468323
6550.379878
6549.038774
6545.440143
6542.892044
6547.764724
6550.670451
6549.709326
6548.032945
6546.468323
6549.262291
6544.166093
6541.483884
6545.998936
6550.379878
6550.044602
6542.780285
6543.674355
6545.641309
6547.362393
6546.356564
6553.464419
6558.404155
6547.58591
6538.533454
6537.259404
6534.778361
6533.772532
6537.192349
6529.436294
6526.619974
6523.468378
6521.434369
6519.534471
6519.13214
6523.066047
6521.590831
6522.373143
6523.669544
6521.680238
6524.496558
6521.032038
6521.099093
6524.451855
6522.686067
6522.864881
6518.148663
6518.88627
6522.686067
6519.64623
6518.260422
6523.066047
6522.037866
6519.065084
6522.417846
6525.144759
6523.848358
6523.446026
6516.248765
6515.913488
6520.316782
6522.931936
6519.64623
6519.936802
6517.47811
6518.819215
6516.204061
6518.908622
6521.434369
6523.021343
6520.964983
6518.975677
6519.64623
6515.958192
6516.718151
6520.070913
6518.796863
6521.032038
6519.199195
6515.533509
6512.314858
6517.500462
6518.863919
6516.986372
6517.232241
6515.086474
6505.117596
6504.111767
6518.416884
6531.962041
6534.063105
6531.82793
6541.17096
6555.073745
6559.36528
6562.002785
6565.400251
6579.168925
6582.454632
6578.833649
6583.795736
6587.640236
6587.081443
6581.672321
6580.621789
6585.986207
6587.707292
6585.539172
6587.483774
6584.332178
6582.722853
6585.472117
6585.494469
6588.087271
6588.869582
6585.203896
6581.672321
6580.778251
6586.902629
6587.372015
6585.315655
6587.260257
6588.064919
6588.601361
6584.645103
6580.867658
6588.33314
6585.785042
6580.487678
6581.761728
6585.539172
6592.110585
6593.697559
6586.701463
6580.979416
6583.706329
6581.627617
6581.739376
6581.001768
6587.729643
6591.574143
6588.869582
6587.774347
6582.499335
6580.688844
6580.375919
6584.645103
6586.433242
6587.372015
6589.003693
6591.551792
6594.815146
6592.781138
6591.395329
6592.579972
6595.038664
6594.681036
6585.360358
6575.302073
6574.050376
6573.580989
6566.093155
6563.276835
6560.594626
6565.13203
6567.70248
6557.130105
6552.212721
6554.783172
6553.59853
6556.68307
6558.60532
6562.360413
6558.873541
6551.899797
6557.420678
6556.817181
6557.95712
6558.873541
6555.923111
6556.638367
6559.655852
6557.308919
6555.118448
6553.442067
6557.778306
6560.505219
6558.717079
6556.414849
6560.885198
6564.528533
6556.03487
6555.27491
6557.465381
6554.917282
6559.007652
6563.545056
6561.823971
6556.817181
6558.493562
6557.375974
6556.884236
6558.158285
6557.152457
6561.064012
6561.198123
6557.040698
6557.465381
6555.073745
6558.068878
6561.28753
6565.400251
6561.734565
6559.141762
6559.857018
6555.811352
6554.291434
6558.381803
6562.740393
6560.259349
6559.812314
6558.851189
6557.621844
6552.659756
6551.519817
6552.883274
6556.370146
6560.371108
6555.364317
6549.709326
6552.32448
6563.165076
6558.806486
6556.079573
6564.796754
6566.6743
6561.28753
6563.388594
6560.974605
6562.360413
6569.512972
6568.820068
6563.053317
6566.584893
6568.417736
6561.04166
6565.042623
6572.686919
6574.028024
6569.445916
6567.590722
6566.406079
6560.304053
6561.779268
6560.01348
6562.293358
6563.232131
6560.058184
6562.941559
6563.947387
6561.645158
6562.561579
6565.534361
6569.647082
6564.908512
6558.314748
6557.688899
6571.390518
6580.264161
6576.754937
6576.352605
6579.370091
6579.928884
6584.645103
6582.253466
6583.013425
6584.376882
6583.795736
6576.844344
6581.806431
6585.963856
6588.869582
6586.857925
6581.314693
6585.092137
6585.472117
6582.588742
6582.119355
6581.873486
6582.856963
6588.422547
6587.416719
6581.784079
6582.991073
6582.007597
6579.638312
6583.281646
6584.35453
6583.527515
6584.779213
6583.08048
6581.784079
6583.683978
6580.018291
6578.118393
6579.839478
6587.617885
6587.103794
6584.35453
6581.001768
6583.415757
6582.342873
6586.634408
6586.142669
6585.2486
6581.672321
6581.247637
6583.616922
6584.667454
6585.069786
6589.383672
6592.199992
6587.640236
6578.096041
6579.392443
6575.235018
6573.066899
6572.664568
6565.914341
6563.969739
6567.814239
6571.658739
6567.836591
6567.814239
6566.204913
6567.411908
6569.937655
6571.994015
6569.49062
6569.669434
6570.228227
6567.009576
6571.010538
6571.79285
6569.602379
6568.238922
6568.46244
6572.508105
6578.945408
6574.475059
6560.773439
6555.252559
6557.867713
6552.860922
6553.73264
6552.056259
6552.235073
6545.909529
6543.383782
6540.142779
6540.545111
6539.651041
6535.851244
6542.556768
6547.541207
6546.535378
6543.339079
6540.612166
6544.434314
6543.942576
6535.963003
6538.958137
6541.103904
6544.724887
6546.17775
6544.63548
6544.300204
6545.395439
6543.6073
6537.505274
6534.286622
6539.338117
6543.22732
6537.572329
6536.030058
6538.667564
6541.997974
6542.802637
6541.886215
6544.523721
6550.201064
6544.210797
6542.065029
6548.636442
6548.658794
6539.271061
6529.816273
6530.28566
6524.563613
6524.183634
6519.981506
6523.781302
6532.118503
6529.659811
6528.832797
6531.067971
6527.759913
6527.067009
6528.184596
6527.625802
6532.163207
6534.219567
6536.05241
6532.722
6530.822102
6529.995087
6527.916375
6532.386724
6534.800712
6537.125294
6532.029096
6535.001878
6536.477093
6534.554843
6531.760875
6531.090323
6534.063105
6536.342983
6535.940651
6535.270099
6533.638422
6533.280794
6533.906643
6534.64425
6534.979526
6534.286622
6533.794884
6534.286622
6533.794884
6532.274965
6533.549015
6533.705477
6533.034925
6531.984393
6534.465436
6539.025192
6537.304108
6534.800712
6534.286622
6529.793922
6530.866805
6540.880387
6545.440143
6537.751143
6534.13016
6538.242881
6540.209835
6533.549015
6525.144759
6525.055352
6530.486826
6530.956212
6528.832797
6531.157378
6539.561634
6535.471265
6534.800712
6526.888195
6530.15155
6534.621898
6536.968832
6536.208872
6535.381858
6541.81916
6542.400306
6543.517893
6543.629652
6552.503294
6550.648099
6553.017384
6553.576178
6554.805524
6553.106791
6549.306995
6554.224378
6558.717079
6555.498428
6554.313785
6555.856056
6561.332233
6564.953216
6554.358489
6550.670451
6553.844399
6555.453724
6556.280739
6555.364317
6555.967814
6558.940596
6557.711251
6554.11262
6553.263253
6555.252559
6553.911454
6558.001823
6556.750125
6559.164114
6555.476076
6554.939634
6558.627672
6561.376937
6551.385707
6551.497466
6555.073745
6557.264216
6559.924073
6554.537303
6556.079573
6561.667509
6560.236998
6560.125239
6556.526608
6555.453724
6556.414849
6555.52078
6557.867713
6561.578102
6564.506181
6563.187428
6558.158285
6559.231169
6558.426506
6559.633501
6555.230207
6556.995995
6560.371108
6555.699594
6554.470248
6556.571312
6559.834666
6563.254483
6554.984338
6551.720983
6558.113582
6558.627672
6554.492599
6557.510085
6556.459553
6557.912416
6559.946425
6559.298224
6556.928939
6551.206893
6554.984338
6551.586873
6547.787076
6563.500352
6566.070803
6564.506181
6570.228227
6569.535323
6575.302073
6580.331216
6582.074652
6593.563449
6594.904553
6594.032835
6587.863754
6587.863754
6590.25539
6592.065882
6590.456556
6597.989094
6599.307847
6591.14946
6588.467251
6591.887068
6595.530402
6597.475004
6595.463347
6595.172774
6592.17764
6590.769481
6587.774347
6589.7413
6595.306885
6599.21844
6596.826803
6598.436129
6600.939524
6595.977437
6590.724777
6588.064919
6589.271914
6590.657722
6596.200954
6596.133899
6595.798623
6595.150422
6593.362283
6594.077539
6589.562486
6588.668417
6594.971609
6592.647027
6594.591629
6599.710178
6595.530402
6591.752957
6592.892896
6594.748091
6591.797661
6593.272876
6595.820975
6599.933696
6598.32437
6589.383672
6584.063957
6586.835574
6594.301056
6588.869582
6583.996902
6585.427414
6580.711196
6580.375919
6580.532382
6582.007597
6581.649969
6585.092137
6580.621789
6577.134916
6581.962893
6581.560562
6581.15823
6585.807393
6587.81905
6583.281646
6584.242771
6582.387576
6578.453669
6581.784079
6586.187373
6586.232076
6582.409928
6582.901667
6582.633446
6584.332178
6588.377844
6587.975513
6588.154326
6584.108661
6581.962893
6584.063957
6586.366187
6588.310789
6587.372015
6585.405062
6590.657722
6587.260257
6589.115451
6591.350626
6594.457518
6596.469175
6596.424472
6588.087271
6580.957065
6575.927922
6574.855039
6565.668472
6564.75205
6561.734565
6553.173846
6556.794829
6561.622806
6563.612111
6564.327367
6561.131067
6563.053317
6563.34389
6561.823971
6562.896855
6561.756916
6561.108716
6562.673338
6568.037756
6569.378861
6561.511047
6563.120373
6562.941559
6558.627672
6558.9853
6560.326405
6560.482867
6559.387631
6564.774402
6567.635425
6562.896855
6563.85798
6561.131067
6557.219512
6558.940596
6557.018346
6562.986262
6564.305015
6560.035832
6559.834666
6558.292396
6560.616977
6557.733602
6561.980434
6563.969739
6563.701518
6561.600454
6564.014442
6564.640291
6562.919207
6556.54896
6555.587835
6553.397364
6555.409021
6555.297262
6555.744297
6561.622806
6563.522704
6558.202989
6559.745259
6559.722908
6557.174809
6559.700556
6559.298224
6559.231169
6562.740393
6564.640291
6567.881294
6572.530457
6562.852152
6555.52078
6551.206893
6542.512064
6540.768628
6538.153474
6532.230262
6526.910547
6525.815311
6528.855148
6527.357582
6522.194329
6526.530567
6530.352715
6531.447951
6527.022305
6529.101018
6530.643288
6526.06118
6521.121445
6526.508215
6529.101018
6531.559709
6530.464474
6527.067009
6529.101018
6532.051448
6524.027172
6521.099093
6525.144759
6528.430465
6527.514044
6527.782265
6531.157378
6534.733657
6526.128236
6524.116579
6526.351753
6530.039791
6528.676334
6524.675372
6525.904718
6526.776436
6527.871672
6531.157378
6527.178768
6525.860015
6528.117541
6527.491692
6526.396457
6525.234166
6525.971773
6525.077704
6523.11075
6528.788093
6530.28566
6528.475169
6524.630669
6522.775474
6525.435332
6524.89889
6524.116579
6529.950384
6525.234166
6518.819215
6520.517948
6522.820177
6524.183634
6525.189462
6526.195291
6530.196253
6532.342021
6527.961079
6524.764779
6522.909584
6524.474207
6531.112675
6527.402285
6524.65302
6530.822102
6528.475169
6525.122407
6525.748256
6531.090323
6530.196253
6524.295393
6520.830872
6516.494634
6516.896965
6518.416884
6517.679276
6517.902794
6516.226413
6516.427579
6516.181709
6521.590831
6517.366352
6516.673448
6516.896965
6516.539337
6509.252669
6509.14091
6516.695799
6531.962041
6533.10198
6531.738523
6536.745314
6540.075724
6545.395439
6554.537303
6560.885198
6565.713175
6570.719966
6573.402175
6578.520725
6572.150477
6570.809373
6575.25737
6574.072727
6570.496448
6571.569332
6578.72189
6578.230152
6582.834611
6582.186411
6575.726757
6574.564466
6581.962893
6585.069786
6585.226248
6586.075614
6582.164059
6582.0523
6587.707292
6589.897763
6589.204858
6584.510992
6589.786004
6593.295228
6590.814184
6586.835574
6586.008559
6590.233039
6587.483774
6585.628579
6589.406024
6586.880277
6590.300094
6585.829745
6585.963856
6591.52944
6597.162079
6590.545963
6589.808356
6587.461422
6592.624675
6593.921077
6592.356454
6591.775309
6596.357417
6592.021178
6587.215553
6588.534306
6593.004655
6594.457518
6592.602324
6595.619809
6605.700446
6606.90744
6600.492489
6592.401158
6598.614943
6600.425434
6592.579972
6593.183469
6598.883164
6602.012408
6602.258277
6600.738359
6599.039626
6596.312713
6594.457518
6597.743225
6600.827766
6600.403082
6600.514841
6600.157213
6602.191222
6604.649914
6603.979362
6598.547888
6602.213574
6604.359341
6609.656705
6609.097911
6595.016312
6591.976475
6588.556658
6583.527515
6577.201972
6573.558637
6570.38469
6565.981396
6563.701518
6568.797716
6572.105774
6569.580027
6573.223361
6574.497411
6573.871562
6572.105774
6569.736489
6564.528533
6567.344852
6568.037756
6567.993053
6570.965835
6575.212666
6571.234056
6565.534361
6562.874503
6565.64612
6569.580027
6567.121335
6564.349719
6567.993053
6568.998881
6567.478963
6569.423565
6573.737451
6572.686919
6566.584893
6562.561579
6563.232131
6567.70248
6569.065937
6569.334158
6568.328329
6567.970701
6566.249617
6555.073745
6557.152457
6566.048451
6568.775364
6569.602379
6571.658739
6571.949312
6577.492544
6570.89878
6566.562541
6572.843382
6571.54698
6568.820068
6564.506181
6563.075669
6564.103849
6570.943483
6573.446879
6568.484791
6568.775364
6571.725794
6566.316672
6563.120373
6565.199085
6568.842419
6574.475059
6577.671358
6583.728681
6582.387576
6574.586818
6583.415757
6586.813222
6585.293303
6575.480887
6573.826858
6581.627617
6585.315655
6581.381748
6579.906533
6584.466289
6582.409928
6581.895838
6581.851135
6579.280684
6582.074652
6580.621789
6581.180582
6582.231114
6582.387576
6582.231114
6579.057166
6580.442975
6583.661626
6585.025082
6582.298169
6580.398271
6587.975513
6586.835574
6580.89001
6579.61596
6584.108661
6584.35453
6583.818088
6581.225286
6582.097004
6582.789908
6584.645103
6584.980379
6580.219457
6581.292341
6584.309826
6580.733547
6579.772422
6580.666492
6586.65676
6589.048396
6592.468213
6592.870545
6581.851135
6574.966797
6568.775364
6572.284588
6572.195181
6563.880332
6566.629597
6572.798678
6572.888085
6572.105774
6572.351643
6566.026099
6566.249617
6569.892951
6567.210742
6562.002785
6567.367204
6570.407041
6568.551847
6568.954178
6571.636387
6571.859905
6567.948349
6567.255445
6570.988187
6570.831725
6570.183524
6567.993053
6571.770498
6572.508105
6568.797716
6567.657777
6571.859905
6570.787021
6571.681091
6567.05428
6564.215608
6563.567408
6569.535323
6568.305977
6564.126201
6563.366242
6566.473134
6566.6743
6568.663605
6572.06107
6565.288492
6561.93573
6564.819105
6566.6743
6560.885198
6548.1
6546.065992
6544.546073
6536.5665
6532.900814
6538.309936
6536.767666
6535.605375
6535.247747
6535.046582
6535.873596
6542.221492
6540.209835
6533.392553
6540.813332
6544.389611
6540.880387
6534.197215
6536.410038
6542.132085
6542.445009
6543.026154
6545.66366
6542.221492
6540.27689
6541.30507
6538.689916
6536.410038
6542.355602
6540.433352
6538.600509
6540.835683
6541.17096
6540.880387
6532.610241
6536.275928
6540.656869
6543.272024
6539.092247
6537.751143
6544.970756
6548.256463
6540.165131
6534.107808
6532.632593
6533.414904
6523.155454
6521.255555
6526.351753
6531.69382
6528.050486
6533.392553
6532.744352
6532.654945
6530.173901
6529.749218
6530.687991
6528.966907
6533.660773
6533.951346
6530.28566
6531.783227
6527.625802
6527.514044
6530.911509
6532.0738
6531.380896
6529.25748
6531.090323
6532.565538
6528.8775
6521.434369
6526.508215
6524.831834
6526.284698
6527.402285
6526.57527
6524.071875
6520.316782
6524.116579
6523.334268
6525.949422
6530.598584
6528.028134
6524.496558
6525.211814
6523.691895
6524.742427
6524.295393
6521.613183
6525.904718
6534.51014
6527.938727
6517.232241
6515.019419
6510.616125
6507.598639
6502.033055
6506.972791
6505.989314
6500.580192
6497.249782
6499.216735
6498.032093
6502.591849
6505.989314
6505.207003
6506.570459
6507.464529
6503.910602
6503.329456
6503.597677
6503.083587
6504.603506
6504.000009
6503.821195
6503.217698
6504.514099
6506.078721
6506.302238
6506.168128
6503.016532
6500.580192
6503.843546
6503.396511
6501.541317
6501.876593
6503.932953
6502.189517
6500.93782
6497.406244
6489.717244
6495.886325
6506.212831
6514.617087
6519.623878
6524.183634
6532.20791
6536.790018
6537.505274
6548.435277
6556.727774
6555.856056
6559.857018
6567.367204
6569.602379
6571.234056
6571.569332
6569.937655
6572.105774
6572.239884
6569.714137
6575.63735
6579.906533
6579.973588
6569.870599
6567.546018
6572.597512
6571.122297
6568.417736
6574.028024
6578.72189
6579.213629
6574.497411
6572.038719
6574.117431
6573.357472
6572.888085
6574.475059
6576.978454
6574.452707
6576.598475
6569.580027
6570.049413
6572.686919
6568.708309
6567.255445
6571.904608
6574.922094
6575.503239
6574.340948
6570.429393
6571.189352
6574.497411
6572.865733
6570.474097
6574.22919
6575.346777
6576.821992
6569.445916
6573.178658
6582.231114
6579.437146
6577.090213
6582.365225
6588.422547
6582.007597
6584.578047
6589.7413
6591.417681
6588.489603
6586.634408
6587.349664
6588.355492
6584.48864
6582.0523
6585.293303
6587.059091
6586.969684
6588.355492
6590.367149
6594.412815
6589.540135
6585.740338
6586.813222
6590.881239
6587.327312
6588.042568
6590.233039
6590.210687
6593.406986
6587.707292
6587.975513
6590.165983
6592.781138
6588.981341
6582.476983
6586.254428
6591.127108
6590.344797
6587.81905
6590.680074
6593.5858
6597.050321
6591.350626
6591.395329
6596.312713
6595.731568
6590.478908
6593.898725
6594.457518
6589.540135
6587.886106
6582.879315
6588.243733
6594.09989
6587.595533
6584.533344
6586.746167
6589.718949
6591.641199
6597.609114
6601.677132
6591.216515
6584.198068
6584.846268
6585.472117
6580.375919
6580.711196
6577.984283
6574.251541
6577.157268
6575.436184
6576.486716
6570.652911
6573.826858
6574.117431
6573.201009
6570.809373
6569.021233
6569.222399
6573.580989
6572.105774
6570.474097
6573.692748
6576.643178
6572.776326
6573.625693
6577.090213
6571.703443
6568.373033
6569.937655
6571.099945
6568.618902
6568.417736
6573.782155
6579.548905
6578.431318
6574.162134
6570.787021
6569.736489
6575.547943
6571.703443
6569.691786
6573.960969
6576.598475
6574.720928
6575.458536
6574.408004
6573.692748
6569.62473
6568.551847
6567.009576
6571.658739
6572.575161
6570.921131
6572.82103
6575.436184
6575.436184
6568.373033
6565.735527
6564.506181
6570.652911
6567.367204
6568.350681
6573.33512
6572.798678
6570.407041
6568.730661
6570.541152
6570.496448
6570.183524
6570.563504
6571.122297
6577.067861
6570.921131
6566.026099
6570.563504
6569.267102
6564.081498
6559.49939
6572.172829
6578.833649
6576.039681
6577.31373
6586.746167
6590.054225
6585.360358
6585.338007
6584.689806
6583.683978
6587.975513
6587.573181
6585.293303
6585.695635
6588.221382
6590.925943
6589.562486
6587.975513
6590.009521
6588.422547
6582.789908
6583.572219
6588.981341
6590.523611
6583.996902
6583.952198
6590.434204
6589.026044
6583.46046
6578.833649
6581.515858
6584.242771
6585.8968
6587.997864
6589.786004
6587.506126
6588.757824
6583.818088
6583.058129
6584.622751
6589.048396
6590.613018
6589.0931
6587.975513
6582.409928
6584.466289
6588.422547
6586.992036
6591.887068
6590.434204
6588.266085
6588.891934
6588.400196
6586.209725
6582.275818
6588.33314
6593.429338
6588.131975
6580.778251
6584.019254
6587.059091
6581.672321
6581.515858
6588.511954
6594.34576
6590.143632
6580.264161
6580.912361
6586.321483
6582.834611
6574.385652
6571.770498
6567.590722
6569.423565
6567.210742
6568.708309
6573.692748
6573.826858
6568.21657
6569.557675
6573.133954
6575.346777
6574.296245
6570.5188
6570.630559
6575.458536
6579.861829
6575.167963
6576.821992
6577.671358
6574.475059
6573.692748
6575.63735
6575.77146
6571.79285
6569.267102
6572.731623
6571.614036
6572.575161
6574.787983
6571.055242
6574.162134
6572.686919
6573.357472
6571.345815
6571.725794
6569.870599
6571.211704
6569.647082
6574.787983
6575.726757
6576.911399
6576.821992
6571.122297
6569.267102
6568.618902
6572.351643
6569.669434
6573.804507
6577.425489
6568.820068
6570.876428
6575.346777
6575.346777
6578.096041
6573.245713
6571.681091
6570.541152
6568.574198
6569.870599
6573.737451
6574.273893
6577.201972
6573.46923
6573.111602
6574.564466
6578.476021
6578.565428
6575.816164
6566.070803
6557.979471
6553.687937
6556.951291
6557.644195
6551.788038
6550.245768
6549.664623
6553.822047
6555.207855
6560.281701
6563.478001
6562.092192
6562.896855
6557.554788
6552.436239
6547.250634
6551.698631
6552.995032
6552.123314
6554.559655
6558.158285
6558.158285
6562.203951
6567.769536
6569.602379
6559.320576
6556.928939
6562.069841
6569.222399
6566.696652
6564.88616
6569.825896
6569.267102
6566.361376
6563.969739
6566.316672
6564.61794
6564.729698
6566.584893
6564.662643
6564.282663
6566.875466
6565.13203
6564.126201
6560.818143
6564.282663
6561.622806
6559.834666
6562.8298
6566.406079
6559.030003
6560.415812
6557.130105
6559.186466
6567.747184
6563.679166
6560.795791
6560.639329
6560.192294
6559.924073
6565.355547
6571.010538
6565.869637
6556.258387
6555.051393
6562.181599
6563.366242
6563.254483
6558.493562
6562.293358
6562.673338
6558.650024
6562.919207
6558.9853
6557.934768
6557.666547
6559.097059
6556.481905
6557.44303
6555.856056
6557.867713
6562.8298
6563.567408
6557.040698
6549.865788
6550.223416
6552.279777
6558.09123
6553.844399
6553.307957
6556.146628
6555.610187
6556.124277
6548.1
6543.808465
6550.26812
6562.159248
6551.072782
6546.133047
6550.983375
6552.592701
6552.279777
6548.390573
6554.202027
6555.341966
6553.062088
6552.972681
6559.49939
6559.655852
6553.196198
6546.69184
6550.759858
6552.123314
6551.67628
6554.134971
6557.666547
6558.784134
6558.627672
6553.799695
6556.68307
6559.320576
6556.750125
6553.777343
6554.671413
6559.544094
6558.202989
6557.130105
6558.538265
6558.806486
6556.928939
6556.571312
6557.331271
6558.292396
6555.699594
6552.346832
6557.465381
6555.632538
6551.788038
6551.564521
6551.385707
6552.771515
6556.146628
6552.749163
6549.999899
6553.397364
6556.973643
6554.738468
6549.821085
6550.26812
6556.794829
6559.767611
6553.509123
6554.000861
6558.046527
6554.671413
6549.642271
6551.497466
6551.385707
6555.453724
6553.73264
6552.100963
6553.643233
6554.738468
6553.665585
6550.156361
6550.245768
6549.843436
6548.301166
6556.906588
6557.644195
6557.085402
6563.455649
6567.70248
6566.406079
6566.54019
6567.948349
6565.400251
6560.169942
6561.600454
6565.847285
6562.941559
6563.276835
6569.222399
6567.657777
6567.300149
6564.61794
6567.546018
6565.802582
6561.108716
6563.790925
6568.887123
6570.675262
6571.569332
6568.305977
6565.26614
6569.222399
6569.11064
6567.233094
6567.836591
6570.205876
6571.681091
6566.808411
6567.858942
6569.311806
6566.607245
6564.819105
6569.267102
6575.458536
6577.939579
6575.123259
6567.367204
6570.451745
6572.128126
6571.189352
6569.602379
6567.300149
6574.989149
6584.242771
6584.86862
6565.444954
6559.946425
6558.001823
6551.028079
6551.788038
6547.630614
6545.618957
6537.773494
6541.260367
6543.629652
6543.674355
6540.321593
6536.164169
6535.851244
6539.360468
6541.841512
6543.406134
6538.801675
6538.645212
6541.059201
6541.550939
6545.373088
6547.988242
6550.536341
6552.726811
6552.726811
6548.882311
6545.261329
6542.668526
6540.165131
6545.618957
6545.507198
6544.009631
6539.114599
6538.86873
6542.109733
6538.779323
6538.466399
6543.450838
6542.914396
6543.517893
6542.154436
6543.495541
6548.99407
6542.84734
6537.415867
6543.22732
6557.688899
6553.173846
6538.108771
6533.347849
6530.308012
6527.603451
6526.754084
6524.585965
6528.922204
6534.577195
6530.911509
6525.524738
6528.966907
6530.017439
6525.167111
6527.670506
6531.716172
6531.537358
6528.989259
6529.883329
6531.067971
6529.659811
6527.067009
6522.350791
6526.530567
6529.324535
6531.246785
6532.118503
6526.597622
6528.519872
6530.933861
6530.419771
6530.687991
6535.180692
6533.526663
6527.402285
6529.033962
6532.789055
6528.832797
6528.653983
6525.949422
6530.620936
6532.654945
6535.292451
6535.717134
6529.860977
6521.993163
6515.712323
6510.146738
6507.084549
6504.558802
6497.138023
6491.46068
6492.846488
6494.120538
6492.712378
6490.656017
6493.114709
6493.271171
6486.230372
6487.571476
6490.097224
6488.711415
6491.59479
6491.214811
6491.527735
6493.628799
6489.203154
6491.84066
6490.4325
6488.979636
6487.929104
6489.359616
6484.41988
6491.035997
6493.964075
6489.91841
6489.583133
6485.671578
6487.169145
6486.319779
6484.866915
6487.2362
6500.759006
6512.583078
6508.358599
6507.755102
6515.667619
6519.087436
6525.077704
6529.168073
6535.203044
6537.997012
6543.450838
6542.780285
6548.47998
6555.543131
6554.917282
6555.1408
6555.27491
6553.21855
6557.57714
6555.945463
6553.21855
6551.564521
6549.754029
6552.503294
6556.012518
6553.173846
6551.43041
6553.330309
6553.531474
6557.465381
6557.711251
6554.649062
6553.106791
6555.006689
6558.337099
6555.341966
6550.424582
6552.302128
6559.700556
6562.628634
6557.107753
6556.951291
6559.722908
6560.326405
6557.845361
6557.264216
6557.107753
6556.526608
6553.576178
6556.571312
6560.326405
6552.905625
6552.056259
6553.263253
6557.040698
6557.912416
6553.196198
6552.905625
6553.240902
6559.208817
6555.1408
6555.27491
6554.000861
6556.03487
6555.230207
6556.906588
6555.923111
6556.012518
6553.710288
6554.224378
6556.526608
6558.761782
6557.666547
6555.677242
6555.52078
6560.102887
6565.064974
6567.277797
6552.123314
6546.17775
6551.341003
6552.682108
6545.618957
6543.652003
6544.300204
6540.701573
6542.914396
6548.658794
6550.335175
6550.26812
6543.450838
6543.942576
6548.569387
6545.574253
6543.6073
6542.556768
6546.155399
6545.976585
6544.948404
6548.278814
6547.518855
6549.686974
6545.306032
6542.33325
6547.563559
6547.652966
6545.507198
6545.283681
6546.490675
6547.921186
6545.082515
6543.048506
6544.12139
6551.162189
6551.117486
6546.602434
6542.288547
6547.742372
6548.144704
6543.406134
6544.926053
6552.615053
6551.564521
6548.815256
6548.748201
6553.799695
6552.659756
6544.50137
6539.7628
6538.645212
6541.059201
6539.24871
6533.437256
6535.493617
6539.136951
6538.421695
6540.813332
6545.127218
6543.406134
6541.148608
6535.784189
6537.169997
6534.063105
6527.938727
6529.525701
6531.649116
6534.174864
6535.135989
6535.560672
6536.790018
6536.790018
6535.471265
6534.800712
6529.816273
6535.247747
6535.739486
6536.454742
6538.086419
6537.237053
6542.266195
6540.366297
6535.448913
6541.707401
6540.27689
6535.247747
6535.02423
6533.571366
6537.862901
6543.406134
6532.610241
6534.912471
6538.131122
6535.314803
6535.225396
6538.578157
6539.293413
6536.700611
6537.192349
6537.527625
6539.449875
6537.259404
6540.455704
6537.572329
6538.198178
6539.293413
6543.22732
6542.57912
6543.294375
6541.617995
6539.919262
6542.512064
6547.518855
6543.808465
6540.098076
6539.293413
6538.86873
6544.903701
6553.889102
6548.211759
6541.17096
6535.53832
6528.296355
6526.06118
6527.84932
6524.340096
6518.528642
6517.232241
6515.80173
6515.511157
6518.550994
6516.919317
6515.444102
6515.354695
6516.405227
6513.767721
6511.867823
6513.588907
6513.901831
6517.47811
6515.533509
6511.465491
6516.047599
6518.260422
6517.366352
6514.639439
6516.762855
6519.757988
6513.700666
6511.085512
6514.550032
6517.85809
6517.187538
6512.426616
6514.460625
6516.338172
6515.645267
6514.885308
6510.727884
6516.248765
6517.232241
6511.085512
6513.208927
6513.834776
6512.739541
6512.270154
6511.107863
6517.567517
6519.892099
6515.712323
6512.98541
6512.583078
6514.505328
6516.293468
6516.405227
6516.248765
6514.281811
6510.012628
6509.14091
6513.208927
6517.701628
6512.98541
6509.699703
6513.11952
6520.942631
6515.689971
6503.485918
6505.139948
6521.926108
6530.911509
6526.016477
6527.290526
6537.259404
6544.50137
6547.474152
6547.384745
6550.871617
6555.900759
6554.559655
6548.1
6551.519817
6557.510085
6552.547998
6552.458591
6557.845361
6562.807448
6558.851189
6555.27491
6553.35266
6556.593663
6552.592701
6548.524684
6551.095134
6555.65489
6558.828838
6553.509123
6551.586873
6553.442067
6552.547998
6551.832742
6557.06305
6559.030003
6556.504256
6554.447896
6557.711251
6556.906588
6556.772477
6555.856056
6551.318652
6552.927977
6557.465381
6555.721945
6554.961986
6557.465381
6563.053317
6559.722908
6554.961986
6552.369184
6556.794829
6554.62671
6554.537303
6558.046527
6564.863809
6571.144649
6557.688899
6544.903701
6546.647137
6546.982413
6540.858035
6536.164169
6534.219567
6531.716172
6533.459608
6534.845416
6539.159303
6542.042678
6537.058239
6534.085457
6532.722
6537.192349
6535.717134
6532.900814
6535.761837
6542.936747
6542.668526
6534.800712
6530.79975
6535.02423
6538.824026
6535.895948
6534.107808
6538.153474
6541.17096
6537.97466
6532.051448
6528.497521
6531.380896
6534.577195
6538.198178
6538.533454
6536.722962
6533.928994
6535.873596
6535.113637
6532.476131
6532.543186
6534.823064
6536.678259
6536.43239
6533.61607
6535.40421
6530.486826
6533.660773
6533.660773
6530.755047
6537.482922
6547.138875
6550.625748
6548.524684
6542.400306
6535.292451
6535.717134
6531.805579
6533.437256
6535.448913
6536.633555
6536.030058
6535.247747
6534.778361
6531.157378
6535.337154
6533.191387
6541.036849
6545.753067
6540.746276
6537.549977
6535.694782
6540.656869
6538.265233
6537.929957
6538.287585
6540.612166
6543.629652
6538.756971
6532.543186
6533.370201
6533.884291
6536.968832
6538.48875
6541.103904
6543.115561
6540.321593
6533.012573
6533.48196
6537.818198
6536.857073
6534.621898
6535.784189
6537.684087
6539.807503
6538.466399
6538.108771
6541.796808
6538.689916
6539.204006
6538.913433
6535.9183
6539.315765
6541.238015
6539.047544
6540.27689
6540.701573
6536.365335
6536.253576
6537.639384
6540.031021
6536.790018
6537.125294
6537.169997
6536.119465
6539.494579
6537.32646
6534.554843
6537.035887
6536.231224
6536.633555
6536.678259
6542.288547
6544.12139
6542.288547
6538.175826
6534.64425
6536.722962
6535.359506
6535.761837
6539.718096
6539.181654
6538.86873
6533.392553
6542.109733
6540.299242
6536.611204
6535.627727
6537.684087
6539.360468
6541.327422
6536.164169
6539.472227
6539.941614
6539.114599
6536.857073
6536.298279
6536.812369
6539.7628
6535.113637
6528.922204
6533.280794
6537.795846
6532.58789
6533.593718
6536.141817
6536.812369
6533.638422
6535.426561
6535.359506
6536.477093
6533.549015
6527.625802
6530.308012
6532.766704
6536.298279
6535.046582
6536.812369
6538.913433
6538.600509
6534.800712
6531.045619
6534.867768
6537.013535
6536.454742
6535.247747
6533.504311
6532.632593
6533.057276
6534.979526
6536.745314
6532.051448
6527.625802
6529.011611
6535.627727
6536.477093
6536.231224
6530.375067
6531.894986
6528.274003
6526.217643
6529.860977
6529.39159
6530.062143
6534.64425
6534.823064
6530.442122
6530.844454
6540.388649
6535.471265
6521.389666
6519.489767
6521.032038
6527.067009
6527.625802
6525.725904
6522.708419
6520.182672
6520.67441
6520.517948
6524.809483
6526.284698
6528.318707
6526.95525
6526.329401
6527.961079
6525.122407
6523.714247
6524.764779
6528.519872
6526.798788
6525.211814
6526.754084
6527.98343
6526.172939
6526.731733
6530.039791
6533.48196
6529.950384
6527.424637
6526.30705
6525.189462
6526.396457
6526.798788
6529.033962
6534.621898
6533.459608
6530.643288
6525.681201
6524.00482
6523.669544
6525.189462
6526.083532
6531.336192
6531.31384
6526.128236
6520.629706
6526.642326
6532.364372
6524.720076
6520.897927
6524.362448
6528.296355
6525.949422
6523.937765
6526.95525
6525.457683
6523.826006
6520.093265
6518.930974
6524.295393
6526.619974
6526.95525
6533.75018
6536.924128
6532.163207
6526.754084
6522.887233
6523.714247
6520.830872
6519.601526
6518.528642
6522.97664
6525.837663
6525.301221
6520.428541
6522.350791
6526.57527
6522.820177
6519.422712
6520.540299
6523.446026
6523.49073
6526.865843
6526.284698
6523.62484
6526.552919
6521.143797
6517.746331
6524.541262
6522.171977
6524.049523
6524.787131
6530.352715
6527.759913
6521.724942
6523.11075
6526.30705
6525.681201
6521.479073
6523.937765
6522.149625
6521.456721
6525.211814
6526.06118
6525.502387
6530.486826
6528.8775
6522.775474
6522.998991
6523.222509
6525.122407
6521.546128
6523.781302
6528.8775
6530.889157
6526.687029
6523.401323
6519.713285
6516.293468
6520.316782
6533.437256
6536.365335
6533.884291
6532.58789
6537.885253
6539.360468
6543.584948
6543.897872
6541.796808
6544.613128
6553.777343
6546.17775
6544.948404
6550.78221
6557.331271
6556.16898
6557.264216
6556.906588
6556.906588
6554.537303
6551.005727
6549.597567
6551.139838
6554.134971
6553.35266
6552.011556
6549.977547
6548.703497
6550.26812
6549.262291
6554.894931
6553.665585
6550.715154
6549.038774
6547.407096
6549.754029
6553.956157
6557.152457
6557.241864
6553.531474
6549.88814
6549.932843
6551.564521
6554.62671
6548.725849
6549.955195
6551.229245
6554.380841
6557.152457
6556.258387
6554.604358
6555.252559
6553.889102
6551.452762
6547.228282
6545.440143
6547.407096
6555.699594
6560.147591
6563.008614
6560.885198
6566.920169
6572.239884
6573.536286
6578.051338
6580.152402
6581.113527
6577.380786
6579.593608
6582.387576
6579.973588
6582.119355
6582.633446
6578.945408
6577.5596
6573.089251
6570.339986
6571.167001
6563.165076
6561.734565
6569.088288
6570.652911
6567.836591
6563.992091
6565.087326
6567.590722
6567.255445
6566.830762
6564.394422
6572.977492
6577.827821
6575.346777
6571.278759
6570.764669
6573.133954
6568.529495
6555.587835
6555.967814
6558.761782
6559.857018
6562.628634
6562.159248
6560.952253
6563.030966
6562.181599
6567.121335
6570.474097
6567.747184
6568.59655
6571.658739
6572.284588
6564.483829
6560.281701
6559.611149
6558.672376
6553.442067
6551.050431
6558.806486
6579.280684
6589.98717
6580.420623
6584.578047
6598.167908
6604.292286
6605.208707
6604.404045
6604.292286
6600.492489
6602.213574
6594.256353
6582.231114
6583.169887
6587.148498
6586.969684
6578.945408
6583.907495
6586.299132
6573.7151
6562.740393
6556.437201
6542.892044
6530.084494
6527.022305
6526.038829
6520.495596
6517.880442
6520.67441
6520.830872
6518.528642
6517.791035
6523.066047
6530.419771
6535.02423
6535.225396
6536.968832
6545.306032
6545.596605
6551.765686
6558.694727
6562.44982
6566.16021
6571.390518
6568.060108
6560.102887
6560.773439
6563.276835
6562.226303
6550.91632
6541.930919
6537.527625
6524.3848
6529.77157
6538.578157
6542.892044
6543.674355
6545.060163
6546.513027
6535.784189
6514.125349
6496.84745
6499.060273
6518.662753
6523.043695
6515.198233
6513.432445
6515.891137
6531.202082
6528.676334
6517.20989
6529.749218
6527.894023
6516.338172
6522.306087
6527.871672
6519.467416
6518.394532
6523.870709
6522.149625
6529.033962
6528.475169
6526.664677
6532.051448
6531.090323
6512.963058
6505.855203
6521.456721
6530.889157
6525.368276
6522.775474
6517.925145
6513.924183
6511.554898
6506.212831
6509.342076
6522.887233
6513.767721
6505.318762
6510.347904
6510.638477
6504.894078
6503.418863
6499.306142
6490.924238
6495.908677
6504.692913
6497.249782
6493.092357
6499.574363
6502.837718
6505.788148
6498.233259
6498.970866
6505.095244
6494.835793
6486.632703
6481.424747
6480.597732
6470.494744
6472.215828
6486.34213
6497.987389
6496.668636
6491.281866
6489.180802
6489.113747
6480.865953
6471.433517
6463.699813
6458.804781
6464.035089
6468.237217
6480.128346
6486.498593
6488.487898
6485.112785
6477.11086
6479.077814
6476.105032
6476.127383
6482.609389
6490.767776
6490.253686
6479.346034
6475.613293
6470.427688
6471.657034
6477.289674
6477.937875
6485.582171
6487.504421
6495.081663
6500.267267
6503.061235
6502.591849
6500.870764
6494.724035
6491.997122
6485.582171
6480.240104
6471.321758
6472.75227
6472.506401
6468.438383
6461.576398
6460.794087
6460.45881
6456.971938
6451.316947
6451.205188
6455.720241
6462.358709
6462.470467
6461.755212
6465.644415
6462.984558
6457.038993
6455.474371
6457.37427
6462.716337
6459.967072
6452.032203
6456.368441
6457.575435
6455.653185
6455.407316
6456.837828
6461.86697
6464.839752
6464.973863
6462.738688
6463.811572
6465.264435
6458.491857
6462.157543
6468.058403
6468.281921
6457.597787
6450.042897
6455.384964
6460.302348
6458.178932
6453.775639
6463.431592
6468.348976
6466.404374
6463.364537
6465.130325
6468.39368
6468.952473
6468.706604
6472.305235
6476.775584
6476.462659
6477.915523
6478.027282
6478.206095
6481.827078
6479.390738
6476.306197
6476.999101
6479.92718
6477.11086
6475.546238
6478.116689
6480.776546
6481.715319
6481.737671
6477.62495
6482.140003
6481.245933
6476.015625
6479.16722
6479.524848
6479.41309
6474.451002
6472.796973
6473.735747
6492.108881
6496.020436
6495.752215
6496.914506
6497.830927
6499.797881
6510.325552
6518.573346
6526.351753
6529.659811
6531.962041
6536.007707
6549.083477
6555.967814
6561.578102
6568.820068
6572.396347
6573.558637
6576.28555
6579.23598
6574.296245
6579.884181
6576.79964
6577.917227
6581.493507
6581.337044
6581.784079
6581.493507
6584.801565
6584.063957
6583.907495
6581.001768
6582.231114
6584.756861
6580.018291
6574.698576
6578.028986
6583.348701
6584.823917
6584.041605
6575.682053
6579.034815
6579.459498
6578.811297
6579.99594
6580.621789
6582.968722
6582.588742
6580.577085
6584.935675
6584.466289
6582.700501
6582.074652
6582.722853
6583.616922
6584.35453
6586.321483
6596.603286
6595.150422
6581.962893
6571.725794
6564.282663
6562.203951
6549.329346
6536.521797
6528.8775
6523.423675
6515.891137
6504.938782
6502.211869
6497.115671
6490.611314
6475.278017
6467.387851
6470.494744
6470.539447
6465.219732
6466.516133
6468.550142
6469.690081
6471.209999
6468.237217
6468.90777
6470.405337
6464.862104
6462.515171
6467.544313
6467.745479
6469.511267
6465.130325
6461.129363
6464.772697
6463.833924
6459.855313
6457.061345
6461.486991
6464.839752
6463.208075
6464.951511
6468.930122
6466.113802
6467.231389
6464.258607
6466.829058
6468.572494
6466.739651
6463.051613
6464.660938
6465.95734
6468.214866
6465.264435
6463.923331
6464.862104
6464.929159
6463.185723
6464.705642
6470.025357
6470.405337
6467.857238
6463.185723
6466.583188
6466.404374
6467.387851
6468.863066
6469.488915
6467.767831
6468.371328
6465.733822
6469.265398
6467.812534
6462.582226
6466.002043
6467.410203
6468.90777
6467.63372
6463.364537
6470.405337
6468.52779
6465.443249
6457.441325
6463.409241
6467.231389
6465.06327
6467.320796
6471.634683
6468.773659
6464.817401
6465.622063
6472.931084
6477.468488
6478.228447
6471.992311
6464.504476
6464.795049
6469.846543
6474.205133
6470.83002
6469.310101
6467.834886
6468.952473
6466.538485
6464.884456
6467.365499
6470.740613
6474.942741
6472.305235
6468.326624
6467.678424
6462.671633
6462.291653
6469.287749
6468.505438
6465.130325
6466.784354
6473.422822
6467.141982
6462.895151
6461.419935
6460.637624
6469.131287
6467.343148
6468.304273
6471.522924
6469.243046
6467.454906
6466.739651
6466.09145
6464.102145
6462.649281
6462.962206
6461.978729
6466.560837
6469.533619
6465.555008
6460.637624
6464.54918
6469.086584
6469.198342
6471.34411
6465.778526
6457.687194
6451.182836
6454.669709
6465.95734
6463.766869
6453.52977
6458.290691
6461.822267
6460.347052
6460.190589
6460.883494
6465.510305
6465.510305
6461.084659
6459.475334
6463.923331
6470.45004
6472.081718
6469.019529
6466.940816
6471.835848
6472.148773
6461.576398
6463.029261
6469.175991
6471.545276
6468.751308
6471.634683
6467.253741
6469.310101
6466.650244
6466.382023
6468.237217
6471.768793
6471.612331
6463.65511
6461.308177
6462.872799
6466.002043
6467.857238
6463.699813
6465.71147
6468.818363
6467.63372
6469.488915
6471.746441
6467.87959
6464.482124
6460.682328
6468.863066
6477.200267
6472.439345
6466.002043
6465.443249
6472.528752
6475.032148
6481.804726
6485.17984
6483.145831
6487.169145
6490.276037
6487.817346
6488.532601
6487.906753
6490.253686
6487.370311
6494.344055
6490.208982
6484.039901
6486.811517
6489.292561
6487.862049
6486.498593
6488.532601
6492.779433
6487.862049
6484.218715
6482.564686
6491.773604
6493.561744
6487.035035
6480.374215
6482.698796
6486.856221
6493.226468
6489.963113
6495.104014
6492.935895
6485.738633
6484.933971
6483.369348
6488.398491
6494.567572
6491.550087
6482.274113
6484.218715
6491.192459
6488.174974
6490.834831
6492.086529
6492.220639
6489.627837
6481.156526
6485.381005
6487.526773
6484.553991
6487.392662
6486.431537
6488.085567
6491.415976
6487.99616
6485.269247
6488.398491
6492.533564
6487.683235
6490.633665
6491.706549
6490.879535
6484.978674
6480.396566
6490.05252
6492.444157
6488.398491
6485.559819
6487.862049
6490.298389
6488.487898
6486.610351
6492.041825
6495.729863
6487.571476
6486.588
6487.973808
6487.415014
6486.789165
6491.304218
6489.091395
6492.198288
6493.829965
6486.900924
6487.973808
6490.656017
6491.617142
6494.366407
6493.427633
6487.459718
6487.325607
6489.404319
6487.571476
6490.320741
6493.271171
6490.477203
6487.169145
6488.756119
6492.86884
6494.589924
6494.165241
6492.86884
6494.500517
6494.366407
6486.900924
6484.710453
6485.939799
6488.331436
6491.818308
6495.931029
6496.825099
6500.267267
6498.300314
6497.339189
6510.102035
6512.381913
6504.223526
6498.859107
6508.448006
6507.844509
6498.970866
6501.854241
6506.369293
6507.062198
6505.050541
6506.056369
6510.191442
6513.052465
6514.415921
6511.621953
6508.448006
6504.201174
6505.005837
6499.797881
6499.931991
6504.312933
6504.648209
6500.311971
6498.546183
6500.490785
6503.932953
6502.48009
6498.881459
6506.123424
6503.843546
6503.128291
6503.620029
6506.19048
6508.738578
6511.934878
6503.664732
6502.48009
6506.235183
6504.558802
6498.233259
6502.256573
6508.045674
6517.165186
6511.465491
6499.082625
6495.126366
6489.292561
6485.962151
6482.87761
6482.564686
6479.904828
6472.796973
6466.762002
6467.521962
6469.354805
6466.404374
6464.906808
6471.187648
6476.149735
6471.768793
6469.108935
6471.142944
6475.546238
6475.948569
6472.908732
6469.310101
6474.629816
6476.686177
6472.75227
6473.489877
6475.903866
6478.720186
6476.462659
6477.669654
6480.284808
6477.24497
6475.546238
6474.719223
6473.668691
6478.586075
6476.037976
6474.071023
6479.949532
6472.104069
6470.092412
6472.573456
6474.719223
6478.228447
6474.026319
6473.26636
6473.847505
6476.97675
6477.580247
6475.0545
6475.590941
6472.23818
6469.645377
6467.544313
6470.919427
6471.120592
6473.244008
6471.522924
6472.260531
6474.227485
6471.969959
6472.75227
6470.986482
6471.657034
6476.887343
6473.78045
6469.131287
6470.695909
6472.864029
6471.634683
6475.367424
6471.187648
6470.584151
6471.634683
6474.071023
6474.383947
6469.623026
6471.321758
6471.522924
6470.248874
6475.501534
6473.467526
6471.366462
6466.784354
6468.304273
6477.848468
6479.904828
6476.21679
6478.00493
6483.369348
6480.374215
6473.601636
6476.21679
6477.24497
6476.954398
6480.418918
6482.162354
6482.7435
6483.838735
6479.971883
6477.289674
6479.457793
6477.535543
6476.954398
6480.463622
6483.3917
6485.17984
6481.782375
6480.798898
6483.458755
6477.289674
6478.586075
6481.871782
6480.776546
6479.658959
6483.212886
6481.84943
6481.312988
6486.006854
6485.962151
6480.485973
6479.815421
6480.709491
6477.893171
6478.071985
6481.134174
6487.370311
6490.320741
6485.068081
6485.805689
6487.75029
6485.783337
6487.683235
6487.280904
6486.409186
6489.270209
6487.571476
6487.124442
6487.906753
6489.02434
6487.437366
6485.783337
6486.520944
6488.398491
6492.891192
6491.326569
6492.310046
6493.673503
6491.147756
6482.698796
6484.15166
6486.878572
6488.622008
6487.035035
6486.386834
6486.833869
6487.415014
6488.532601
6486.163317
6489.985465
6498.657942
6496.668636
6493.651151
6489.560782
6487.906753
6488.26438
6484.598694
6485.336302
6491.550087
6491.97477
6487.839697
6481.894133
6485.045729
6491.773604
6493.338226
6496.020436
6503.172994
6502.658904
6502.636552
6502.122462
6504.737616
6508.11273
6505.609334
6504.178823
6506.413997
6504.894078
6501.429558
6501.988352
6504.759968
6505.989314
6504.424692
6502.725959
6504.737616
6506.861032
6503.217698
6502.48009
6502.390683
6507.397474
6510.772587
6508.470357
6506.056369
6506.749273
6505.8105
6502.904773
6503.217698
6506.615163
6512.448968
6506.950439
6501.250744
6504.491747
6504.871727
6508.135081
6505.698741
6508.738578
6510.437311
6507.598639
6504.312933
6501.362503
6507.73275
6509.990276
6506.503404
6507.308067
6509.655
6514.170052
6507.442177
6508.850337
6512.046637
6507.799805
6507.486881
6506.19048
6508.090378
6510.68318
6509.118558
6507.620991
6508.962096
6509.610296
6508.738578
6503.620029
6504.625857
6509.118558
6512.873651
6515.891137
6520.942631
6511.57725
6499.909639
6490.633665
6492.377101
6493.89702
6491.885363
6483.324645
6483.704625
6485.068081
6486.275075
6486.565648
6484.062253
6487.571476
6486.833869
6482.832907
6483.481107
6487.772642
6488.64436
6490.119575
6483.615218
6484.732805
6484.621046
6482.564686
6481.089471
6482.944665
6486.744462
6488.867878
6490.499555
6487.303255
6481.33534
6481.156526
6480.754194
6484.688101
6489.113747
6490.991293
6485.403357
6485.336302
6488.64436
6492.891192
6489.806651
6483.212886
6486.431537
6490.097224
6487.079738
6484.66575
6487.035035
6489.985465
6492.511212
6490.05252
6489.113747
6489.203154
6487.482069
6487.727939
6485.045729
6491.97477
6496.690988
6492.332398
6486.520944
6486.275075
6487.951456
6488.063215
6485.984503
6488.398491
6495.238125
6492.242991
6486.945628
6488.711415
6492.108881
6493.204116
6494.098186
6494.41111
6494.992256
6493.226468
6488.018511
6485.202191
6492.086529
6496.981561
6492.108881
6492.198288
6493.427633
6496.243953
6493.204116
6490.410148
6493.829965
6494.679331
6491.907715
6489.270209
6491.058349
6496.132195
6495.193421
6493.740558
6494.500517
6494.098186
6493.047654
6488.51025
6492.220639
6497.003913
6499.239087
6496.556878
6492.35475
6494.433462
6498.009741
6499.507308
6494.724035
6498.747349
6497.09332
6493.427633
6492.511212
6498.680293
6499.462604
6494.992256
6496.959209
6502.725959
6502.077759
6496.690988
6493.047654
6491.214811
6500.155509
6502.99418
6497.518003
6495.618104
6496.690988
6500.110805
6497.674465
6501.07193
6507.308067
6500.848413
6492.645322
6494.992256
6500.401378
6498.322665
6497.070968
6497.920334
6507.665695
6513.834776
6509.632648
6501.161337
6503.664732
6503.262401
6498.792052
6495.238125
6498.076796
6498.277962
6494.500517
6497.22743
6499.395549
6498.345017
6497.294485
6502.256573
6503.128291
6501.921296
6505.274058
6503.37416
6498.25561
6504.111767
6508.805634
6501.496613
6496.601581
6500.580192
6506.503404
6507.755102
6502.278924
6504.134119
6508.872689
6503.329456
6500.133157
6501.317799
6500.602543
6500.133157
6502.6142
6501.362503
6501.630724
6502.591849
6505.318762
6499.060273
6499.239087
6504.067064
6500.714302
6503.843546
6510.191442
6512.158395
6503.955305
6498.63559
6501.876593
6508.917392
6504.715264
6500.803709
6506.861032
6513.544203
6508.157433
6503.038884
6500.580192
6505.408168
6505.564631
6503.575325
6505.341113
6506.279887
6506.83868
6506.123424
6505.631686
6502.636552
6503.709436
6500.155509
6496.690988
6501.608372
6504.78232
6502.725959
6493.271171
6493.874668
6498.166203
6497.205078
6494.612276
6498.345017
6503.061235
6501.518965
6494.679331
6494.835793
6499.52966
6496.288657
6497.428596
6497.674465
6500.624895
6504.201174
6501.138985
6497.674465
6498.970866
6499.484956
6501.004875
6502.457738
6500.200212
6501.183689
6500.669599
6502.882421
6499.127328
6500.021398
6500.021398
6498.1215
6495.998084
6499.462604
6506.570459
6502.703607
6498.345017
6501.138985
6499.954343
6499.060273
6500.93782
6501.474261
6498.613238
6491.326569
6498.009741
6499.216735
6501.541317
6500.021398
6496.735692
6502.368331
6503.50827
6494.433462
6494.232296
6497.138023
6504.849375
6503.172994
6496.154546
6495.327532
6497.22743
6495.998084
6495.036959
6495.394587
6499.373197
6499.820232
6502.658904
6497.473299
6500.267267
6500.759006
6493.673503
6491.013645
6499.52966
6503.195346
6498.724997
6495.595753
6497.719168
6499.373197
6494.947552
6500.021398
6503.172994
6508.827985
6512.560727
6511.979581
6500.848413
6497.205078
6499.931991
6493.606447
6501.138985
6507.129253
6501.966
6499.574363
6502.927125
6505.184651
6504.312933
6503.195346
6497.115671
6501.854241
6505.162299
6505.8105
6505.721093
6504.849375
6500.870764
6504.625857
6500.490785
6503.664732
6505.899907
6502.815366
6501.496613
6505.922259
6508.76093
6506.726921
6503.128291
6498.792052
6500.714302
6503.597677
6500.513136
6497.294485
6499.999046
6507.509232
6504.625857
6501.541317
6506.168128
6503.88825
6501.831889
6499.931991
6503.150642
6503.172994
6503.329456
6506.592811
6506.279887
6509.744407
6506.972791
6502.658904
6503.351808
6506.793977
6502.167166
6501.45191
6506.212831
6511.733712
6510.817291
6504.067064
6501.273096
6502.301276
6507.911564
6512.873651
6504.379988
6505.966962
6506.995142
6504.625857
6499.350846
6502.234221
6507.017494
6505.274058
6501.049578
6506.078721
6504.827023
6504.849375
6499.931991
6498.970866
6505.676389
6506.905735
6504.581154
6502.256573
6503.061235
6502.502442
6508.090378
6509.073855
6510.370256
6513.723017
6509.766759
6505.072892
6501.541317
6497.585058
6494.79109
6499.261439
6502.413035
6503.418863
6503.731788
6504.491747
6505.877555
6509.409131
6506.905735
6507.196308
6501.787186
6505.94461
6511.420788
6503.396511
6502.770663
6507.889212
6508.738578
6505.721093
6504.379988
6506.056369
6503.396511
6501.474261
6503.284753
6503.977657
6503.843546
6504.581154
6504.40234
6503.88825
6500.222564
6502.301276
6500.915468
6505.497575
6510.660828
6507.844509
6502.6142
6505.676389
6509.029151
6503.776491
6506.682218
6505.072892
6509.409131
6511.331381
6503.083587
6506.972791
6509.811462
6511.309029
6507.241012
6511.689009
6517.075779
6523.557785
6519.445064
6516.516985
6522.820177
6523.669544
6525.792959
6523.714247
6522.46255
6519.467416
6517.902794
6518.550994
6515.354695
6512.739541
6516.360523
6516.181709
6511.666657
6516.740503
6518.37218
6512.09134
6510.325552
6513.588907
6512.583078
6507.129253
6506.972791
6512.784244
6519.579174
6514.460625
6508.649171
6510.705532
6515.466453
6511.934878
6505.743445
6511.71136
6517.612221
6515.399398
6509.431482
6509.431482
6507.308067
6512.448968
6513.655962
6508.537413
6505.877555
6506.235183
6508.582116
6516.919317
6523.021343
6523.043695
6521.412018
6521.724942
6529.123369
6532.654945
6528.206948
6527.692858
6532.409076
6533.951346
6532.610241
6532.565538
6533.012573
6532.811407
6534.733657
6531.470303
6529.302183
6529.123369
6530.66564
6533.392553
6530.755047
6533.571366
6536.901776
6534.51014
6529.25748
6532.833759
6533.99605
6531.090323
6530.66564
6534.487788
6541.282718
6537.773494
6533.392553
6531.783227
6532.476131
6535.627727
6535.068933
6530.218605
6537.751143
6540.813332
6537.035887
6535.225396
6534.64425
6532.833759
6533.727829
6536.745314
6535.337154
6537.147646
6536.588852
6532.118503
6536.745314
6536.007707
6534.554843
6532.342021
6535.247747
6535.113637
6532.923166
6529.235128
6528.586927
6538.019364
6538.35464
6542.33325
6543.652003
6536.231224
6529.346887
6525.41298
6520.383837
6515.891137
6515.622916
6510.414959
6505.832852
6502.971828
6494.522869
6494.835793
6496.065139
6500.446081
6505.408168
6499.417901
6490.834831
6490.924238
6499.082625
6494.947552
6494.545221
6500.826061
6503.955305
6501.943648
6500.200212
6496.892154
6494.969904
6496.400415
6496.288657
6499.797881
6500.803709
6499.01557
6499.753177
6497.965038
6500.066102
6504.111767
6500.848413
6496.668636
6498.345017
6502.770663
6500.93782
6494.902849
6497.495651
6504.491747
6501.809538
6496.355712
6498.277962
6506.615163
6502.725959
6495.953381
6494.388758
6500.759006
6500.311971
6495.327532
6495.282828
6498.702645
6502.770663
6500.423729
6498.188555
6499.820232
6499.14968
6492.846488
6491.997122
6492.533564
6496.914506
6507.710398
6514.259459
6515.578212
6521.277907
6521.501424
6518.908622
6520.495596
6521.970811
6514.974715
6509.766759
6511.644305
6518.953326
6521.05439
6518.171015
6516.092302
6517.321648
6519.288602
6520.830872
6518.37218
6519.825044
6523.066047
6514.237108
6513.343038
6521.166148
6524.496558
6520.29443
6515.242936
6519.378009
6526.06118
6523.244861
6517.72398
6515.846433
6523.401323
6528.050486
6518.081608
6515.444102
6520.719113
6523.960116
6519.959154
6521.613183
6522.171977
6521.099093
6515.019419
6517.545166
6533.347849
6534.331326
6529.011611
6529.436294
6535.515968
6541.282718
6538.421695
6538.712268
6542.422657
6544.970756
6541.327422
6538.756971
6542.892044
6541.886215
6541.886215
6543.74141
6546.647137
6542.959099
6543.719058
6540.343945
6538.600509
6543.294375
6547.183579
6541.461532
6540.321593
6542.355602
6546.580082
6543.473189
6540.478056
6542.780285
6540.723925
6541.372125
6539.606338
6542.132085
6540.165131
6538.466399
6535.694782
6537.59468
6537.59468
6536.521797
6542.109733
6543.003803
6543.450838
6537.415867
6532.900814
6536.253576
6539.047544
6537.482922
6535.247747
6539.829855
6550.446934
6552.19037
6546.915358
6546.401268
6548.85996
6548.211759
6549.150532
6546.356564
6547.183579
6550.379878
6548.010593
6545.127218
6550.379878
6552.32448
6546.69184
6543.160265
6547.362393
6550.335175
6551.028079
6549.306995
6545.283681
6548.010593
6554.313785
6552.056259
6551.497466
6554.11262
6550.558692
6546.960061
6546.960061
6549.016422
6548.234111
6548.368221
6553.620881
6554.380841
6547.384745
6547.429448
6544.523721
6548.122352
6547.429448
6549.418753
6550.134009
6550.491637
6553.777343
6552.011556
6550.156361
6549.37405
6546.69184
6547.362393
6548.144704
6554.514951
6555.766649
6550.089306
6549.262291
6552.413887
6555.721945
6558.493562
6550.245768
6539.338117
6537.617032
6539.092247
6537.929957
6529.302183
6531.17973
6534.107808
6535.739486
6530.129198
6533.258442
6536.030058
6534.778361
6534.398381
6532.543186
6534.241919
6537.415867
6530.129198
6526.709381
6535.15834
6538.712268
6535.247747
6530.419771
6531.760875
6537.348811
6539.89691
6536.05241
6536.119465
6537.214701
6533.213739
6534.376029
6534.219567
6537.549977
6539.807503
6536.141817
6534.733657
6535.761837
6537.214701
6536.477093
6535.113637
6536.633555
6535.02423
6535.9183
6534.845416
6539.047544
6541.707401
6542.981451
6539.293413
6544.881349
6547.407096
6533.526663
6526.239994
6527.424637
6528.206948
6527.402285
6519.713285
6511.800767
6510.191442
6504.424692
6501.697779
6505.743445
6510.392607
6514.214756
6509.587945
6508.425654
6504.938782
6506.19048
6505.028189
6504.491747
6507.73275
6509.610296
6507.576288
6504.044712
6506.123424
6513.723017
6509.386779
6504.715264
6516.002895
6518.930974
6514.035942
6511.420788
6511.085512
6509.878517
6505.609334
6503.843546
6505.29641
6507.553936
6502.86007
6503.664732
6507.978619
6509.207965
6509.655
6505.43052
6506.078721
6506.861032
6510.414959
6509.409131
6506.056369
6506.168128
6506.726921
6507.911564
6501.608372
6507.017494
6507.509232
6503.485918
6504.067064
6499.954343
6502.99418
6505.8105
6499.395549
6498.412072
6503.105939
6507.553936
6508.24684
6511.107863
6508.537413
6503.50827
6506.32459
6503.776491
6501.742482
6508.135081
6509.006799
6502.86007
6506.168128
6511.823119
6505.050541
6499.417901
6502.770663
6499.127328
6499.082625
6507.419825
6517.545166
6518.550994
6515.622916
6519.199195
6517.746331
6521.322611
6524.049523
6518.550994
6517.701628
6523.401323
6522.529605
6519.981506
6520.048561
6523.714247
6520.786169
6516.293468
6514.214756
6518.930974
6520.763817
6518.483939
6515.55586
6517.925145
6522.507253
6517.791035
6511.689009
6511.979581
6514.326515
6517.276945
6514.505328
6511.420788
6517.344
6519.042733
6515.488805
6514.997067
6512.650134
6513.410093
6516.382875
6512.09134
6513.387741
6514.661791
6516.695799
6517.20989
6519.467416
6516.740503
6518.014552
6516.561689
6511.845471
6515.354695
6518.23807
6518.171015
6515.220584
6514.102997
6515.175881
6513.320686
6515.28764
6516.919317
6507.688046
6505.966962
6517.20989
6528.8775
6528.318707
6528.274003
6527.022305
6528.564576
6529.056314
6522.59666
6519.489767
6520.026209
6524.049523
6523.446026
6522.708419
6523.334268
6526.619974
6523.758951
6521.501424
6523.11075
6528.989259
6527.33523
6524.742427
6521.05439
6519.914451
6521.166148
6523.602488
6523.155454
6525.569442
6524.720076
6520.830872
6519.78034
6523.066047
6523.691895
6522.820177
6519.154491
6526.128236
6527.201119
6518.640401
6518.819215
6522.283736
6523.378971
6527.581099
6523.021343
6519.601526
6523.289564
6528.788093
6525.614145
6522.97664
6522.440198
6527.067009
6523.11075
6521.05439
6524.943593
6527.089361
6522.931936
6523.155454
6526.351753
6525.144759
6520.026209
6522.149625
6522.395494
6525.278869
6522.59666
6522.954288
6521.546128
6523.580137
6527.491692
6520.361486
6522.46255
6529.078666
6525.636497
6520.853224
6523.647192
6527.402285
6523.714247
6524.51891
6526.95525
6527.871672
6532.923166
6530.196253
6526.642326
6529.860977
6530.218605
6530.263308
6535.02423
6537.482922
6539.472227
6545.328384
6546.200102
6545.998936
6550.312823
6548.770553
6541.238015
6544.300204
6549.105829
6551.318652
6548.636442
6545.66366
6547.787076
6546.848303
6539.718096
6541.640346
6545.462495
6548.301166
6546.960061
6546.334213
6549.485809
6548.457628
6547.675317
6544.344907
6543.696707
6545.484846
6546.356564
6547.228282
6545.507198
6550.424582
6548.256463
6545.753067
6549.50816
6544.389611
6540.254538
6541.528588
6537.706439
6541.506236
6546.602434
6547.988242
6547.295338
6550.066954
6558.851189
6555.543131
6547.161227
6545.730715
6544.948404
6540.478056
6536.991183
6537.818198
6545.417791
6543.294375
6538.712268
6541.193311
6544.143742
6543.003803
6541.550939
6543.473189
6547.317689
6547.205931
6545.954233
6540.321593
6541.953271
6547.384745
6543.361431
6544.389611
6544.903701
6545.037811
6548.658794
6547.384745
6546.647137
6550.089306
6542.154436
6545.127218
6552.100963
6550.871617
6537.862901
6529.860977
6531.202082
6529.302183
6522.149625
6516.762855
6513.678314
6517.232241
6516.047599
6516.762855
6516.584041
6515.891137
6514.706494
6515.846433
6514.237108
6512.001933
6512.381913
6512.650134
6514.52768
6515.645267
6517.925145
6517.276945
6512.225451
6515.175881
6519.042733
6519.243898
6516.941669
6517.008724
6518.930974
6520.383837
6517.053427
6513.812424
6518.975677
6518.707456
6516.852262
6514.997067
6513.4995
6518.595698
6517.008724
6513.477148
6517.589869
6520.786169
6519.445064
6511.465491
6511.309029
6514.348866
6511.040808
6509.409131
6513.231279
6514.572384
6514.035942
6510.750235
6509.856166
6514.728846
6516.44993
6511.443139
6511.934878
6513.275983
6513.723017
6513.052465
6508.716227
6508.068026
6512.896003
6516.785206
6510.392607
6508.269192
6509.967924
6508.738578
6508.582116
6509.722055
6514.102997
6511.06316
6505.050541
6506.861032
6513.387741
6512.270154
6508.805634
6508.38095
6513.253631
6516.628744
6515.019419
6514.281811
6514.728846
6513.030113
6511.666657
6510.973753
6510.079683
6508.872689
6513.11952
6516.628744
6520.361486
6525.167111
6517.813387
6513.745369
6514.885308
6519.981506
6518.796863
6514.460625
6515.064122
6519.199195
6520.763817
6515.242936
6514.147701
6519.154491
6520.942631
6516.405227
6516.114654
6516.919317
6516.651096
6514.930012
6513.275983
6519.64623
6519.378009
6516.561689
6513.946535
6517.813387
6519.109788
6517.589869
6515.019419
6513.544203
6516.539337
6520.920279
6519.64623
6516.360523
6516.807558
6519.199195
6516.96402
6515.332343
6517.835738
6517.746331
6512.761892
6515.332343
6519.422712
6520.16032
6517.72398
6518.23807
6521.970811
6522.171977
6513.454796
6510.571421
6513.275983
6517.880442
6516.44993
6514.974715
6513.164224
6515.064122
6510.482014
6508.38095
6513.097169
6516.740503
6519.601526
6518.349829
6514.505328
6513.052465
6513.208927
6510.705532
6515.354695
6519.489767
6522.73077
6518.059256
6514.862956
6518.707456
6516.002895
6509.587945
6512.225451
6523.580137
6528.631631
6520.562651
6516.405227
6522.08257
6518.550994
6516.740503
6517.411055
6518.439236
6518.662753
6525.189462
6519.847395
6517.031076
6521.993163
6519.713285
6515.108826
6516.785206
6517.947497
6514.505328
6518.685105
6520.495596
6520.16032
6519.020381
6517.589869
6513.834776
6515.444102
6516.584041
6514.617087
6515.444102
6519.713285
6517.746331
6515.399398
6517.120483
6520.093265
6523.356619
6518.305125
6516.427579
6515.354695
6514.617087
6517.142834
6518.774512
6514.706494
6519.512119
6525.100055
6523.915413
6526.06118
6522.395494
6517.925145
6516.606392
6520.272079
6520.920279
6523.334268
6526.865843
6513.700666
6503.150642
6509.297372
6513.298334
6505.94461
6504.379988
6511.353733
6511.241974
6510.973753
6509.476186
6505.966962
6511.420788
6516.673448
6511.778416
6512.381913
6519.534471
6516.740503
6512.896003
6512.963058
6514.885308
6522.909584
6523.960116
6514.728846
6514.930012
6511.510195
6508.470357
6512.314858
6514.795901
6513.052465
6510.884346
6512.717189
6516.002895
6517.47811
6514.192404
6509.409131
6508.76093
6514.326515
6512.761892
6512.001933
6512.203099
6510.16909
6506.83868
6512.046637
6515.622916
6515.488805
6520.853224
6516.695799
6515.689971
6520.249727
6517.366352
6514.505328
6520.227375
6525.368276
6516.807558
6502.502442
6502.368331
6523.267212
6536.007707
6524.89889
6507.643343
6510.325552
6521.56848
6520.987334
6517.388704
6523.155454
6523.177805
6516.96402
6511.599602
6520.629706
6518.416884
6517.746331
6519.757988
6517.768683
6510.258497
6512.60543
6521.389666
6514.505328
6507.956267
6505.8105
6509.230317
6513.410093
6513.566555
6517.522814
6524.228337
6519.355657
6510.571421
6510.124387
6512.806596
6509.967924
6512.203099
6518.036904
6513.857128
6503.731788
6508.962096
6515.086474
6515.064122
6510.861994
6507.285715
6508.895041
6531.090323
6537.035887
6511.979581
6508.24684
6518.260422
6506.861032
6510.593773
6524.563613
6525.524738
6516.293468
6513.857128
6513.790073
6523.133102
6532.990221
6520.093265
6497.763872
6501.541317
6502.390683
6510.347904
6511.309029
6507.978619
6507.017494
6495.349883
6508.604468
6516.271116
6510.772587
6513.678314
6500.088453
6505.29641
6508.962096
6508.872689
6515.377047
6510.012628
6500.535488
6503.240049
6511.06316
6522.529605
6501.206041
6486.610351
6496.19925
6500.401378
6505.095244
6517.589869
6516.338172
6507.263363
6503.821195
6504.178823
6503.150642
6490.767776
6482.296465
6491.617142
6506.32459
6522.037866
6503.038884
6495.573401
6505.318762
6510.124387
6508.202137
6490.365444
6491.483032
6500.490785
6510.146738
6515.689971
6513.11952
6479.703662
6486.632703
6499.440253
6491.035997
6493.494689
6504.827023
6508.470357
6495.104014
6484.15166
6499.194384
6488.890229
6492.153584
6508.202137
6504.737616
6499.52966
6495.148718
6478.876648
6485.515116
6497.003913
6497.897982
6504.692913
6506.101073
6506.145776
6493.673503
6484.375177
6484.15166
6496.132195
6515.265288
6505.609334
6497.60741
6493.271171
6486.72211
6501.608372
6510.303201
6506.972791
6507.755102
6483.279941
6476.507363
6494.120538
6513.566555
6510.124387
6502.815366
6511.241974
6494.679331
6489.67254
6514.460625
6521.412018
6501.58602
6489.91841
6493.360578
6501.049578
6499.194384
6502.390683
6519.869747
6491.170107
6501.116634
6508.224488
6501.407206
6492.824136
6497.22743
6496.802747
6508.38095
6500.826061
6481.268284
6500.55784
6510.593773
6499.283791
6501.183689
6516.31582
6507.308067
6515.064122
6500.088453
6488.64436
6485.716282
6497.60741
6496.400415
6491.415976
6479.681311
6470.494744
6482.36352
6457.977767
6475.456831
6495.461642
6509.655
6493.181764
6484.933971
6484.397529
6445.013755
6483.525811
6476.105032
6495.059311
6509.051503
6476.440308
6475.546238
6479.368386
6483.212886
6488.867878
6499.842584
6493.494689
6501.720131
6501.630724
6493.829965
6479.010758
6476.552066
6496.959209
6478.407261
6491.728901
6517.187538
6503.910602
6507.509232
6553.106791
6505.363465
6484.598694
6489.91841
6509.118558
6514.594735
6480.396566
6499.216735
6504.670561
6549.485809
6521.210852
6520.830872
6515.466453
6529.860977
6538.265233
6540.321593
6526.82114
6524.407151
6513.655962
6517.522814
6537.907605
6506.726921
6546.736544
6504.849375
6541.662698
6561.376937
6515.55586
6515.93584
6514.080645
6514.795901
6533.504311
6529.77157
6514.862956
6529.123369
6521.099093
6517.254593
6520.205023
6525.949422
6526.798788
6524.228337
6526.731733
6518.37218
6529.928032
6513.320686
6519.534471
6506.861032
6513.432445
6528.2293
6526.239994
6527.558747
6530.66564
6520.585003
6512.761892
6522.239032
6533.683125
6536.767666
6529.548052
6518.483939
6527.894023
6531.649116
6525.524738
6527.514044
6527.022305
6534.666602
6539.539282
6520.272079
6524.921241
6545.507198
6546.133047
6528.989259
6525.167111
6525.971773
6543.830817
6558.135934
6532.744352
6529.950384
6537.482922
6535.851244
6537.371163
6545.440143
6549.418753
6531.157378
6526.798788
6533.504311
6540.589814
6539.047544
6531.760875
6556.280739
6559.477038
6547.697669
6527.692858
6539.695744
6544.322556
6545.686012
6535.963003
6532.654945
6545.395439
6540.388649
6543.115561
6544.322556
6550.066954
6552.793867
6547.720021
6546.490675
6542.981451
6552.100963
6538.600509
6538.019364
6526.083532
6488.532601
6509.923221
6555.744297
6547.630614
6541.394477
6527.134064
6533.213739
6535.806541
6557.778306
6566.473134
6539.7628
6551.877445
6565.534361
6559.946425
6542.042678
6532.20791
6532.990221
6543.6073
6531.69382
6562.494524
6559.87937
6545.574253
6550.312823
6554.447896
6544.50137
6535.02423
6531.17973
6532.945518
6539.852207
6544.903701
6547.809428
6523.669544
6525.614145
6534.51014
6552.19037
6559.454687
6547.205931
6531.515006
6531.760875
6549.798733
6554.291434
6530.710343
6536.320631
6561.309881
6535.448913
6541.662698
6555.073745
6552.905625
6534.353678
6527.514044
6536.521797
6546.915358
6543.182617
6529.860977
6538.779323
6552.123314
6557.800657
6549.217588
6549.016422
6536.633555
6526.083532
6532.051448
6539.025192
6532.252614
6550.491637
6530.777398
6544.389611
6525.033
6544.344907
6526.239994
6525.658849
6560.90755
6570.652911
6553.844399
6526.687029
6525.971773
6534.621898
6558.828838
6532.319669
6526.798788
6536.991183
6523.356619
6539.449875
6545.238977
6525.323573
6502.457738
6523.468378
6550.625748
6535.40421
6528.117541
6519.601526
6519.199195
6521.993163
6521.523776
6522.395494
6539.069896
6539.360468
6518.148663
6532.543186
6535.02423
6538.35464
6529.637459
6512.381913
6533.280794
6560.818143
6550.715154
6511.666657
6500.535488
6496.065139
6532.699648
6528.989259
6508.090378
6526.016477
6494.433462
6511.264326
6501.384854
6475.255665
6490.56661
6488.219677
6532.945518
6521.032038
6496.869802
6507.688046
6502.10011
6483.659921
6496.914506
6496.623933
6490.834831
6541.126256
6511.309029
6482.87761
6506.682218
6516.114654
6510.817291
6512.180747
6466.60554
6514.39357
6499.373197
6487.124442
6464.1692
6528.676334
6520.942631
6484.866915
6486.029206
6496.623933
6527.491692
6539.7628
6420.98563
6480.553029
6477.960226
6481.737671
6506.257535
6534.331326
6504.290581
6474.607465
6476.954398
6460.637624
6525.41298
6509.185613
6514.952363
6489.806651
6474.272188
6445.706659
6524.049523
6540.768628
6456.234331
6536.5665
6519.333305
6527.402285
6500.04375
6497.674465
6491.103052
6516.338172
6507.978619
6555.677242
6514.795901
6497.22743
6493.293523
6513.566555
6539.38282
6524.273041
6529.212776
6517.925145
6521.791997
6529.056314
6550.446934
6545.462495
6543.048506
6531.82793
6524.228337
6518.148663
6541.729753
6563.969739
6542.489713
6529.793922
6537.08059
6539.24871
6533.079628
6533.593718
6529.190425
6543.450838
6542.132085
6525.524738
6537.59468
6542.556768
6532.677297
6531.291489
6529.145721
6530.442122
6537.527625
6538.444047
6527.089361
6525.435332
6526.105884
6529.525701
6535.113637
6535.739486
6531.716172
6526.95525
6524.183634
6522.931936
6532.319669
6539.092247
6534.979526
6532.163207
6528.810445
6533.459608
6531.604413
6531.649116
6535.67243
6523.915413
6520.942631
6524.988297
6533.10198
6540.92509
6533.660773
6533.146683
6524.451855
6521.680238
6536.722962
6544.613128
6539.427524
6531.202082
6530.062143
6529.659811
6536.253576
6534.51014
6537.549977
6531.246785
6517.053427
6514.326515
6525.211814
6538.376992
6528.855148
6526.664677
6523.513081
6515.377047
6514.997067
6528.206948
6532.878462
6531.82793
6535.02423
6530.062143
6524.071875
6507.330419
6522.551956
6538.958137
6534.018401
6534.912471
6545.66366
6535.784189
6521.032038
6528.653983
6537.639384
6528.788093
6518.707456
6528.519872
6538.041715
6542.266195
6540.589814
6529.078666
6524.116579
6527.603451
6538.801675
6546.803599
6544.479018
6533.884291
6538.645212
6540.232186
6535.381858
6534.912471
6534.353678
6542.065029
6544.613128
6550.357527
6556.258387
6542.400306
6537.348811
6541.260367
6543.674355
6549.977547
6545.686012
6529.592756
6549.731678
6558.359451
6538.801675
6542.422657
6551.765686
6552.235073
6550.91632
6550.513989
6550.066954
6548.681146
6546.93771
6553.196198
6556.727774
6559.253521
6564.215608
6554.894931
6546.133047
6544.344907
6559.007652
6562.896855
6551.788038
6557.44303
6557.398326
6557.733602
6561.891027
6559.655852
6565.623768
6559.030003
6558.940596
6557.465381
6558.515913
6559.49939
6550.625748
6554.961986
6567.434259
6563.612111
6555.252559
6548.47998
6539.673393
6561.846323
6565.13203
6548.703497
6540.589814
6543.383782
6544.903701
6546.580082
6545.686012
6555.096096
6558.359451
6543.406134
6539.7628
6545.350736
6541.550939
6534.152512
6535.225396
6544.76959
6530.755047
6516.82991
6528.542224
6545.127218
6546.736544
6541.372125
6525.457683
6516.986372
6528.206948
6532.476131
6539.919262
6542.109733
6541.707401
6526.932898
6521.657887
6523.401323
6544.344907
6540.388649
6521.389666
6520.383837
6537.818198
6533.213739
6526.396457
6524.809483
6525.815311
6517.120483
6530.129198
6550.312823
6539.427524
6519.869747
6519.467416
6516.181709
6520.361486
6527.357582
6530.755047
6535.67243
6536.633555
6517.85809
6520.473244
6533.057276
6535.247747
6526.865843
6517.522814
6508.313895
6521.881404
6534.621898
6523.200157
6539.7628
6544.344907
6519.243898
6508.135081
6507.844509
6522.21668
6535.9183
6525.860015
6518.260422
6525.278869
6527.916375
6536.298279
6533.213739
6530.039791
6522.775474
6508.984448
6512.225451
6532.632593
6547.541207
6540.165131
6518.193366
6516.338172
6521.613183
6521.434369
6534.107808
6539.092247
6521.479073
6517.947497
6516.651096
6534.308974
6553.285605
6532.118503
6517.075779
6506.4587
6511.890174
6526.172939
6522.909584
6526.128236
6524.317744
6506.972791
6507.889212
6526.485864
6529.570404
6540.79098
6547.809428
6525.681201
6505.229355
6514.661791
6529.548052
6532.543186
6510.303201
6522.037866
6528.810445
6506.235183
6514.795901
6521.367314
6529.056314
6547.652966
6520.540299
6492.555915
6508.939744
6513.924183
6513.4995
6524.183634
6532.185558
6519.154491
6522.507253
6519.176843
6522.73077
6541.215663
6539.315765
6531.604413
6528.922204
6542.377954
6532.297317
6518.998029
6522.775474
6537.773494
6539.89691
6531.135026
6532.342021
6526.016477
6524.317744
6543.964928
6519.489767
6520.428541
6537.371163
6538.086419
6542.690878
6544.791942
6530.598584
6533.951346
6530.755047
6520.853224
6545.127218
6549.664623
6524.720076
6499.194384
6525.524738
6544.568425
6546.17775
6544.031983
6543.562596
6520.316782
6517.254593
6525.815311
6540.992146
6544.63548
6534.443085
6527.84932
6531.671468
6536.611204
6538.600509
6543.719058
6529.548052
6526.105884
6526.754084
6526.552919
6524.831834
6532.610241
6536.5665
6529.816273
6527.379933
6518.126311
6523.401323
6532.096151
6521.657887
6519.020381
6524.496558
6523.356619
6527.648154
6520.540299
6529.078666
6535.448913
6522.619012
6512.98541
6520.026209
6512.113692
6518.23807
6526.95525
6526.30705
6530.553881
6537.237053
6534.443085
6528.966907
6528.653983
6517.165186
6509.029151
6516.740503
6520.16032
6509.990276
6516.695799
6525.658849
6513.745369
6513.298334
6511.733712
6509.252669
6520.048561
6523.401323
6509.923221
6513.186576
6524.630669
6524.51891
6517.701628
6517.388704
6518.260422
6522.060218
6524.362448
6528.8775
6521.389666
6503.485918
6511.800767
6513.678314
6512.538375
6526.664677
6521.590831
6515.80173
6516.002895
6517.165186
6517.098131
6511.487843
6517.120483
6527.804616
6522.842529
6511.085512
6510.079683
6510.437311
6512.828948
6508.559764
6524.00482
6535.627727
6517.20989
6493.941724
6497.652113
6517.85809
6525.748256
6525.54709
6513.723017
6523.401323
6530.375067
6525.345925
6521.56848
6523.62484
6537.147646
6534.778361
6525.748256
6521.814349
6515.824081
6520.16032
6517.835738
6519.26625
6536.968832
6539.919262
6527.134064
6516.31582
6514.751198
6514.281811
6516.114654
6534.219567
6539.204006
6526.57527
6514.997067
6528.028134
6536.991183
6539.159303
6528.564576
6531.246785
6528.653983
6519.914451
6519.623878
6521.814349
6522.775474
6529.346887
6518.774512
6510.839642
6521.05439
6522.08257
6520.495596
6522.574308
6528.274003
6536.857073
6540.142779
6531.515006
6528.274003
6536.611204
6528.765741
6530.553881
6524.585965
6522.283736
6528.653983
6526.932898
6532.878462
6538.86873
6537.684087
6528.341058
6521.210852
6528.631631
6537.035887
6546.69184
6539.047544
6523.870709
6521.344962
6529.101018
6531.82793
6530.620936
6531.090323
6530.442122
6524.965945
6530.196253
6537.46057
6534.443085
6543.160265
6540.321593
6529.369239
6532.990221
6535.895948
6527.581099
6518.75216
6525.345925
6536.968832
6538.041715
6538.421695
6532.565538
6530.106846
6532.833759
6528.989259
6539.315765
6530.062143
6522.037866
6520.875576
6528.139893
6537.125294
6536.298279
6532.409076
6530.822102
6526.083532
6517.567517
6513.186576
6523.714247
6525.524738
6524.697724
6530.598584
6534.845416
6517.366352
6515.332343
6533.884291
6531.69382
6518.260422
6530.531529
6527.312878
6523.267212
6522.440198
6530.553881
6519.042733
6532.878462
6532.230262
6516.293468
6520.652058
6525.748256
6532.654945
6534.376029
6525.055352
6517.388704
6520.987334
6524.831834
6527.648154
6523.468378
6523.736599
6524.496558
6522.440198
6524.049523
6522.59666
6526.239994
6525.904718
6521.05439
6517.433407
6519.825044
6523.378971
6523.11075
6528.922204
6518.126311
6517.589869
6521.05439
6521.032038
6533.772532
6537.661736
6540.545111
6520.540299
6509.744407
6519.467416
6520.227375
6518.059256
6514.281811
6501.563668
6491.125404
6474.16043
6488.867878
6497.786224
6498.434424
6499.931991
6494.053482
6482.810555
6479.41309
6489.404319
6494.835793
6504.961134
6505.586982
6489.359616
6485.872744
6496.221602
6488.085567
6490.521907
6497.138023
6500.244916
6497.339189
6488.376139
6490.879535
6501.854241
6486.275075
6488.845526
6502.882421
6495.238125
6489.694892
6495.461642
6497.696817
6500.401378
6482.721148
6480.038939
6495.975732
6496.735692
6492.019474
6497.294485
6493.941724
6483.883439
6485.068081
6488.174974
6499.864936
6500.580192
6491.304218
6490.030168
6502.077759
6497.450947
6490.678369
6486.655055
6475.680348
6481.424747
6500.647247
6508.805634
6492.332398
6487.683235
6504.067064
6508.470357
6504.849375
6498.613238
6493.941724
6503.50827
6511.532546
6512.180747
6514.438273
6519.579174
6509.409131
6496.780395
6513.074817
6515.309991
6518.148663
6519.690933
6520.875576
6525.41298
6523.200157
6507.755102
6502.502442
6512.560727
6523.244861
6518.103959
6518.193366
6523.043695
6515.242936
6521.926108
6522.104922
6513.231279
6512.739541
6517.85809
6524.608317
6521.859052
6515.734674
6513.678314
6525.54709
6519.534471
6511.845471
6517.589869
6526.95525
6524.451855
6518.282773
6522.551956
6520.942631
6528.519872
6532.610241
6517.656924
6510.906698
6508.984448
6514.39357
6520.920279
6517.411055
6515.019419
6525.100055
6532.0738
6528.676334
6519.579174
6521.210852
6518.439236
6522.663715
6522.551956
6506.123424
6517.299297
6532.654945
6534.688954
6529.525701
6517.276945
6522.060218
6529.413942
6517.455759
6514.102997
6519.512119
6514.550032
6498.568535
6502.167166
6508.738578
6515.444102
6511.241974
6500.602543
6504.827023
6521.166148
6512.583078
6510.03498
6510.929049
6517.47811
6507.777453
6505.855203
6516.561689
6508.716227
6502.502442
6511.979581
6513.991238
6522.507253
6523.893061
6517.232241
6499.417901
6493.338226
6501.653075
6508.559764
6524.675372
6509.744407
6503.88825
6509.051503
6514.639439
6519.355657
6516.695799
6502.6142
6497.339189
6516.695799
6518.327477
6504.581154
6507.464529
6505.385817
6518.461587
6519.243898
6497.22743
6498.523831
6513.320686
6513.745369
6504.603506
6507.509232
6506.861032
6517.679276
6513.678314
6508.38095
6508.671523
6503.620029
6504.78232
6499.574363
6497.562706
6504.000009
6509.610296
6521.903756
6516.181709
6514.885308
6504.290581
6499.887288
6503.038884
6509.27502
6507.084549
6508.537413
6508.62682
6512.538375
6514.952363
6506.481052
6508.693875
6508.291544
6506.145776
6501.116634
6503.329456
6513.723017
6519.154491
6516.651096
6521.344962
6521.367314
6513.454796
6514.795901
6511.107863
6504.491747
6506.235183
6507.241012
6501.340151
6508.515061
6524.407151
6510.638477
6502.301276
6506.078721
6504.40234
6502.301276
6503.709436
6495.774567
6504.983485
6519.78034
6520.964983
6507.151605
6504.827023
6507.799805
6507.35277
6508.917392
6514.90766
6521.300259
6514.930012
6501.831889
6500.289619
6514.237108
6519.378009
6511.912526
6513.164224
6513.11952
6509.78911
6509.856166
6505.721093
6504.491747
6508.962096
6517.902794
6518.148663
6516.82991
6505.698741
6498.948514
6507.084549
6511.71136
6511.376084
6504.78232
6506.123424
6515.891137
6517.254593
6508.850337
6501.764834
6511.487843
6516.695799
6513.767721
6511.934878
6522.373143
6515.466453
6505.877555
6505.676389
6511.823119
6519.378009
6519.109788
6511.465491
6517.344
6530.15155
6511.800767
6499.194384
6506.4587
6509.990276
6506.682218
6503.396511
6503.776491
6511.823119
6515.757026
6511.890174
6513.566555
6518.282773
6517.165186
6510.996105
6510.280849
6511.554898
6520.115616
6520.540299
6507.21866
6508.515061
6510.973753
6504.715264
6508.649171
6518.975677
6517.902794
6521.121445
6518.975677
6524.89889
6522.395494
6517.321648
6519.892099
6518.595698
6516.896965
6518.483939
6517.72398
6517.254593
6525.658849
6523.893061
6518.729808
6523.714247
6514.572384
6506.637514
6512.068988
6530.486826
6525.301221
6519.825044
6521.032038
6523.826006
6521.412018
6514.415921
6518.618049
6522.373143
6526.06118
6525.792959
6528.698686
6524.340096
6518.126311
6522.283736
6524.630669
6517.388704
6517.791035
6520.67441
6521.05439
6520.585003
6516.852262
6513.11952
6517.299297
6517.813387
6520.696762
6525.033
6525.658849
6515.086474
6512.896003
6520.853224
6516.226413
6515.80173
6511.778416
6513.723017
6526.642326
6522.820177
6509.655
6507.397474
6516.405227
6519.690933
6522.641363
6524.027172
6518.171015
6526.150587
6527.424637
6516.584041
6517.589869
6528.2293
6516.025247
6508.068026
6514.482977
6517.232241
6515.019419
6520.80852
6525.904718
6522.507253
6513.030113
6512.60543
6511.219622
6512.136044
6514.01359
6514.773549
6516.584041
6506.011666
6513.901831
6523.893061
6519.020381
6521.56848
6517.254593
6512.158395
6508.783282
6517.612221
6521.1885
6516.986372
6502.278924
6503.88825
6523.177805
6522.864881
6518.841567
6519.109788
6517.254593
6521.412018
6515.80173
6516.114654
6521.412018
6521.948459
6523.066047
6514.058294
6517.344
6511.443139
6506.637514
6509.431482
6513.4995
6528.028134
6529.637459
6517.925145
6517.20989
6510.236145
6500.915468
6506.83868
6520.897927
6523.647192
6515.399398
6517.522814
6520.830872
6526.239994
6517.008724
6513.901831
6508.470357
6508.068026
6518.930974
6521.434369
6517.880442
6525.144759
6516.293468
6512.046637
6510.593773
6506.391645
6503.441215
6514.035942
6527.223471
6520.897927
6517.254593
6520.205023
6512.337209
6508.962096
6516.002895
6523.066047
6522.59666
6510.03498
6511.331381
6520.316782
6518.930974
6515.242936
6518.148663
6519.310954
6509.990276
6504.938782
6509.118558
6520.473244
6519.422712
6515.399398
6511.733712
6509.364427
6516.248765
6518.014552
6515.019419
6504.558802
6507.196308
6510.616125
6508.336247
6512.918355
6524.094227
6515.444102
6515.80173
6518.282773
6510.124387
6514.661791
6517.053427
6520.383837
6518.23807
6516.919317
6510.303201
6514.214756
6518.349829
6512.739541
6515.622916
6518.171015
6517.813387
6518.88627
6517.120483
6517.321648
6514.773549
6515.354695
6520.540299
6524.228337
6524.965945
6525.748256
6516.896965
6514.505328
6516.047599
6516.986372
6523.803654
6526.508215
6521.70259
6514.952363
6517.992201
6512.113692
6517.656924
6531.425599
6535.471265
6532.543186
6521.926108
6523.848358
6522.954288
6515.354695
6511.107863
6530.017439
6535.851244
6525.457683
6508.11273
6522.708419
6526.06118
6517.701628
6516.271116
6525.278869
6530.084494
6526.888195
6519.042733
6521.590831
6526.463512
6531.604413
6523.222509
6522.551956
6525.010648
6520.517948
6528.989259
6525.837663
6528.810445
6536.857073
6539.516931
6523.088398
6522.484901
6519.78034
6521.635535
6522.350791
6524.474207
6527.804616
6534.577195
6533.638422
6528.162244
6525.681201
6515.131177
6516.852262
6525.54709
6535.068933
6533.079628
6530.553881
6528.609279
6527.916375
6523.423675
6526.597622
6524.340096
6522.820177
6521.277907
6532.252614
6537.08059
6537.192349
6535.583023
6530.129198
6526.239994
6523.691895
6528.36341
6529.480997
6529.212776
6529.995087
6529.883329
6529.078666
6524.585965
6529.548052
6538.131122
6524.65302
6524.407151
6524.965945
6529.548052
6526.06118
6518.193366
6521.70259
6531.023268
6522.842529
6526.843491
6524.89889
6523.781302
6527.84932
6531.537358
6532.20791
6535.515968
6526.284698
6522.149625
6526.418808
6518.930974
6527.804616
6530.598584
6535.448913
6535.560672
6531.649116
6524.51891
6513.655962
6517.813387
6524.273041
6529.838625
6532.230262
6537.907605
6535.560672
6528.296355
6526.06118
6521.05439
6527.84932
6537.59468
6530.442122
6521.836701
6526.95525
6527.514044
6522.931936
6530.598584
6532.878462
6534.465436
6533.772532
6524.943593
6518.863919
6528.274003
6537.684087
6539.919262
6530.308012
6528.251651
6520.383837
6516.248765
6527.648154
6535.694782
6532.453779
6527.759913
6531.716172
6537.214701
6531.31384
6519.199195
6523.133102
6532.967869
6532.163207
6530.464474
6529.548052
6534.063105
6529.637459
6521.657887
6527.223471
6538.712268
6530.218605
6533.973698
6534.621898
6527.938727
6526.418808
6528.318707
6531.112675
6525.301221
6531.537358
6547.429448
6533.683125
6527.558747
6532.811407
6537.46057
6541.148608
6531.82793
6528.855148
6526.172939
6530.218605
6529.592756
6527.692858
6534.197215
6532.565538
6530.218605
6531.671468
6538.555806
6538.444047
6531.045619
6531.604413
6530.15155
6531.962041
6529.77157
6526.687029
6532.945518
6536.231224
6534.152512
6536.924128
6541.059201
6527.536395
6523.423675
6530.419771
6526.508215
6530.889157
6535.650079
6531.157378
6533.414904
6532.990221
6531.31384
6542.288547
6543.74141
6535.225396
6534.666602
6531.090323
6529.033962
6531.671468
6535.761837
6539.293413
6534.599547
6539.181654
6548.390573
6539.651041
6520.607355
6517.545166
6522.328439
6523.826006
6512.538375
6510.347904
6520.830872
6520.897927
6514.058294
6518.37218
6520.070913
6515.891137
6522.820177
6519.26625
6516.852262
6516.44993
6509.207965
6511.130215
6513.521852
6514.952363
6513.11952
6512.98541
6520.607355
6518.930974
6504.715264
6508.872689
6515.734674
6521.657887
6517.902794
6512.650134
6513.320686
6512.98541
6519.534471
6519.310954
6524.474207
6523.11075
6515.757026
6511.532546
6508.135081
6512.292506
6511.085512
6513.052465
6520.696762
6513.723017
6507.531584
6513.141872
6515.04177
6517.455759
6524.451855
6517.589869
6511.420788
6519.623878
6517.20989
6512.203099
6516.628744
6528.765741
6520.137968
6506.078721
6512.136044
6515.80173
6514.505328
6522.060218
6522.261384
6521.277907
6518.37218
6512.896003
6519.512119
6520.428541
6520.540299
6518.036904
6517.321648
6522.529605
6514.885308
6517.008724
6533.124332
6530.509178
6525.681201
6521.56848
6503.37416
6503.351808
6498.590886
6496.065139
6488.465546
6480.620084
6489.717244
6488.286732
6472.774622
6455.787296
6471.187648
6477.289674
6462.716337
6450.981671
6451.674575
6458.156581
6462.582226
6460.123534
6457.463677
6460.235293
6457.553084
6459.29652
6459.408278
6457.910712
6461.241121
6461.911674
6465.644415
6456.770773
6457.37427
6468.0137
6459.452982
6441.839807
6448.388868
6455.519075
6454.669709
6456.077868
6456.390793
6460.168238
6462.157543
6463.543351
6468.751308
6455.541427
6445.885473
6447.740668
6450.087601
6460.302348
6469.623026
6468.0137
6456.211979
6450.512284
6450.668746
6454.334432
6458.067174
6453.485066
6450.020546
6459.274168
6468.214866
6466.359671
6464.459773
6457.038993
6452.590996
6455.787296
6462.470467
6460.816438
6456.770773
6467.566665
6453.373307
6444.097333
6446.757191
6458.625967
6480.485973
6476.574418
6474.29454
6481.827078
6486.967979
6486.275075
6487.079738
6504.245878
6512.270154
6511.756064
6507.620991
6502.681256
6507.442177
6511.599602
6509.722055
6515.913488
6517.20989
6508.76093
6496.132195
6499.552011
6513.141872
6509.520889
6510.772587
6522.775474
6512.136044
6503.150642
6495.953381
6494.880497
6504.849375
6515.220584
6519.64623
6509.833814
6509.006799
6512.761892
6507.062198
6508.403302
6516.44993
6515.958192
6513.723017
6510.593773
6514.572384
6519.690933
6510.54907
6505.385817
6511.487843
6513.097169
6515.779378
6503.128291
6510.03498
6519.825044
6518.439236
6511.95723
6508.470357
6512.828948
6514.125349
6513.141872
6519.400361
6517.85809
6518.014552
6506.749273
6508.850337
6523.043695
6523.423675
6516.919317
6516.248765
6512.046637
6517.634573
6521.479073
6519.914451
6516.405227
6516.606392
6526.396457
6520.137968
6511.331381
6514.751198
6518.081608
6516.226413
6516.271116
6510.482014
6512.381913
6517.969849
6518.193366
6521.546128
6526.083532
6519.579174
6519.042733
6518.081608
6523.826006
6531.626765
6519.579174
6512.001933
6507.643343
6514.058294
6514.728846
6518.975677
6531.82793
6536.521797
6516.114654
6505.966962
6511.465491
6515.488805
6516.516985
6524.362448
6529.436294
6527.916375
6519.422712
6508.358599
6507.598639
6509.655
6512.136044
6527.715209
6531.224433
6526.530567
6519.243898
6509.27502
6504.26823
6510.012628
6519.042733
6526.418808
6515.466453
6510.213794
6516.919317
6523.222509
6519.109788
6522.417846
6527.044657
6516.874613
6515.578212
6516.651096
6516.740503
6515.444102
6516.204061
6517.455759
6509.766759
6514.304163
6516.025247
6514.237108
6515.846433
6523.11075
6514.773549
6509.073855
6512.270154
6511.71136
6512.963058
6511.420788
6518.863919
6519.757988
6522.104922
6519.579174
6516.919317
6515.466453
6506.83868
6505.855203
6513.052465
6518.37218
6521.926108
6524.831834
6524.675372
6523.289564
6518.349829
6510.973753
6515.332343
6515.734674
6520.920279
6526.910547
6525.122407
6524.89889
6516.740503
6511.689009
6517.142834
6527.759913
6527.089361
6517.545166
6514.661791
6514.840605
6523.826006
6528.139893
6511.621953
6523.043695
6532.118503
6522.060218
6515.42175
6518.863919
6524.273041
6520.070913
6508.693875
6517.142834
6521.948459
6520.473244
6518.908622
6522.484901
6531.403247
6521.613183
6522.708419
6516.293468
6493.718206
6491.393625
6496.355712
6493.785261
6477.781412
6473.668691
6486.096261
6502.278924
6506.123424
6497.674465
6496.579229
6490.186631
6474.473354
6481.536505
6490.790128
6492.399453
6490.007817
6492.600619
6489.180802
6492.444157
6489.91841
6488.443194
6488.152622
6493.89702
6495.372235
6488.309084
6488.353787
6485.604523
6487.75029
6497.160375
6506.726921
6493.539392
6479.860125
6488.912581
6490.924238
6485.291598
6490.790128
6494.433462
6497.070968
6498.859107
6487.303255
6485.291598
6488.532601
6488.219677
6486.319779
6485.895096
6495.394587
6501.474261
6491.885363
6491.103052
6496.467471
6495.953381
6487.884401
6485.358654
6488.13027
6497.518003
6497.562706
6491.483032
6482.609389
6482.251761
6481.134174
6483.883439
6481.558857
6488.532601
6499.775529
6496.33336
6494.209945
6499.730825
6500.982523
6502.949477
6511.644305
6523.289564
6521.613183
6519.512119
6521.724942
6526.687029
6533.906643
6540.880387
6531.537358
6528.810445
6530.710343
6530.844454
6539.047544
6540.589814
6539.852207
6535.02423
6525.636497
6529.90568
6533.526663
6534.934823
6535.67243
6540.634518
6538.846378
6536.655907
6529.436294
6527.961079
6536.164169
6536.454742
6536.030058
6532.453779
6532.453779
6534.823064
6537.169997
6534.599547
6540.254538
6538.198178
6533.884291
6537.013535
6536.05241
6531.447951
6534.621898
6534.13016
6530.330364
6531.760875
6530.442122
6526.06118
6535.717134
6545.797771
6541.193311
6531.202082
6531.894986
6544.389611
6536.342983
6531.760875
6533.549015
6532.766704
6530.173901
6531.671468
6533.437256
6535.515968
6538.555806
6533.660773
6530.866805
6533.549015
6530.643288
6526.754084
6526.843491
6537.84055
6544.50137
6530.375067
6530.956212
6544.724887
6540.656869
6525.614145
6527.424637
6535.806541
6538.153474
6532.744352
6530.933861
6538.600509
6543.406134
6543.897872
6530.889157
6530.777398
6537.259404
6540.880387
6540.813332
6538.86873
6540.120428
6531.403247
6526.083532
6521.523776
6528.899852
6537.348811
6538.689916
6539.785151
6532.453779
6528.162244
6531.738523
6533.504311
6537.549977
6537.795846
6536.030058
6527.424637
6530.240957
6549.977547
6541.193311
6532.498483
6530.553881
6531.939689
6531.82793
6528.631631
6534.666602
6546.624785
6547.58591
6536.678259
6524.585965
6530.486826
6532.699648
6531.246785
6537.684087
6532.498483
6534.733657
6534.577195
6533.124332
6538.511102
6539.472227
6530.330364
6531.760875
6534.845416
6538.108771
6537.549977
6536.253576
6532.610241
6534.890119
6541.796808
6543.897872
6545.954233
6539.449875
6537.527625
6538.153474
6536.275928
6541.953271
6549.910492
6545.171922
6540.098076
6535.180692
6531.671468
6538.444047
6556.347794
6553.039736
6545.574253
6536.342983
6527.33523
6527.737561
6535.337154
6540.478056
6542.735582
6540.723925
6539.852207
6538.712268
6539.740448
6534.197215
6525.949422
6526.329401
6538.935785
6551.184541
6549.597567
6537.013535
6527.625802
6527.044657
6529.816273
6533.370201
6528.944555
6534.331326
6542.936747
6539.114599
6537.058239
6538.935785
6531.805579
6527.134064
6537.929957
6534.264271
6527.446989
6535.180692
6535.40421
6537.058239
6537.371163
6541.908567
6544.568425
6533.012573
6527.98343
6528.095189
6540.388649
6531.112675
6531.716172
6536.477093
6529.90568
6532.565538
6532.20791
6528.922204
6532.476131
6536.678259
6524.116579
6524.675372
6544.50137
6547.742372
6539.7628
6539.472227
6538.667564
6530.062143
6531.269137
6530.553881
6534.688954
6535.515968
6536.745314
6536.298279
6534.957175
6529.436294
6539.226358
6533.437256
6529.682163
6541.81916
6540.366297
6538.689916
6533.660773
6529.682163
6531.962041
6533.124332
6527.648154
6522.350791
6523.714247
6535.314803
6537.348811
6535.40421
6535.001878
6540.835683
6537.907605
6527.514044
6527.961079
6529.369239
6533.169035
6535.694782
6537.59468
6535.515968
6530.822102
6529.749218
6530.397419
6538.48875
6532.632593
6532.386724
6533.794884
6541.729753
6538.891082
6529.928032
6528.36341
6529.793922
6536.007707
6539.874558
6542.243843
6548.524684
6537.929957
6523.870709
6523.334268
6527.379933
6528.810445
6526.374105
6520.026209
6508.11273
6506.682218
6503.932953
6504.134119
6511.107863
6511.599602
6513.924183
6519.534471
6522.864881
6515.019419
6514.39357
6507.263363
6505.475224
6514.617087
6510.772587
6512.60543
6513.588907
6512.828948
6511.309029
6512.650134
6513.566555
6511.331381
6516.382875
6513.87948
6507.196308
6509.722055
6512.583078
6507.598639
6507.688046
6507.844509
6506.659866
6506.950439
6509.923221
6509.185613
6511.376084
6512.761892
6510.593773
6502.457738
6501.250744
6510.124387
6504.290581
6500.311971
6506.123424
6509.051503
6517.120483
6518.349829
6521.479073
6519.534471
6515.265288
6509.118558
6510.079683
6506.056369
6498.032093
6498.568535
6507.643343
6506.861032
6508.045674
6509.878517
6513.052465
6511.890174
6505.497575
6505.788148
6506.637514
6510.03498
6505.408168
6505.899907
6511.331381
6498.076796
6497.026264
6504.670561
6512.001933
6514.01359
6501.161337
6492.399453
6509.722055
6523.62484
6506.548107
6496.758043
6504.111767
6507.799805
6502.591849
6502.144814
6506.212831
6506.503404
6512.516023
6513.87948
6504.648209
6498.970866
6505.743445
6505.29641
6497.719168
6504.335285
6521.724942
6526.664677
6511.19727
6513.790073
6532.252614
6535.068933
6525.167111
6531.31384
6534.241919
6530.106846
6526.351753
6525.457683
6528.542224
6530.598584
6529.033962
6523.513081
6527.759913
6533.437256
6536.499445
6532.386724
6521.233204
6525.748256
6522.484901
6515.93584
6524.317744
6530.375067
6531.17973
6522.261384
6525.278869
6532.789055
6527.178768
6517.902794
6520.16032
6530.553881
6530.866805
6520.67441
6524.049523
6539.114599
6533.549015
6510.102035
6513.63361
6526.351753
6526.239994
6527.268175
6528.296355
6521.993163
6527.46934
6523.177805
6520.585003
6516.539337
6525.234166
6525.882366
6518.685105
6514.415921
6517.142834
6518.953326
6536.164169
6539.829855
6518.305125
6512.896003
6519.445064
6521.814349
6527.782265
6526.374105
6531.380896
6518.394532
6514.281811
6518.171015
6517.433407
6523.669544
6517.031076
6526.843491
6526.865843
6517.768683
6512.896003
6518.349829
6523.714247
6525.524738
6515.265288
6518.193366
6527.201119
6518.819215
6514.706494
6523.781302
6531.716172
6526.865843
6516.069951
6510.280849
6510.526718
6520.607355
6519.378009
6520.830872
6524.161282
6516.427579
6513.924183
6511.71136
6517.299297
6525.636497
6524.965945
6506.570459
6523.736599
6534.241919
6521.479073
6514.214756
6515.80173
6534.800712
6530.777398
6503.262401
6510.772587
6507.285715
6508.716227
6520.629706
6526.217643
6529.659811
6541.193311
6531.067971
6514.550032
6520.29443
6510.482014
6521.367314
6533.839587
6524.451855
6515.220584
6516.941669
6505.788148
6509.699703
6532.431428
6531.492654
6525.480035
6521.993163
6518.394532
6508.805634
6516.025247
6523.848358
6523.893061
6524.116579
6524.965945
6511.621953
6515.332343
6516.807558
6510.258497
6511.666657
6516.807558
6530.576233
6522.239032
6506.905735
6510.526718
6517.455759
6513.343038
6510.526718
6523.177805
6529.570404
6514.974715
6506.793977
6512.963058
6519.914451
6522.283736
6527.670506
6520.003858
6504.804671
6502.144814
6506.302238
6519.176843
6532.252614
6527.111712
6524.563613
6517.634573
6508.291544
6514.39357
6522.037866
6515.578212
6522.060218
6530.352715
6527.379933
6512.404264
6513.097169
6521.724942
6520.942631
6527.201119
6532.789055
6513.521852
6505.43052
6511.71136
6527.759913
6521.1885
6517.120483
6520.137968
6519.757988
6510.526718
6506.302238
6511.666657
6526.06118
6535.203044
6521.412018
6529.190425
6530.553881
6520.585003
6522.484901
6521.56848
6514.728846
6516.740503
6515.55586
6510.772587
6510.996105
6519.959154
6520.853224
6525.725904
6532.029096
6522.261384
6509.945573
6503.441215
6506.145776
6516.874613
6525.882366
6526.06118
6530.106846
6526.552919
6513.343038
6510.146738
6518.707456
6521.322611
6522.864881
6512.292506
6508.62682
6514.661791
6520.920279
6521.210852
6521.255555
6526.508215
6524.608317
6518.148663
6511.756064
6504.290581
6503.597677
6520.272079
6525.770608
6521.322611
6514.438273
6512.381913
6508.291544
6507.553936
6510.884346
6520.003858
6523.557785
6520.763817
6525.949422
6522.350791
6503.977657
6502.256573
6526.44116
6526.910547
6519.109788
6515.578212
6516.807558
6518.439236
6514.39357
6517.500462
6513.521852
6512.046637
6515.779378
6518.774512
6510.996105
6515.488805
6525.077704
6519.378009
6511.264326
6513.812424
6519.13214
6513.566555
6511.130215
6520.897927
6514.102997
6502.435386
6506.570459
6505.117596
6504.044712
6496.668636
6492.310046
6507.86686
6514.572384
6508.38095
6501.787186
6500.490785
6493.00295
6490.320741
6507.062198
6509.431482
6493.829965
6494.120538
6499.261439
6500.893116
6503.485918
6500.133157
6498.188555
6503.217698
6502.6142
6497.897982
6498.7697
6494.500517
6500.17786
6511.040808
6509.051503
6495.662808
6497.74152
6507.844509
6501.429558
6495.349883
6494.321703
6504.78232
6510.973753
6503.664732
6493.986427
6491.550087
6497.115671
6493.449985
6497.473299
6496.735692
6500.401378
6507.822157
6483.704625
6476.574418
6480.217752
6487.794994
6508.872689
6507.978619
6502.077759
6490.320741
6486.096261
6494.858145
6487.459718
6488.666712
6498.568535
6490.320741
6489.806651
6486.185668
6484.15166
6490.656017
6510.54907
6516.159358
6489.136099
6482.140003
6499.462604
6510.616125
6512.516023
6500.602543
6480.82125
6485.224543
6494.165241
6503.50827
6515.846433
6501.988352
6496.84745
6494.768738
6494.120538
6500.468433
6510.929049
6507.442177
6501.273096
6496.802747
6487.727939
6494.835793
6503.575325
6514.617087
6509.699703
6489.359616
6485.269247
6499.619067
6507.665695
6501.049578
6496.646285
6495.483994
6502.748311
6509.990276
6500.311971
6500.401378
6501.45191
6496.176898
6491.885363
6499.507308
6512.60543
6502.211869
6503.910602
6498.054445
6503.910602
6512.046637
6503.50827
6499.194384
6490.56661
6493.539392
6503.50827
6499.619067
6494.41111
6501.094282
6514.997067
6502.167166
6484.464584
6496.758043
6488.13027
6488.376139
6499.104977
6519.668581
6520.227375
6498.881459
6495.126366
6492.421805
6503.597677
6519.26625
6522.842529
6511.666657
6503.932953
6500.781357
6501.809538
6501.027227
6508.515061
6529.145721
6530.777398
6512.583078
6493.76291
6494.522869
6502.122462
6504.424692
6518.439236
6526.06118
6504.424692
6490.007817
6494.277
6496.400415
6507.553936
6511.554898
6518.260422
6519.243898
6509.14091
6499.66377
6501.58602
6516.516985
6518.573346
6514.661791
6521.769645
6518.908622
6508.045674
6501.876593
6503.083587
6504.692913
6507.442177
6512.60543
6513.4995
6508.38095
6501.049578
6514.728846
6514.795901
6508.448006
6505.586982
6515.578212
6519.422712
6517.031076
6516.181709
6502.6142
6501.876593
6503.798843
6518.37218
6520.942631
6512.47132
6503.709436
6498.076796
6503.620029
6518.483939
6525.502387
6524.742427
6517.433407
6505.877555
6503.038884
6509.297372
6516.44993
6517.187538
6523.893061
6530.039791
6515.779378
6497.070968
6500.960171
6511.934878
6523.088398
6520.652058
6515.533509
6516.852262
6526.642326
6515.108826
6509.297372
6510.482014
6523.736599
6525.92707
6523.267212
6508.582116
6507.285715
6512.270154
6517.612221
6523.937765
6515.466453
6521.680238
6517.120483
6508.693875
6511.867823
6529.458646
6522.328439
6512.98541
6513.164224
6521.300259
6515.019419
6517.411055
6517.47811
6509.699703
6509.543241
6504.558802
6509.498538
6522.149625
6524.451855
6513.052465
6507.308067
6503.530622
6512.940706
6519.243898
6516.069951
6517.522814
6508.157433
6507.509232
6505.341113
6506.123424
6518.260422
6518.863919
6503.418863
6506.749273
6513.611259
6512.761892
6509.766759
6508.403302
6512.203099
6525.368276
6523.222509
6513.87948
6506.726921
6508.515061
6512.046637
6509.744407
6524.943593
6527.402285
6516.338172
6511.19727
6510.884346
6512.337209
6519.199195
6517.656924
6510.906698
6532.386724
6528.206948
6519.64623
6518.573346
6523.043695
6527.961079
6512.180747
6511.71136
6521.680238
6530.486826
6521.993163
6515.108826
6518.171015
6520.093265
6523.267212
6522.574308
6523.669544
6522.373143
6510.392607
6514.01359
6527.268175
6522.753122
6523.244861
6524.988297
6527.536395
6514.170052
6512.046637
6521.099093
6521.657887
6514.080645
6516.628744
6520.249727
6527.491692
6525.904718
6515.42175
6520.428541
6518.685105
6517.72398
6519.601526
6523.133102
6515.757026
6519.534471
6517.008724
6518.37218
6515.332343
6516.584041
6516.673448
6522.59666
6524.429503
6519.243898
6520.987334
6511.510195
6514.505328
6519.445064
6522.104922
6523.960116
6518.819215
6521.143797
6521.881404
6514.214756
6510.079683
6508.984448
6515.600564
6519.825044
6521.836701
6516.695799
6513.521852
6514.415921
6511.443139
6516.785206
6521.836701
6528.542224
6530.084494
6520.987334
6506.637514
6509.699703
6517.813387
6505.341113
6507.822157
6522.306087
6524.988297
6518.729808
6523.468378
6525.815311
6525.435332
6515.42175
6508.11273
6514.751198
6529.011611
6516.628744
6513.723017
6524.720076
6531.202082
6521.657887
6519.623878
6520.272079
6510.996105
6503.88825
6513.253631
6517.85809
6521.970811
6527.871672
6521.166148
6519.981506
6515.667619
6521.814349
6513.790073
6515.354695
6515.667619
6504.648209
6503.709436
6513.834776
6513.208927
6511.152567
6502.323628
6493.852317
6498.836756
6501.653075
6482.207058
6481.134174
6491.125404
6494.992256
6494.724035
6491.639494
6491.997122
6494.79109
6493.226468
6492.265343
6490.633665
6496.132195
6503.865898
6502.681256
6494.209945
6494.209945
6500.647247
6485.82804
6485.582171
6500.423729
6496.735692
6492.421805
6501.183689
6508.023323
6501.764834
6489.963113
6491.728901
6495.774567
6493.00295
6493.226468
6497.830927
6504.40234
6502.815366
6499.619067
6502.904773
6498.076796
6494.567572
6501.45191
6506.369293
6503.88825
6497.160375
6501.183689
6496.042788
6496.869802
6506.771625
6515.622916
6511.174919
6502.547145
6502.837718
6510.146738
6499.14968
6496.33336
6512.381913
6508.023323
6503.620029
6494.902849
6496.221602
6500.647247
6507.419825
6508.202137
6500.535488
6504.78232
6512.203099
6503.575325
6506.078721
6511.95723
6514.304163
6512.672485
6529.056314
6531.537358
6518.036904
6523.691895
6527.245823
6520.763817
6522.261384
6529.190425
6531.358544
6519.579174
6524.451855
6530.531529
6519.936802
6526.731733
6537.348811
6532.163207
6522.529605
6516.159358
6522.529605
6524.429503
6531.045619
6531.045619
6529.324535
6530.240957
6522.97664
6520.473244
6527.670506
6537.259404
6531.157378
6527.022305
6529.749218
6527.379933
6522.015515
6532.230262
6529.503349
6527.446989
6532.319669
6529.123369
6525.971773
6527.46934
6542.780285
6549.37405
6529.838625
6522.641363
6519.310954
6514.102997
6513.410093
6520.830872
6528.8775
6517.47811
6506.70457
6515.891137
6522.686067
6518.908622
6514.281811
6513.141872
6516.96402
6512.09134
6509.967924
6518.819215
6521.70259
6511.264326
6511.398436
6514.147701
6511.823119
6512.158395
6513.63361
6512.314858
6512.225451
6515.846433
6514.661791
6508.850337
6512.60543
6514.01359
6510.638477
6513.208927
6521.389666
6525.122407
6525.681201
6519.378009
6508.984448
6511.867823
6516.360523
6510.996105
6516.047599
6520.920279
6520.875576
6518.729808
6516.785206
6523.62484
6512.896003
6502.725959
6511.912526
6515.689971
6520.920279
6516.382875
6512.337209
6519.534471
6524.65302
6523.826006
6525.524738
6526.865843
6515.958192
6508.358599
6509.811462
6510.325552
6519.176843
6517.768683
6515.913488
6521.613183
6524.3848
6516.606392
6515.891137
6517.388704
6512.493671
6521.590831
6522.820177
6516.896965
6510.772587
6509.543241
6525.725904
6535.40421
6528.966907
6514.862956
6507.129253
6504.625857
6511.934878
6517.902794
6523.155454
6522.417846
6511.979581
6510.146738
6514.706494
6509.990276
6505.229355
6511.286677
6524.831834
6512.09134
6506.034017
6509.990276
6512.650134
6508.559764
6510.437311
6503.284753
6505.855203
6518.595698
6517.85809
6514.550032
6514.304163
6508.62682
6504.379988
6508.11273
6512.493671
6510.526718
6513.208927
6518.036904
6509.900869
6506.883384
6507.464529
6513.030113
6522.931936
6520.205023
6520.964983
6518.394532
6515.444102
6512.739541
6509.587945
6505.005837
6501.004875
6501.027227
6501.988352
6507.285715
6521.143797
6522.775474
6507.062198
6505.229355
6513.030113
6512.538375
6508.649171
6499.976695
6519.199195
6519.243898
6508.24684
6507.553936
6513.968887
6515.131177
6514.482977
6516.96402
6510.593773
6518.126311
6513.723017
6498.814404
6506.257535
6519.713285
6515.913488
6509.029151
6512.98541
6517.366352
6509.006799
6522.954288
6518.863919
6510.929049
6508.872689
6504.670561
6504.491747
6503.709436
6498.076796
6492.377101
6486.677407
6484.375177
6482.207058
6492.555915
6488.018511
6493.271171
6503.485918
6493.204116
6480.910657
6486.677407
6497.36154
6499.484956
6497.853279
6497.562706
6502.636552
6497.965038
6490.812479
6487.012683
6493.360578
6497.272134
6496.266305
6501.898945
6500.244916
6499.350846
6500.289619
6488.756119
6490.387796
6493.89702
6489.694892
6490.745424
6492.332398
6491.818308
6492.935895
6494.031131
6487.035035
6491.997122
6500.93782
6488.443194
6494.433462
6497.22743
6496.087491
6481.044767
6480.418918
6493.76291
6493.226468
6488.890229
6500.110805
6496.221602
6491.706549
6498.479128
6488.13027
6484.196363
6490.745424
6499.440253
6497.160375
6490.521907
6485.82804
6485.135136
6493.718206
6490.700721
6490.857183
6498.680293
6492.533564
6492.153584
6493.472337
6492.667674
6488.376139
6491.438328
6487.839697
6490.812479
6493.986427
6491.617142
6485.001026
6489.694892
6492.712378
6488.063215
6498.792052
6496.646285
6488.532601
6496.243953
6494.992256
6484.174011
6492.712378
6490.901886
6496.579229
6497.763872
6495.104014
6490.790128
6485.783337
6488.957285
6495.573401
6490.141927
6491.863011
6494.209945
6496.221602
6494.120538
6496.84745
6502.033055
6499.462604
6487.459718
6493.628799
6492.846488
6492.578267
6489.426671
6486.431537
6492.198288
6492.511212
6488.197325
6487.2362
6489.136099
6491.483032
6493.986427
6503.418863
6497.853279
6493.338226
6487.906753
6481.84943
6486.543296
6500.066102
6501.630724
6487.303255
6480.463622
6488.242029
6499.283791
6495.238125
6499.641418
6515.55586
6513.052465
6503.597677
6509.699703
6510.102035
6508.537413
6506.257535
6500.781357
6506.726921
6511.912526
6508.11273
6508.872689
6509.610296
6510.817291
6513.946535
6509.364427
6511.152567
6514.080645
6514.818253
6508.850337
6506.615163
6517.232241
6518.148663
6519.601526
6517.344
6506.615163
6513.745369
6520.249727
6515.958192
6510.973753
6515.779378
6515.198233
6513.11952
6511.934878
6522.328439
6515.332343
6506.011666
6510.370256
6504.089416
6507.978619
6512.448968
6512.47132
6513.544203
6511.107863
6511.264326
6522.551956
6520.585003
6516.002895
6515.533509
6499.797881
6505.832852
6514.617087
6514.281811
6507.062198
6510.191442
6520.585003
6520.137968
6513.723017
6510.437311
6506.749273
6504.871727
6506.861032
6514.840605
6515.108826
6510.660828
6510.638477
6506.905735
6512.09134
6517.72398
6519.176843
6520.719113
6511.286677
6491.46068
6486.140965
6493.606447
6499.194384
6498.523831
6503.843546
6497.920334
6482.87761
6464.482124
6454.960281
6463.476296
6474.16043
6478.809593
6479.793069
6477.11086
6469.55597
6477.066157
6473.087546
6465.510305
6470.31593
6485.850392
6486.34213
6476.350901
6473.311063
6473.26636
6475.792107
6487.258552
6484.956322
6470.807668
6467.566665
6471.47822
6471.813497
6471.746441
6473.64634
6478.809593
6469.690081
6463.65511
6474.048671
6484.576343
6478.563723
6470.96413
6472.774622
6475.546238
6473.154601
6472.618159
6477.669654
6480.508325
6481.201229
6472.148773
6473.936912
6472.148773
6475.859162
6472.484049
6459.900017
6470.248874
6477.580247
6493.181764
6498.210907
6487.392662
6494.746386
6490.857183
6488.800822
6501.809538
6509.476186
6510.817291
6501.630724
6501.943648
6509.230317
6504.625857
6505.207003
6499.507308
6504.223526
6513.4995
6510.973753
6501.45191
6502.457738
6498.792052
6497.562706
6507.173956
6516.96402
6513.36539
6500.490785
6499.864936
6505.475224
