Detector 2,,,,,,,,Detector 4,,,,,,,,Detector 6,,,,,,,,Detector 8,,,,,,,,Detector 10,,,,,,,,Detector 12,,,,,,,,Detector 14,,,,,,,,Detector 16,,,,,,,
"RED1,2,3,4","IR1,2,3,4 ","RED5,6,7,8","IR5,6,7,8 ","RED9,10,11,12","IR9,10,11,12 ","RED13,14,15,16","IR13,14,15,16 ","RED1,2,3,4","IR1,2,3,4 ","RED5,6,7,8","IR5,6,7,8 ","RED9,10,11,12","IR9,10,11,12 ","RED13,14,15,16","IR13,14,15,16 ","RED1,2,3,4","IR1,2,3,4 ","RED5,6,7,8","IR5,6,7,8 ","RED9,10,11,12","IR9,10,11,12 ","RED13,14,15,16","IR13,14,15,16 ","RED1,2,3,4","IR1,2,3,4 ","RED5,6,7,8","IR5,6,7,8 ","RED9,10,11,12","IR9,10,11,12 ","RED13,14,15,16","IR13,14,15,16 ","RED1,2,3,4","IR1,2,3,4 ","RED5,6,7,8","IR5,6,7,8 ","RED9,10,11,12","IR9,10,11,12 ","RED13,14,15,16","IR13,14,15,16 ","RED1,2,3,4","IR1,2,3,4 ","RED5,6,7,8","IR5,6,7,8 ","RED9,10,11,12","IR9,10,11,12 ","RED13,14,15,16","IR13,14,15,16 ","RED1,2,3,4","IR1,2,3,4 ","RED5,6,7,8","IR5,6,7,8 ","RED9,10,11,12","IR9,10,11,12 ","RED13,14,15,16","IR13,14,15,16 ","RED1,2,3,4","IR1,2,3,4 ","RED5,6,7,8","IR5,6,7,8 ","RED9,10,11,12","IR9,10,11,12 ","RED13,14,15,16","IR13,14,15,16 "
21071,65535,2260,192,168,159,163,161,36730,65535,3283,265,227,225,220,219,3708,14226,324,192,174,174,171,174,11045,25822,902,654,609,609,606,605,301,457,32226,28867,58170,52651,944,328,343,363,31162,28366,17360,12596,493,352,1600,7411,32627,32751,34596,33727,32266,16188,2152,6292,65535,65535,33503,31789,31447,16145
20830,65535,2265,192,167,164,160,157,36453,65535,3276,267,228,223,221,219,3658,14218,321,195,171,170,173,169,10933,25791,900,655,610,606,604,604,309,463,32258,28919,58394,53199,952,330,341,364,31227,28437,17383,12639,494,353,1786,7436,32723,33007,34639,33873,32270,16194,2340,6330,65535,65535,33645,31987,31457,16145
20912,65535,2331,196,165,163,161,158,36466,65535,3285,267,229,223,220,220,3640,14129,324,193,171,173,170,170,10837,25507,897,652,607,610,605,601,313,465,32305,29009,58455,53261,956,329,343,367,31329,28588,17397,12669,496,355,1792,7447,33167,33298,34614,33867,32251,16192,2361,6382,65535,65535,33651,31979,31444,16151
20948,65535,2333,194,167,164,162,159,36531,65535,3272,266,228,226,221,218,3663,14247,324,193,169,171,170,168,10876,25616,894,651,607,606,605,607,313,469,32397,29107,58285,53005,953,334,342,366,31344,28654,17438,12717,497,357,1791,7461,33108,33243,34602,33854,32260,16206,2378,6430,65535,65535,33767,32094,31481,16169
20972,65535,2381,193,163,163,160,160,36665,65535,3336,267,229,226,223,219,3688,14373,328,192,169,172,171,173,10965,25804,903,653,608,605,605,600,312,467,32451,29164,57890,53129,955,328,344,367,31439,28786,17457,12756,499,356,1794,7490,32796,32917,34607,33925,32281,16217,2383,6463,65535,65535,33650,32087,31515,16195
20979,65535,2374,194,166,160,161,159,36756,65535,3328,266,233,226,220,220,3701,14448,327,193,175,175,169,173,10991,25877,899,650,604,604,600,597,315,469,32543,29273,58260,53000,954,327,347,370,31491,28900,17490,12755,499,357,1795,7506,33023,33254,34630,33891,32285,16227,2386,6500,65535,65535,33670,31983,31491,16188
20893,65535,2300,194,168,163,160,167,36520,65535,3243,265,228,227,218,218,3682,14236,325,192,173,173,171,173,10918,25680,891,645,599,597,597,592,313,466,32459,29099,58103,52753,949,328,344,370,31294,28500,17423,12615,495,353,1793,7462,33071,33183,34497,33686,32232,16181,2370,6374,65535,65535,33639,31919,31415,16121
20707,65535,2159,203,175,166,161,158,36034,65535,3104,266,227,224,219,219,3634,14040,323,191,171,175,171,172,10816,25496,888,645,598,598,597,593,313,462,32228,28837,57895,52529,947,326,342,366,30955,28045,17279,12471,491,355,1782,7367,32927,33055,34359,33503,32160,16142,2337,6242,65535,65535,33385,31691,31328,16077
20653,65535,2142,194,167,165,160,166,35835,65535,3087,265,228,223,219,219,3622,13987,323,192,170,171,171,173,10791,25400,890,645,600,600,601,596,312,462,32114,28713,57823,52461,946,327,341,367,30830,27853,17213,12407,492,351,1775,7318,32572,32872,34307,33408,32123,16113,2321,6194,65535,65535,33359,31693,31326,16065
20616,65535,2096,193,169,162,163,157,35744,65535,3045,264,230,223,220,219,3616,13967,320,191,172,170,169,172,10775,25313,887,645,603,602,600,596,311,460,32026,28607,57386,52127,940,327,343,363,30798,27814,17164,12372,491,356,1771,7292,32307,32554,34237,33311,32095,16093,2318,6181,65535,65535,33218,31586,31316,16063
20637,65535,2136,193,167,164,161,158,35789,65535,3103,265,228,222,218,216,3623,14018,323,191,169,173,174,172,10778,25279,885,643,600,596,593,592,308,460,32115,28723,58141,52721,948,328,344,364,30836,27915,17197,12411,491,354,1769,7296,32870,33014,34201,33314,32044,16071,2324,6214,65535,65535,33319,31665,31276,16048
20635,65535,2114,193,171,166,162,162,35804,65535,3067,263,231,226,221,221,3623,14023,319,191,175,176,171,171,10768,25244,879,641,597,595,596,593,311,461,32161,28787,58557,53281,955,329,341,367,30895,28001,17238,12459,495,357,1769,7279,33191,33237,34141,33321,32011,16051,2328,6231,65535,65535,33460,31823,31276,16049
20633,65535,2139,194,167,164,161,159,35846,65535,3109,263,228,223,218,220,3627,14059,324,193,171,171,173,172,10799,25268,885,642,600,598,597,595,310,465,32329,29005,59849,54327,974,332,345,368,30961,28147,17314,12520,498,361,1770,7288,34325,34073,34152,33391,31955,16031,2337,6271,65535,65535,33809,32020,31227,16041
20667,65535,2150,196,171,167,161,156,35926,65535,3122,265,229,227,219,217,3633,14099,324,192,173,175,171,169,10812,25333,883,642,599,599,599,597,309,466,32362,29044,59655,54345,973,331,345,371,31093,28345,17335,12556,497,356,1771,7294,34076,33969,34134,33411,31927,16026,2348,6332,65535,65535,33875,32101,31273,16071
20713,65535,2211,196,168,175,163,162,36019,65535,3195,265,228,224,220,219,3639,14135,328,191,170,172,173,172,10819,25383,889,645,605,605,603,602,313,467,32402,29075,59255,54052,970,333,344,368,31221,28523,17364,12598,501,361,1769,7307,33841,33701,34147,33417,31953,16045,2359,6379,65535,65535,33930,32171,31344,16112
20737,65535,2213,196,168,163,162,157,36131,65535,3184,265,229,224,218,219,3652,14213,325,193,172,174,172,169,10859,25439,892,653,606,604,601,598,320,468,32501,29156,59038,53668,966,334,349,375,31340,28679,17421,12641,503,361,1775,7339,33615,33572,34194,33440,32022,16086,2372,6426,65535,65535,34081,32273,31396,16135
20778,65535,2274,190,170,163,160,160,36223,65535,3247,263,228,224,222,219,3659,14259,327,193,171,177,171,171,10884,25510,893,647,603,601,601,600,318,472,32541,29217,58580,53247,962,335,351,375,31458,28861,17446,12678,503,359,1777,7374,33424,33460,34204,33443,32063,16109,2386,6480,65535,65535,34136,32299,31495,16183
20838,65535,2291,193,167,163,157,159,36319,65535,3250,266,232,224,221,219,3659,14269,325,194,174,172,170,172,10903,25599,893,648,604,603,603,598,317,475,32603,29287,58708,53548,962,332,349,373,31576,28998,17502,12738,503,363,1784,7407,33390,33517,34271,33561,32098,16123,2395,6525,65535,65535,34271,32463,31601,16222
20791,65535,2249,193,169,165,155,161,36233,65535,3195,266,229,219,221,220,3650,14133,327,192,171,176,170,171,10881,25472,891,650,605,601,603,594,316,469,32574,29195,58862,53459,959,330,349,372,31449,28671,17497,12664,501,355,1781,7379,33773,33747,34267,33509,32096,16107,2387,6445,65535,65535,34423,32553,31607,16179
20579,65535,2101,191,170,157,165,159,35793,65535,3046,266,228,223,220,214,3616,13959,319,195,171,170,170,172,10801,25287,884,646,600,601,598,595,312,463,32351,28922,58483,53123,957,327,343,365,31131,28170,17363,12535,494,355,1774,7298,33650,33629,34207,33394,32093,16090,2355,6302,65535,65535,34411,32565,31623,16166
20532,65535,2093,196,168,166,162,155,35693,65535,3052,265,228,223,219,219,3614,13960,322,193,174,172,171,170,10797,25239,886,646,599,601,599,593,311,462,32295,28847,58543,53127,953,328,339,364,31020,27980,17308,12488,495,351,1771,7277,33863,33745,34179,33343,32079,16076,2347,6270,65535,65535,34372,32503,31622,16148
20516,65535,2059,190,170,163,159,162,35673,65535,3016,263,229,220,219,218,3614,13963,318,191,175,171,169,169,10795,25219,883,644,600,600,597,594,312,463,32287,28839,58930,53522,957,327,339,362,30959,27905,17297,12494,493,352,1769,7257,34055,33913,34180,33362,32069,16060,2342,6253,65535,65535,34361,32543,31623,16141
20544,65535,2095,193,168,163,163,160,35750,65535,3069,263,227,223,219,225,3628,14021,322,191,174,175,170,171,10828,25229,885,644,599,598,597,595,311,466,32359,28917,59563,54130,967,327,342,364,30982,27951,17319,12522,494,353,1771,7262,34677,34331,34177,33404,32047,16053,2343,6270,65535,65535,34402,32572,31617,16136
20541,65535,2074,193,166,162,162,160,35812,65535,3044,265,233,223,221,216,3631,14026,323,197,170,171,170,170,10841,25236,884,643,601,600,597,594,310,463,32335,28879,59223,53759,959,327,341,365,30979,27961,17292,12500,492,355,1769,7254,34521,34151,34139,33337,32057,16053,2339,6261,65535,65535,34149,32389,31590,16128
20569,65535,2114,193,167,163,160,158,35851,65535,3093,263,228,222,220,216,3641,14059,322,201,171,170,171,171,10854,25264,887,643,599,599,600,594,312,462,32336,28879,58891,53439,959,327,346,367,31012,28022,17294,12511,495,354,1769,7256,34225,33952,34115,33291,32074,16067,2340,6275,65535,65535,34059,32335,31590,16129
20614,65535,2122,192,167,166,160,160,35935,65535,3092,266,233,227,218,221,3643,14111,325,196,171,175,172,170,10884,25317,886,646,602,601,600,597,312,463,32400,28986,59327,54093,966,329,343,369,31081,28153,17332,12578,498,356,1770,7271,34207,34087,34127,33374,32071,16064,2348,6308,65535,65535,34124,32459,31617,16148
20647,65535,2173,197,169,163,162,158,36079,65535,3154,267,230,223,225,220,3659,14171,329,193,172,171,171,169,10943,25338,893,652,607,606,604,601,316,465,32492,29078,59382,54044,968,329,343,367,31188,28319,17359,12603,498,356,1772,7296,34593,34249,34131,33394,32077,16085,2352,6338,65535,65535,34100,32389,31647,16169
20696,65535,2182,193,168,164,162,161,36230,65535,3169,266,230,225,221,221,3667,14216,323,191,171,173,172,171,10981,25444,895,653,611,605,604,601,314,466,32527,29131,59214,53993,965,332,345,369,31289,28463,17392,12651,500,356,1778,7325,34339,34153,34165,33442,32123,16104,2361,6381,65535,65535,34037,32418,31699,16187
20738,65535,2240,195,168,163,161,162,36327,65535,3235,269,230,225,225,219,3675,14266,327,193,173,171,172,173,11015,25604,895,651,606,606,603,601,314,468,32633,29275,59852,54745,976,332,348,369,31352,28571,17468,12741,502,356,1781,7349,34721,34529,34210,33575,32121,16106,2373,6429,65535,65535,34325,32727,31764,16217
20785,65535,2252,192,168,163,164,161,36440,65535,3233,266,229,224,222,218,3684,14329,325,193,172,173,170,173,11052,25741,896,651,610,604,605,600,316,469,32742,29408,59863,54747,977,335,346,366,31429,28695,17510,12785,502,359,1782,7373,34965,34653,34242,33623,32151,16133,2383,6470,65535,65535,34458,32800,31814,16241
20818,65535,2290,196,170,165,163,159,36514,65535,3273,266,230,225,221,217,3694,14341,331,192,171,173,171,173,11100,25830,901,652,609,605,603,600,316,471,32793,29425,59721,54429,974,331,347,371,31475,28694,17522,12764,501,359,1788,7397,35101,34720,34258,33593,32171,16136,2390,6481,65535,65535,34443,32747,31802,16207
20649,65535,2122,193,168,165,163,161,36194,65535,3094,265,229,225,221,217,3660,14067,324,192,172,171,171,174,11018,25610,894,651,606,607,603,599,316,466,32526,29074,58703,53379,959,329,347,368,31164,28150,17371,12574,496,355,1781,7313,34518,34231,34130,33339,32173,16117,2359,6316,65535,65535,34206,32559,31783,16186
20612,65535,2121,193,167,165,162,159,36049,65535,3107,266,227,221,220,222,3650,14039,324,192,172,172,172,171,11010,25572,895,650,603,604,601,597,314,463,32455,29015,59071,53698,963,329,346,365,31028,27951,17320,12530,495,354,1780,7286,34866,34491,34094,33306,32147,16100,2352,6289,65535,65535,34331,32636,31792,16177
20622,65535,2091,192,168,167,162,160,36067,65535,3075,265,229,225,221,214,3650,14037,323,192,173,175,173,172,11015,25563,891,648,604,602,600,599,313,466,32427,28982,59219,53859,962,332,343,365,30983,27879,17309,12525,494,352,1775,7269,34927,34515,34082,33297,32122,16085,2351,6275,65535,65535,34351,32675,31783,16167
20652,65535,2137,195,166,163,159,159,36119,65535,3132,268,228,223,221,219,3661,14093,323,194,171,170,173,171,11033,25604,893,646,602,601,600,597,312,463,32431,28985,59006,53687,961,329,341,363,31026,27981,17310,12540,496,357,1775,7273,34710,34361,34097,33310,32136,16093,2355,6298,65535,65535,34271,32615,31792,16168
20691,65535,2131,194,170,164,163,158,36264,65535,3122,267,232,223,225,219,3677,14133,322,192,174,173,171,175,11052,25634,891,648,603,603,599,597,312,466,32458,29005,58917,53555,959,329,342,364,31063,28031,17325,12548,494,358,1778,7284,34735,34351,34098,33292,32150,16099,2358,6312,65535,65535,34220,32574,31799,16175
20716,65535,2167,194,170,164,162,159,36316,65535,3172,270,228,224,224,218,3684,14170,325,193,169,173,176,170,11063,25666,893,647,604,602,601,597,313,463,32473,29026,58755,53475,960,329,343,364,31106,28105,17339,12569,498,355,1776,7289,34521,34198,34113,33303,32175,16114,2360,6331,65535,65535,34176,32555,31823,16185
20755,65535,2179,194,167,164,164,159,36418,65535,3169,265,228,224,219,223,3692,14227,323,197,170,173,171,166,11091,25729,891,649,604,600,602,597,313,465,32542,29115,58989,53739,963,327,343,366,31181,28240,17380,12615,497,353,1782,7313,34622,34325,34149,33369,32189,16120,2369,6362,65535,65535,34218,32606,31857,16203
20805,65535,2234,192,167,163,165,160,36530,65535,3233,266,229,222,221,220,3705,14289,327,192,173,178,174,170,11123,25807,898,650,602,601,599,595,315,466,32619,29218,59186,54010,968,330,345,367,31283,28406,17427,12670,496,354,1785,7340,34735,34442,34193,33449,32206,16138,2375,6402,65535,65535,34221,32635,31883,16222
20858,65535,2249,194,170,165,161,159,36637,65535,3233,266,233,224,220,219,3718,14353,326,196,175,183,178,173,11152,25887,899,648,604,606,602,599,313,469,32714,29325,59398,54242,969,331,344,367,31373,28561,17477,12730,499,356,1786,7372,34871,34586,34240,33526,32226,16158,2386,6441,65535,65535,34219,32643,31903,16238
20907,65535,2309,195,169,165,160,163,36763,65535,3298,270,230,226,219,219,3727,14416,330,193,176,173,173,177,11184,25969,901,651,607,605,604,599,314,472,32783,29401,59414,54279,971,333,343,371,31473,28718,17522,12775,503,358,1791,7403,34891,34596,34281,33577,32257,16178,2395,6479,65535,65535,34278,32671,31942,16261
20957,65535,2321,193,168,165,162,162,36855,65535,3292,268,230,225,222,220,3742,14477,328,197,172,177,167,171,11213,26056,902,652,609,606,606,602,314,468,32858,29481,59170,54023,967,332,345,371,31591,28895,17558,12819,503,359,1797,7437,34754,34500,34324,33619,32297,16205,2403,6523,65535,65535,34289,32661,31996,16291
21003,65535,2382,195,170,165,161,159,36959,65535,3345,266,229,225,219,220,3755,14542,329,194,169,172,173,162,11244,26144,908,654,612,609,607,602,315,473,32925,29557,59203,54100,971,331,348,370,31708,29038,17591,12844,503,357,1802,7476,34721,34529,34374,33675,32331,16221,2413,6561,65535,65535,34354,32686,32017,16287
20899,65535,2241,192,170,164,159,160,36838,65535,3209,265,229,225,220,219,3740,14318,328,193,175,174,174,175,11183,25925,899,651,606,606,603,599,316,469,32770,29307,58545,53166,957,330,345,366,31432,28523,17497,12672,499,357,1799,7407,34475,34222,34267,33441,32332,16209,2397,6420,65535,65535,34255,32530,31963,16247
20835,65535,2217,194,168,163,162,160,36623,65535,3200,265,228,225,221,218,3716,14242,323,191,170,171,172,173,11170,25853,900,650,606,604,606,601,314,466,32593,29081,57660,52327,949,330,343,368,31259,28280,17377,12571,500,355,1790,7367,33925,33777,34218,33315,32361,16211,2379,6362,65535,65535,34071,32370,31956,16238
20855,65535,2200,193,167,163,161,159,36650,65535,3177,267,230,224,220,220,3722,14261,321,193,172,173,172,170,11182,25839,899,653,607,605,604,603,315,467,32565,29059,57904,52702,951,331,346,367,31247,28259,17366,12574,497,355,1792,7366,33874,33829,34223,33343,32358,16203,2379,6361,65535,65535,34099,32433,31969,16240
20880,65535,2240,194,167,163,160,160,36711,65535,3227,271,229,223,222,221,3724,14300,327,198,170,174,171,171,11204,25873,901,653,607,605,604,602,314,470,32611,29141,58406,53217,959,331,343,368,31313,28376,17398,12625,499,356,1792,7369,34311,34150,34247,33411,32344,16198,2383,6380,65535,65535,34222,32535,32002,16251
20919,65535,2241,200,167,163,162,161,36873,65535,3227,266,229,225,220,220,3740,14353,326,193,172,172,172,171,11241,25939,900,652,607,606,604,603,313,466,32655,29179,58309,53003,956,333,344,368,31366,28456,17415,12638,499,356,1792,7380,34407,34157,34245,33389,32359,16206,2391,6405,65535,65535,34223,32497,32009,16257
20948,65535,2285,193,166,162,159,160,36930,65535,3274,269,230,225,223,221,3747,14383,329,194,170,171,176,171,11263,26003,905,655,609,606,606,603,318,467,32652,29180,58071,52854,956,332,345,371,31417,28535,17428,12663,502,357,1795,7392,34071,33990,34273,33407,32389,16223,2396,6429,65535,65535,34211,32505,32043,16274
20985,65535,2289,198,167,167,164,159,37025,65535,3270,268,231,229,221,222,3753,14440,328,193,171,177,171,171,11289,26085,905,657,611,608,607,603,316,469,32711,29246,58159,53026,958,332,347,372,31491,28665,17466,12715,503,359,1798,7415,34103,34033,34299,33468,32412,16234,2403,6465,65535,65535,34276,32585,32084,16296
21026,65535,2346,196,168,163,163,159,37135,65535,3327,271,229,229,222,220,3763,14499,329,193,177,174,170,170,11328,26180,912,657,611,610,609,607,316,469,32800,29356,58323,53166,962,333,346,372,31579,28811,17519,12769,504,360,1803,7440,34313,34189,34341,33532,32426,16250,2414,6504,65535,65535,34391,32658,32130,16319
21069,65535,2355,196,171,163,162,163,37246,65535,3324,273,235,227,221,221,3777,14563,329,196,176,173,169,169,11364,26284,909,660,613,613,610,610,318,471,32894,29475,58725,53650,965,335,350,375,31695,28973,17569,12834,505,359,1806,7472,34460,34387,34409,33646,32450,16259,2426,6550,65535,65535,34516,32749,32170,16338
21111,65535,2416,198,168,163,162,159,37371,65535,3383,270,229,225,227,223,3787,14625,332,194,173,171,171,171,11401,26390,917,663,617,614,609,612,316,474,32970,29561,58985,53953,970,334,347,373,31765,29100,17616,12884,507,360,1807,7499,34793,34610,34453,33723,32461,16273,2435,6586,65535,65535,34621,32843,32204,16354
21150,65535,2421,199,172,166,164,159,37485,65535,3373,269,231,226,223,220,3797,14676,331,198,174,177,178,172,11443,26483,917,663,617,619,615,612,317,474,33045,29645,59283,54310,975,337,349,375,31849,29233,17670,12949,508,362,1811,7527,35054,34816,34503,33812,32483,16291,2442,6620,65535,65535,34795,33012,32250,16379
21199,65535,2481,196,169,164,159,160,37578,65535,3425,271,231,223,223,224,3804,14727,335,194,173,175,171,177,11482,26580,921,664,618,617,618,612,318,476,33138,29755,59415,54399,977,335,349,377,31966,29394,17718,12993,510,363,1816,7558,35265,34967,34542,33862,32492,16301,2453,6655,65535,65535,34942,33106,32284,16388
21145,65535,2380,195,169,163,161,163,37561,65535,3327,270,231,225,227,221,3799,14573,329,194,172,171,172,173,11463,26477,916,663,619,615,613,613,318,477,33034,29566,58687,53355,962,336,349,374,31812,29021,17653,12847,506,360,1814,7516,35014,34681,34471,33658,32502,16294,2448,6559,65535,65535,34847,32954,32251,16343
21040,65535,2334,195,170,163,160,159,37287,65535,3321,269,229,224,221,219,3775,14458,328,197,173,172,171,172,11417,26401,919,662,617,613,614,610,319,470,32809,29318,57938,52724,956,334,351,373,31583,28702,17526,12741,505,360,1809,7461,34379,34261,34422,33543,32514,16290,2425,6482,65535,65535,34733,32865,32255,16341
21069,65535,2327,198,170,163,161,159,37271,65535,3301,269,234,226,220,220,3775,14490,330,194,175,173,170,170,11425,26429,917,661,615,613,615,607,317,469,32773,29277,57933,52915,957,333,347,373,31569,28687,17507,12740,503,359,1809,7458,34125,34134,34427,33559,32512,16281,2428,6495,65535,65535,34715,32900,32266,16341
21087,65535,2364,195,169,162,164,158,37332,65535,3346,265,230,229,222,221,3781,14531,330,196,176,172,174,172,11447,26466,919,661,616,611,611,610,315,466,32832,29370,58650,53632,967,332,346,372,31620,28798,17536,12787,503,361,1807,7465,34752,34579,34437,33625,32479,16264,2430,6502,65535,65535,34809,32982,32271,16343
21099,65535,2349,193,169,163,162,159,37470,65535,3324,268,230,224,221,219,3794,14567,329,193,171,173,174,174,11486,26408,915,658,615,614,613,610,315,472,32896,29415,59006,53861,967,335,346,371,31646,28821,17564,12803,506,362,1809,7471,35034,34742,34439,33634,32480,16267,2430,6505,65535,65535,34758,32926,32240,16333
21105,65535,2375,196,167,165,162,159,37595,65535,3370,270,230,225,226,221,3774,14505,330,190,170,175,171,170,11545,26437,919,663,617,616,615,611,317,471,32917,29444,58778,53498,965,333,348,375,31690,28905,17581,12822,507,361,1813,7493,35109,34742,34424,33595,32496,16281,2425,6493,65535,65535,34651,32839,32253,16351
21133,65535,2377,198,167,165,162,161,37841,65535,3386,271,232,228,223,222,3791,14595,330,193,169,174,173,172,11565,26575,916,664,618,615,614,614,317,474,32984,29540,59187,54019,972,336,349,375,31781,29045,17642,12887,507,362,1815,7510,35179,34899,34457,33678,32509,16287,2436,6531,65535,65535,34795,32996,32301,16364
21166,65535,2429,197,170,163,165,159,37949,65535,3444,276,233,228,223,223,3817,14691,332,189,172,174,174,172,11582,26726,923,663,619,614,612,611,319,475,33100,29735,60445,55492,991,335,351,377,31860,29173,17710,12972,509,365,1819,7532,35969,35606,34496,33849,32480,16274,2448,6578,65535,65535,35135,33282,32345,16380
21203,65535,2435,195,168,163,165,162,37929,65535,3422,271,233,227,223,222,3827,14743,331,194,171,172,171,171,11591,26823,921,664,615,616,616,612,319,477,33195,29887,61223,56455,999,337,351,377,31959,29326,17757,13038,511,365,1825,7554,36582,36051,34535,33995,32436,16263,2458,6608,65535,65535,35207,33393,32376,16393
21239,65535,2490,196,172,166,162,160,37929,65535,3467,271,233,227,222,221,3843,14817,333,193,173,173,172,171,11611,26936,928,667,619,619,616,612,320,478,33242,29906,60138,55001,985,335,353,379,32066,29480,17759,13035,515,365,1826,7580,36333,35686,34531,33871,32493,16302,2465,6647,65535,65535,34957,33097,32377,16415
21290,65535,2510,198,169,164,162,161,37981,65535,3448,273,233,226,222,220,3850,14877,334,196,176,174,171,171,11620,26996,921,660,612,608,607,605,318,480,33294,29964,60156,55188,986,339,353,378,32102,29585,17805,13099,514,365,1830,7611,35746,35465,34597,33951,32535,16321,2473,6695,65535,65535,34983,33231,32419,16438
21348,65535,2566,196,169,169,161,161,38066,65535,3485,268,230,226,221,218,3855,14921,336,199,175,173,170,171,11645,27063,921,659,609,609,609,603,319,483,33380,30067,60448,55598,991,338,353,380,32135,29630,17836,13119,514,363,1829,7631,36025,35679,34606,34006,32522,16309,2481,6713,65535,65535,35137,33343,32410,16411
21196,65535,2405,196,167,163,163,158,37802,65535,3359,271,231,224,221,218,3832,14660,331,198,172,172,173,171,11572,26826,914,658,610,611,610,605,319,475,33164,29714,59295,53969,972,334,353,377,31825,29051,17663,12873,507,362,1826,7537,35775,35260,34491,33691,32507,16291,2456,6550,65535,65535,34802,32960,32340,16365
21115,65535,2376,194,169,161,162,159,37501,65535,3353,266,228,225,220,219,3804,14569,332,194,175,173,174,171,11523,26713,914,655,609,607,605,605,320,474,32909,29395,58127,52731,960,333,351,374,31595,28731,17512,12726,506,361,1817,7489,34899,34575,34416,33479,32521,16288,2435,6482,65535,65535,34526,32712,32302,16342
21112,65535,2339,198,169,167,164,159,37430,65535,3307,267,229,226,222,220,3795,14542,330,194,171,177,171,171,11494,26630,911,658,609,607,604,605,316,470,32770,29205,57069,51586,943,333,350,375,31506,28588,17400,12623,504,361,1811,7457,33915,33851,34347,33286,32546,16287,2430,6465,65535,65535,34251,32438,32253,16319
21104,65535,2364,196,171,163,161,159,37367,65535,3337,267,233,229,221,221,3793,14548,332,195,172,173,170,172,11473,26586,911,655,613,607,610,608,316,471,32693,29145,56923,51566,943,329,349,371,31463,28613,17324,12557,501,363,1807,7443,33725,33665,34293,33208,32521,16266,2427,6454,65535,65535,33833,32055,32186,16303
21157,65535,2368,195,168,165,163,159,37381,65535,3332,269,229,225,221,219,3799,14596,331,194,170,171,171,172,11455,26588,921,662,615,614,611,607,315,467,32576,28963,55149,49458,918,328,347,371,31482,28683,17253,12487,499,360,1801,7423,32029,32338,34197,32932,32530,16275,2425,6480,65535,65535,33389,31682,32152,16296
21187,65535,2419,196,167,167,162,164,37406,65535,3381,268,234,224,223,218,3801,14624,331,195,171,173,170,174,11403,26551,914,654,607,608,607,601,312,463,32404,28735,53109,47709,896,329,352,371,31491,28699,17218,12471,501,358,1797,7428,30009,30941,34164,32815,32591,16306,2426,6500,65535,65535,33246,31604,32165,16302
21210,65535,2412,193,172,160,164,160,37405,65535,3359,268,228,224,222,220,3806,14668,334,198,171,172,173,175,11377,26552,906,652,605,605,603,600,315,464,32417,28761,53235,48047,900,325,347,371,31535,28766,17251,12521,498,360,1799,7451,29917,30963,34206,32891,32622,16313,2428,6515,65535,65535,33337,31757,32192,16312
21226,65535,2461,195,167,163,158,161,37421,65535,3403,269,234,228,221,222,3818,14730,334,194,172,173,171,172,11395,26595,911,659,611,611,610,607,313,467,32519,28907,53491,48099,900,328,346,371,31630,28919,17278,12551,503,359,1803,7473,30625,31315,34190,32903,32620,16321,2432,6538,65535,65535,33353,31709,32191,16322
21246,65535,2458,193,169,164,163,159,37461,65535,3385,269,231,225,222,220,3833,14793,331,194,171,173,172,173,11407,26633,913,659,617,613,613,608,316,466,32591,28993,53923,48633,907,329,349,372,31728,29083,17331,12611,501,361,1808,7501,30496,31379,34227,32975,32630,16331,2439,6571,65535,65535,33356,31764,32211,16333
21271,65535,2512,194,169,166,159,160,37539,65535,3435,270,231,226,222,226,3842,14847,338,198,172,172,171,171,11425,26633,919,662,618,616,614,612,315,467,32654,29074,53835,48401,905,328,351,372,31813,29223,17363,12644,506,360,1807,7516,30446,31354,34201,32961,32647,16351,2442,6604,65535,65535,33373,31752,32226,16351
21307,65535,2520,197,169,163,160,162,37597,65535,3422,270,232,227,222,222,3848,14901,334,193,172,174,175,172,11433,26672,921,663,617,615,615,612,315,467,32649,29037,53115,47829,897,330,349,375,31897,29365,17389,12686,507,363,1809,7545,29795,30919,34269,33012,32708,16382,2453,6648,65535,65535,33354,31783,32279,16383
21339,65535,2573,199,168,170,161,158,37709,65535,3471,270,230,227,221,222,3855,14953,336,194,175,173,172,172,11459,26727,926,665,617,617,614,609,315,467,32709,29121,53746,48650,910,329,350,375,31940,29427,17454,12751,506,360,1813,7579,30103,31320,34335,33141,32719,16378,2460,6685,65535,65535,33599,32043,32312,16379
21185,65535,2415,195,168,163,162,162,37553,65535,3351,270,230,226,221,225,3830,14699,332,195,173,173,171,171,11394,26514,917,662,614,616,613,608,311,466,32595,28951,54102,48776,906,327,347,372,31632,28880,17370,12603,500,356,1809,7494,30960,31839,34235,32999,32658,16325,2444,6534,65535,65535,33746,32102,32274,16331
21084,65535,2376,196,168,160,161,161,37270,65535,3345,270,231,225,224,221,3802,14597,337,191,173,172,171,170,11361,26421,917,663,615,614,614,609,312,461,32422,28735,53692,48253,900,330,345,368,31394,28537,17252,12481,498,355,1800,7425,30983,31707,34157,32848,32619,16293,2421,6464,65535,65535,33676,32027,32258,16313
21045,65535,2325,195,167,164,165,159,37215,65535,3298,268,230,226,222,219,3791,14567,329,192,172,173,171,172,11350,26354,912,661,617,613,613,609,313,459,32354,28642,53777,48321,901,326,343,368,31273,28399,17181,12425,495,356,1796,7398,31026,31735,34083,32743,32573,16260,2419,6443,65535,65535,33617,31976,32219,16285
21039,65535,2347,191,173,165,161,160,37239,65535,3332,270,228,226,222,222,3783,14537,331,193,175,175,169,170,11370,26265,913,663,614,613,611,610,311,459,32314,28608,53824,48305,901,327,343,368,31298,28440,17171,12427,496,354,1789,7373,31054,31735,34014,32674,32527,16239,2414,6431,65535,65535,33623,31959,32223,16289
21068,65535,2340,195,168,163,163,159,37405,65535,3338,270,232,227,224,221,3773,14544,332,192,171,171,170,171,11413,26337,913,662,615,614,613,613,310,462,32310,28591,53496,47961,895,327,344,366,31374,28555,17179,12437,496,354,1791,7372,30686,31462,34015,32641,32526,16243,2419,6460,65535,65535,33569,31920,32235,16291
21059,65535,2367,194,170,163,164,159,37559,65535,3397,270,231,226,223,222,3776,14582,329,193,171,172,172,171,11433,26427,920,663,618,616,612,611,310,458,32302,28569,53087,47493,892,325,344,368,31403,28613,17181,12444,496,357,1788,7371,30439,31253,34020,32615,32541,16247,2422,6479,65535,65535,33532,31869,32254,16303
21065,65535,2359,194,165,163,160,159,37662,65535,3389,271,231,231,223,223,3783,14631,331,193,171,175,171,175,11455,26520,914,661,614,611,611,606,310,459,32348,28631,53427,47931,894,326,347,371,31475,28731,17212,12487,497,359,1791,7382,30570,31431,34033,32666,32549,16250,2429,6510,65535,65535,33579,31941,32286,16323
21085,65535,2410,198,171,162,162,159,37797,65535,3453,272,233,229,224,225,3795,14699,334,193,171,173,174,172,11487,26613,917,660,615,612,609,607,311,460,32446,28755,53947,48456,901,327,343,369,31550,28866,17273,12561,500,355,1790,7399,30985,31757,34046,32733,32533,16251,2439,6554,65535,65535,33791,32144,32331,16343
21117,65535,2422,196,166,164,163,159,37952,65535,3442,272,231,228,229,224,3812,14795,333,193,172,173,171,168,11525,26730,917,662,616,613,612,610,311,463,32557,28886,54157,48623,903,329,346,368,31646,29013,17322,12616,501,359,1791,7416,31191,31891,34095,32798,32543,16262,2450,6607,65535,65535,33945,32247,32373,16362
21146,65535,2473,196,167,163,159,158,38087,65535,3499,271,236,227,227,226,3828,14871,334,194,173,171,171,171,11558,26845,927,665,618,617,616,613,311,463,32620,28939,54027,48542,903,326,343,371,31738,29167,17338,12644,502,357,1793,7439,31091,31829,34130,32843,32579,16285,2461,6657,65535,65535,33890,32186,32393,16385
21165,65535,2475,197,167,167,160,158,38155,65535,3487,273,239,231,225,227,3840,14943,334,194,173,176,170,172,11591,26981,929,669,621,621,620,615,313,464,32689,29037,54253,48945,908,329,346,373,31872,29365,17386,12708,503,355,1800,7480,31031,31901,34174,32940,32599,16298,2473,6713,65535,65535,33933,32281,32446,16411
21202,65535,2534,196,167,167,162,159,38235,65535,3535,272,230,229,225,222,3855,15015,336,195,173,173,171,171,11627,27093,935,671,622,624,619,619,313,467,32848,29234,55101,49813,919,329,346,372,32004,29540,17465,12785,504,361,1804,7517,31844,32479,34202,33039,32586,16294,2485,6759,65535,65535,34151,32465,32487,16420
21126,65535,2428,202,167,166,162,158,38196,65535,3451,274,234,231,222,223,3843,14847,333,194,172,175,172,171,11610,26994,927,670,621,620,618,618,313,465,32782,29083,54929,49348,911,328,346,375,31847,29193,17417,12649,497,355,1805,7470,31987,32483,34135,32884,32561,16270,2473,6652,65535,65535,34131,32371,32429,16371
20991,65535,2368,195,168,166,160,159,37837,65535,3443,272,232,229,225,223,3815,14716,334,192,172,173,170,171,11560,26910,929,672,620,621,619,615,312,462,32575,28849,54591,49114,909,326,345,369,31623,28871,17295,12541,493,357,1791,7411,31735,32302,34092,32783,32551,16250,2446,6563,65535,65535,34041,32298,32423,16359
20975,65535,2337,196,167,163,161,163,37768,65535,3404,274,235,227,224,224,3811,14717,331,188,175,172,170,171,11562,26899,926,669,619,617,616,613,311,460,32556,28817,54967,49443,912,327,343,367,31583,28793,17268,12517,493,351,1796,7399,32101,32527,34051,32755,32510,16225,2445,6551,65535,65535,34063,32335,32416,16353
20959,65535,2360,195,168,163,159,160,37750,65535,3438,272,233,226,225,227,3809,14731,333,193,171,174,172,173,11572,26914,929,667,620,617,617,613,310,460,32580,28853,55248,49707,919,326,341,367,31539,28785,17267,12533,497,355,1792,7387,32334,32689,34043,32770,32490,16216,2444,6548,65535,65535,34054,32347,32402,16354
20995,65535,2365,194,171,163,162,159,37817,65535,3426,272,236,227,227,223,3818,14799,332,193,175,171,172,169,11602,26977,929,667,619,619,615,617,312,462,32638,28924,55599,50115,920,328,343,368,31607,28892,17306,12577,497,354,1791,7397,32541,32861,34056,32817,32479,16206,2449,6579,65535,65535,34113,32434,32411,16354
20997,65535,2398,194,169,163,165,160,37857,65535,3463,273,232,232,223,227,3820,14812,335,197,170,173,174,171,11612,27003,928,663,621,618,616,613,312,463,32710,29017,56121,50577,931,329,344,369,31645,28963,17348,12615,499,355,1793,7400,33042,33236,34083,32872,32460,16201,2451,6596,65535,65535,34278,32568,32438,16369
21012,65535,2393,193,169,163,161,160,37905,65535,3447,272,234,225,223,224,3827,14869,333,194,175,171,171,172,11636,27065,932,666,620,621,621,614,310,464,32778,29093,56225,50655,931,329,344,371,31716,29080,17382,12653,502,358,1795,7412,33136,33291,34119,32918,32472,16210,2459,6630,65535,65535,34351,32642,32477,16388
21042,65535,2451,195,167,164,161,160,37987,65535,3495,271,236,228,227,222,3837,14932,336,194,173,171,172,174,11663,27149,933,668,623,619,618,616,313,467,32855,29181,56379,50855,934,330,346,371,31809,29230,17415,12697,503,360,1797,7437,33199,33381,34159,32991,32493,16219,2467,6675,65535,65535,34423,32705,32499,16406
21071,65535,2452,195,167,165,165,159,38069,65535,3477,274,234,229,225,221,3846,14991,330,198,172,173,171,169,11689,27231,933,669,622,619,620,616,313,468,32967,29324,56883,51410,939,331,348,373,31909,29392,17473,12759,504,361,1803,7466,33493,33668,34196,33075,32493,16228,2479,6718,65535,65535,34535,32831,32537,16425
21095,65535,2505,197,168,164,161,162,38149,65535,3523,269,234,233,225,223,3852,15037,337,197,174,171,170,172,11719,27310,937,671,623,621,621,617,317,470,33072,29455,57251,51758,944,334,349,374,32008,29541,17527,12810,506,358,1802,7495,33874,33939,34210,33126,32501,16236,2484,6754,65535,65535,34638,32906,32555,16447
21127,65535,2505,196,169,166,161,159,38214,65535,3504,273,236,230,226,223,3861,15081,336,195,171,176,176,172,11751,27405,938,673,624,622,620,619,316,471,33155,29552,57327,51929,946,335,349,375,32113,29697,17570,12863,510,359,1809,7521,33887,33971,34239,33184,32521,16255,2495,6792,65535,65535,34701,32979,32607,16470
21155,65535,2559,196,168,163,164,157,38281,65535,3548,272,233,230,224,224,3866,15134,340,195,171,175,170,171,11782,27489,942,673,625,624,623,618,317,474,33260,29683,57751,52355,955,333,351,380,32213,29837,17627,12918,509,361,1812,7558,34176,34237,34276,33263,32528,16263,2501,6825,65535,65535,34829,33078,32627,16476
21090,65535,2458,197,171,163,162,163,38217,65535,3471,273,232,228,221,224,3856,14972,335,192,173,171,173,171,11758,27382,939,674,625,625,622,619,318,473,33205,29549,57565,51915,945,333,350,376,32069,29508,17585,12789,504,359,1815,7521,34290,34239,34219,33121,32514,16238,2495,6733,65535,65535,34833,33012,32579,16434
20947,65535,2403,195,167,167,161,160,37879,65535,3465,271,232,228,224,223,3820,14832,335,195,173,167,170,172,11700,27278,938,673,625,625,623,618,320,471,33011,29329,57110,51499,941,333,348,372,31842,29177,17466,12677,506,359,1803,7464,34059,34035,34156,33007,32497,16225,2466,6645,65535,65535,34777,32949,32577,16429
20945,65535,2377,195,170,166,162,161,37834,65535,3433,273,235,232,223,223,3817,14848,335,199,170,177,178,166,11706,27289,934,673,623,624,621,620,315,467,32989,29297,57275,51635,941,333,347,373,31822,29144,17440,12657,503,357,1804,7459,34153,34106,34149,32998,32487,16212,2467,6641,65535,65535,34791,32947,32573,16423
20952,65535,2411,198,167,163,162,163,37845,65535,3475,273,236,228,224,223,3815,14834,335,195,172,176,173,176,11720,27319,940,676,625,624,625,619,313,468,32963,29266,57140,51469,945,333,347,370,31833,29195,17423,12652,502,357,1804,7457,34235,34099,34132,32973,32473,16215,2465,6652,65535,65535,34667,32798,32559,16421
21000,65535,2419,197,168,163,160,160,37932,65535,3456,275,231,227,227,224,3811,14846,333,196,166,170,170,172,11735,27377,938,679,627,625,624,623,314,466,32918,29198,56411,50657,931,331,344,370,31889,29282,17398,12621,503,357,1801,7457,33631,33612,34121,32892,32493,16222,2467,6671,65535,65535,34351,32513,32517,16413
21014,65535,2456,196,169,163,163,161,37943,65535,3500,275,235,229,225,226,3819,14881,337,197,167,174,172,173,11729,27393,941,676,629,625,624,621,314,466,32895,29185,56107,50481,930,331,347,371,31914,29347,17391,12623,502,358,1802,7465,33026,33265,34133,32890,32511,16233,2467,6682,65535,65535,34254,32442,32513,16423
21033,65535,2448,199,168,164,160,159,37970,65535,3475,273,233,228,226,223,3829,14939,337,194,172,174,172,172,11741,27447,942,678,627,627,626,624,316,469,32951,29262,56491,50994,934,333,347,373,31993,29478,17428,12673,506,358,1804,7481,33143,33413,34139,32951,32517,16236,2473,6713,65535,65535,34346,32539,32532,16430
21055,65535,2496,197,167,164,163,157,38025,65535,3518,274,235,227,224,224,3835,14982,336,195,173,173,174,172,11770,27507,947,676,629,626,624,621,316,470,33067,29422,57532,52137,950,330,347,374,32106,29670,17489,12754,504,358,1806,7507,33841,34000,34170,33099,32495,16230,2474,6743,65535,65535,34555,32709,32570,16455
21079,65535,2490,205,167,163,160,159,38103,65535,3497,272,233,228,227,224,3835,14978,337,195,172,174,172,173,11813,27575,944,680,632,628,626,623,314,470,33155,29521,59035,53673,963,332,346,373,32357,30001,17525,12787,504,362,1811,7526,35177,34865,34226,33258,32447,16211,2484,6771,65535,65535,34534,32583,32580,16465
21127,65535,2543,195,168,164,160,160,38181,65535,3544,274,232,227,225,227,3845,15000,334,198,177,171,173,171,11823,27630,948,680,631,628,627,625,315,473,33182,29575,60048,54715,977,332,348,375,32486,30213,17567,12840,505,359,1812,7529,35809,35229,34248,33367,32401,16197,2491,6796,65535,65535,34425,32501,32556,16471
21147,65535,2539,196,166,163,161,159,38230,65535,3519,274,233,227,225,227,3868,15088,337,195,172,171,170,172,11846,27700,947,681,632,633,632,629,316,474,33212,29623,60018,54725,980,336,349,375,32541,30357,17618,12901,512,366,1816,7540,35865,35207,34255,33385,32402,16207,2494,6828,65535,65535,34325,32450,32550,16489
21156,65535,2585,197,169,164,159,161,38271,65535,3558,273,234,229,226,222,3886,15197,340,204,171,173,172,173,11899,27818,964,693,645,642,639,634,321,479,33413,29857,60243,54827,986,339,356,386,32709,30593,17719,12989,519,372,1819,7581,35570,35049,34298,33439,32455,16236,2505,6882,65535,65535,34565,32660,32593,16501
21093,65535,2489,196,167,164,162,164,38235,65535,3488,274,233,228,223,224,3880,15069,336,199,171,173,171,172,11901,27754,952,683,633,631,629,626,322,481,33423,29818,59545,53847,972,337,359,386,32589,30260,17650,12839,513,365,1823,7571,35199,34865,34235,33253,32471,16231,2502,6796,65535,65535,34467,32521,32527,16451
20959,65535,2425,195,167,166,161,160,37867,65535,3477,273,238,228,223,222,3821,14786,335,194,173,168,171,174,11814,27631,950,681,633,632,627,625,321,476,33146,29491,58349,52639,958,335,352,377,32281,29772,17469,12664,507,363,1814,7497,34755,34495,34103,33029,32469,16218,2471,6681,65535,65535,34360,32403,32519,16440
20961,65535,2391,192,167,164,161,161,37775,65535,3435,271,233,229,225,223,3810,14747,333,195,179,172,172,176,11800,27610,947,681,636,629,628,623,318,472,32995,29302,57445,51731,945,332,350,376,32188,29627,17376,12580,505,361,1811,7475,34078,34004,34065,32902,32471,16211,2468,6659,65535,65535,34246,32300,32509,16428
20943,65535,2401,196,167,164,160,159,37736,65535,3465,273,233,228,225,224,3811,14751,334,194,172,171,172,171,11775,27592,949,681,631,632,632,633,319,470,32867,29141,56055,50139,931,335,353,375,32157,29603,17305,12525,507,365,1805,7452,33236,33257,34008,32723,32518,16238,2464,6643,65535,65535,34039,32110,32524,16443
20955,65535,2393,199,169,164,162,159,37749,65535,3449,275,235,226,225,223,3830,14893,336,198,171,179,173,172,11806,27671,959,696,641,639,634,628,320,474,32959,29141,54581,48293,909,336,353,381,32358,29815,17309,12498,511,369,1805,7472,31395,31999,34091,32652,32679,16314,2471,6682,65535,65535,34087,32044,32512,16431
21002,65535,2459,195,168,166,161,163,37794,65535,3495,273,234,229,224,224,3834,14913,337,196,171,175,174,173,11766,27680,952,683,632,631,629,624,321,471,32911,29007,50095,44195,868,336,357,382,32323,29790,17172,12375,508,365,1807,7499,28571,29906,33969,32325,32783,16362,2471,6688,65535,65535,33267,31373,32401,16411
21081,65535,2469,196,169,163,161,158,37767,65535,3470,274,234,229,225,224,3819,14906,336,196,175,168,174,172,11757,27736,946,680,629,629,629,624,320,471,32941,29043,50015,44112,861,334,355,379,32367,29916,17249,12448,510,367,1805,7520,28170,29869,33901,32299,32817,16382,2469,6706,65535,65535,33276,31435,32445,16437
21117,65535,2528,195,169,163,165,159,37830,65535,3518,273,233,233,223,223,3828,14967,338,195,170,174,172,164,11777,27796,950,679,630,628,627,623,320,471,32944,29065,50150,44439,867,335,358,382,32443,30062,17316,12531,511,367,1806,7534,28062,29881,33916,32361,32846,16396,2475,6749,65535,65535,33427,31604,32513,16474
21135,65535,2519,196,168,165,160,158,37938,65535,3499,274,234,228,225,223,3839,15037,337,198,172,173,173,175,11800,27847,955,682,633,632,627,621,320,472,33057,29207,50822,45154,875,335,356,384,32531,30214,17386,12607,513,369,1807,7552,28663,30358,33957,32468,32867,16407,2487,6797,65535,65535,33609,31788,32575,16502
21154,65535,2569,197,169,167,161,159,38037,65535,3550,273,233,229,225,223,3853,15108,341,199,173,175,174,176,11820,27915,953,684,628,631,632,627,320,474,33162,29328,51165,45516,879,338,356,385,32613,30357,17434,12668,517,371,1810,7578,29090,30646,34032,32590,32890,16427,2499,6843,65535,65535,33766,31918,32626,16528
21160,65535,2554,196,168,167,162,160,38143,65535,3530,276,234,233,225,224,3869,15183,339,199,174,178,176,174,11846,27975,963,696,650,646,647,646,324,476,33351,29531,52165,46617,890,336,360,385,32719,30519,17537,12773,519,371,1815,7610,29507,31022,34131,32770,32938,16458,2509,6886,65535,65535,34127,32298,32717,16559
21151,65535,2598,196,170,164,162,163,38238,65535,3572,275,235,231,225,223,3888,15265,345,198,174,173,173,176,11907,28057,967,691,639,634,634,627,322,479,33498,29703,53071,47520,904,341,359,382,32767,30655,17514,12739,520,371,1826,7662,30330,31693,34212,32913,32942,16457,2519,6916,65535,65535,33852,31878,32565,16518
21233,65535,2611,197,168,164,161,162,38191,65535,3535,276,234,229,225,226,3862,15122,339,200,173,174,174,173,11862,28033,956,687,637,636,635,628,323,482,33386,29631,51891,46229,887,334,357,384,33006,31058,17555,12669,511,365,1823,7657,29671,30904,33961,32581,32843,16407,2521,6956,65535,65535,33164,31145,32255,16422
21131,65535,2518,196,168,167,160,159,37701,65535,3487,274,234,229,224,225,3824,14815,337,195,175,175,172,173,11737,27809,955,686,632,633,631,628,321,472,33186,29364,50745,45196,872,331,353,375,32781,30578,17531,12559,509,363,1804,7540,28543,30243,33699,32258,32744,16353,2488,6773,65535,65535,33295,31233,32295,16434
21049,65535,2437,197,168,163,160,161,37529,65535,3434,273,233,227,228,225,3815,14801,336,195,173,174,172,172,11735,27773,951,682,626,631,627,625,318,469,33069,29210,50965,45411,872,332,353,375,32567,30220,17469,12521,506,360,1797,7484,28827,30489,33696,32257,32712,16329,2474,6719,65535,65535,33482,31461,32435,16464
20983,65535,2416,196,169,165,160,158,37559,65535,3460,273,234,227,225,223,3822,14831,339,196,174,175,172,172,11735,27725,949,681,628,627,627,624,316,469,33025,29134,51558,45887,879,329,349,374,32387,29948,17394,12479,504,360,1794,7453,29595,31029,33776,32334,32707,16315,2470,6682,65535,65535,33690,31670,32502,16468
20949,65535,2382,196,170,165,161,159,37585,65535,3435,274,236,228,224,223,3834,14913,335,196,176,175,172,177,11744,27714,946,679,628,625,627,621,317,467,33075,29209,52356,46765,891,331,349,375,32373,29952,17372,12509,504,363,1795,7445,30271,31539,33854,32462,32691,16305,2474,6693,65535,65535,33823,31854,32524,16473
20965,65535,2421,197,169,160,163,159,37720,65535,3484,274,233,227,224,223,3849,14988,340,197,174,173,176,173,11767,27724,946,677,627,625,629,622,318,468,33166,29304,53031,47445,898,331,349,376,32363,29965,17373,12533,504,360,1795,7449,31013,32048,33887,32537,32660,16291,2479,6711,65535,65535,33948,31988,32516,16462
20959,65535,2399,195,169,167,163,161,37755,65535,3454,272,233,232,227,225,3853,15014,337,196,173,178,172,172,11774,27730,943,676,628,627,625,621,316,471,33253,29426,53771,48181,903,332,350,374,32377,30019,17390,12569,505,360,1797,7452,31642,32555,33909,32616,32632,16280,2480,6721,65535,65535,34055,32103,32519,16466
20976,65535,2441,195,170,166,164,160,37810,65535,3500,274,234,227,225,223,3864,15067,340,196,175,173,177,175,11797,27767,949,679,627,629,621,624,319,469,33330,29517,54117,48530,911,334,353,375,32439,30142,17424,12617,506,364,1799,7458,32059,32834,33938,32677,32610,16282,2486,6755,65535,65535,34164,32231,32558,16483
21004,65535,2447,195,169,167,162,157,37919,65535,3481,273,233,232,223,223,3871,15127,338,195,173,177,172,172,11826,27827,947,681,631,628,631,624,315,472,33418,29623,54462,49001,918,333,350,377,32511,30290,17470,12685,509,364,1797,7473,32241,32992,33998,32789,32615,16285,2496,6798,65535,65535,34332,32429,32600,16508
21030,65535,2497,195,166,163,163,163,38025,65535,3533,275,234,230,224,223,3882,15191,341,195,175,174,174,175,11853,27882,953,685,629,629,627,624,318,472,33552,29785,55070,49557,922,337,351,378,32572,30403,17521,12748,510,365,1800,7502,32856,33443,34083,32924,32617,16293,2505,6837,65535,65535,34545,32622,32639,16518
21059,65535,2498,195,167,164,163,160,38128,65535,3511,275,234,228,225,227,3891,15250,339,196,173,174,176,174,11873,27932,949,681,630,627,627,624,318,475,33641,29882,55262,49748,923,334,352,382,32636,30527,17555,12796,511,365,1804,7525,32970,33547,34137,33003,32628,16311,2512,6872,65535,65535,34617,32713,32661,16533
21089,65535,2556,200,166,165,161,160,38220,65535,3559,274,234,228,224,223,3899,15302,343,197,176,174,173,173,11896,27993,954,681,632,630,629,625,319,476,33713,29973,55151,49645,924,335,355,381,32722,30690,17582,12826,514,367,1809,7557,32871,33502,34164,33043,32665,16329,2523,6913,65535,65535,34635,32707,32691,16558
21132,65535,2561,197,177,169,154,159,38294,65535,3538,274,237,229,225,222,3906,15361,341,197,178,174,176,175,11911,28057,953,683,631,631,630,627,320,477,33810,30093,55349,49941,928,334,357,383,32839,30869,17629,12886,516,368,1813,7590,33009,33635,34191,33110,32687,16346,2533,6959,65535,65535,34713,32772,32729,16581
21134,65535,2568,197,169,165,163,158,38347,65535,3559,274,234,229,223,224,3910,15307,341,200,173,173,173,172,11929,28060,962,683,632,632,631,628,319,479,33849,30107,55749,50209,930,335,355,382,32825,30738,17643,12837,513,368,1815,7592,33375,33904,34194,33088,32675,16319,2540,6935,65535,65535,34895,32879,32707,16535
20941,65535,2406,196,168,164,164,159,37963,65535,3461,275,233,227,225,223,3865,15047,337,199,176,174,171,173,11838,27838,950,685,633,630,630,625,320,475,33623,29841,55654,50129,926,329,352,381,32443,30097,17479,12665,509,363,1807,7505,33572,34004,34107,32969,32625,16287,2503,6772,65535,65535,34953,32897,32692,16512
20906,65535,2408,196,169,169,163,159,37831,65535,3482,278,236,227,225,224,3855,15025,338,198,173,174,173,171,11829,27789,955,682,632,633,634,627,317,473,33536,29727,55665,50010,927,333,351,376,32295,29883,17391,12586,509,362,1802,7475,33667,34000,34062,32897,32597,16262,2498,6743,65535,65535,34903,32802,32662,16494
20884,65535,2360,191,168,164,162,160,37789,65535,3442,273,233,229,225,223,3851,15003,339,196,173,174,172,174,11814,27756,951,683,633,631,629,627,318,474,33431,29599,55355,49668,923,333,351,374,32213,29769,17342,12546,504,364,1799,7447,33541,33823,34033,32831,32584,16252,2490,6716,65535,65535,34783,32691,32643,16480
20910,65535,2410,194,169,171,164,159,37775,65535,3490,274,234,229,225,223,3856,15057,341,197,175,175,177,173,11813,27763,953,683,633,634,630,630,319,472,33419,29597,55442,49868,927,333,352,377,32256,29881,17355,12569,504,365,1799,7447,33399,33777,34047,32863,32571,16243,2491,6733,65535,65535,34753,32675,32639,16477
20930,65535,2397,189,167,164,162,161,37876,65535,3464,274,234,229,225,226,3857,15070,338,196,173,175,175,172,11806,27738,953,687,637,635,634,630,321,473,33395,29570,55635,50014,925,333,353,375,32265,29921,17359,12568,506,361,1800,7440,33681,33933,34023,32851,32531,16223,2495,6739,65535,65535,34584,32509,32603,16465
20938,65535,2436,196,169,164,161,159,37886,65535,3505,274,234,229,223,224,3860,15111,339,196,174,174,174,173,11803,27742,958,687,638,639,636,631,319,471,33407,29596,55577,49910,927,335,351,375,32268,29987,17373,12593,509,363,1795,7438,33663,33904,34009,32835,32522,16227,2494,6760,65535,65535,34603,32531,32590,16468
20964,65535,2437,195,169,166,161,150,37951,65535,3487,275,234,230,225,224,3870,15175,339,198,173,175,171,177,11817,27797,956,691,639,637,636,634,317,473,33457,29645,55379,49726,923,333,351,377,32325,30116,17398,12636,508,367,1795,7446,33427,33752,34029,32853,32540,16239,2504,6800,65535,65535,34651,32578,32603,16482
20998,65535,2493,197,167,162,165,163,38034,65535,3538,275,235,231,226,224,3879,15245,341,197,173,175,173,174,11845,27871,962,690,639,637,636,632,320,476,33502,29704,55182,49598,925,337,353,380,32427,30299,17429,12682,511,365,1797,7467,33172,33600,34056,32882,32564,16257,2513,6845,65535,65535,34679,32611,32632,16498
21027,65535,2498,200,168,168,159,158,38107,65535,3515,275,235,231,225,223,3889,15305,340,197,174,178,172,172,11868,27934,959,691,642,639,638,635,319,475,33588,29796,55275,49695,924,335,354,382,32530,30469,17469,12730,512,368,1801,7495,33251,33677,34083,32932,32583,16271,2523,6889,65535,65535,34745,32668,32669,16517
21057,65535,2550,197,167,164,164,163,38189,65535,3563,279,238,229,225,225,3896,15358,341,198,173,172,174,176,11881,27993,966,692,643,640,638,634,320,476,33656,29897,55341,49779,931,335,355,382,32631,30633,17510,12781,514,370,1801,7523,33288,33737,34105,32981,32598,16290,2528,6929,65535,65535,34852,32753,32706,16538
21088,65535,2555,199,170,163,152,160,38269,65535,3543,277,235,229,226,229,3902,15410,345,197,174,174,174,173,11906,28066,963,695,642,641,639,636,321,478,33726,29975,55191,49601,926,333,356,385,32735,30803,17546,12818,518,369,1806,7546,33163,33647,34142,33016,32629,16315,2540,6973,65535,65535,34874,32781,32752,16566
21120,65535,2611,196,171,165,163,157,38343,65535,3588,275,234,230,226,225,3910,15468,346,198,171,174,171,172,11926,28139,969,695,644,644,641,640,321,479,33792,30056,55065,49546,926,336,358,387,32863,30994,17584,12861,518,367,1810,7583,32985,33551,34205,33095,32681,16343,2549,7019,65535,65535,34927,32829,32807,16593
21141,65535,2595,198,171,163,160,163,38413,65535,3557,274,235,234,227,228,3917,15481,343,197,174,177,172,172,11940,28179,968,696,643,642,641,639,321,481,33844,30097,55351,49705,924,332,358,385,32922,30998,17615,12850,514,367,1815,7607,33147,33729,34243,33115,32686,16339,2555,7035,65535,65535,35047,32914,32801,16562
20944,65535,2475,195,169,165,165,163,38071,65535,3524,275,231,230,225,226,3873,15183,341,196,174,173,175,172,11849,27923,964,693,639,639,637,634,319,475,33586,29767,54699,48950,919,332,355,381,32536,30311,17444,12632,510,365,1804,7516,33022,33520,34129,32911,32661,16315,2525,6853,65535,65535,35003,32810,32775,16537
20895,65535,2420,195,168,164,160,163,37889,65535,3475,275,237,229,226,224,3858,15144,337,200,172,174,172,172,11823,27879,957,690,641,638,637,637,321,473,33464,29610,54386,48667,912,336,354,377,32366,30067,17345,12544,508,361,1800,7486,32725,33281,34088,32833,32651,16297,2514,6815,65535,65535,34943,32750,32757,16516
20880,65535,2421,194,169,164,164,161,37839,65535,3501,277,232,229,225,223,3851,15113,340,200,174,174,175,174,11812,27831,960,688,640,637,637,633,317,473,33373,29513,54306,48553,913,333,350,375,32267,29924,17302,12506,507,360,1797,7456,32677,33223,34060,32782,32628,16281,2510,6787,65535,65535,34934,32703,32739,16502
20883,65535,2407,198,168,164,161,159,37817,65535,3475,275,233,228,226,223,3855,15152,339,195,173,174,176,171,11812,27839,959,690,639,638,634,632,317,471,33361,29511,54379,48686,911,332,350,373,32289,30002,17321,12534,508,359,1797,7454,32659,33201,34057,32791,32621,16277,2507,6798,65535,65535,34893,32698,32739,16503
20909,65535,2449,196,171,166,163,161,37927,65535,3521,273,235,229,226,224,3864,15201,341,197,174,175,175,174,11821,27867,959,688,640,637,634,633,318,471,33383,29550,54674,48977,917,333,350,377,32316,30060,17335,12553,507,362,1795,7454,32828,33341,34045,32803,32610,16269,2511,6818,65535,65535,34947,32729,32729,16499
20915,65535,2433,197,167,164,162,160,37931,65535,3492,275,234,227,226,224,3866,15219,341,196,174,175,176,171,11826,27882,957,689,641,637,635,632,318,471,33412,29591,54783,49079,915,332,349,377,32361,30153,17358,12577,508,364,1798,7458,32927,33408,34038,32805,32600,16261,2513,6831,65535,65535,34941,32733,32739,16504
20947,65535,2484,197,169,163,162,160,37978,65535,3537,273,234,232,226,223,3871,15270,342,195,174,173,173,173,11837,27919,960,689,639,637,635,632,318,473,33455,29651,54735,49050,918,332,351,379,32442,30306,17387,12613,508,363,1797,7468,32891,33373,34035,32813,32603,16272,2520,6861,65535,65535,34944,32733,32746,16514
20980,65535,2489,196,171,167,162,162,38048,65535,3516,274,234,232,224,224,3879,15325,340,198,175,177,172,173,11859,27979,958,689,636,636,636,633,318,472,33533,29749,54893,49263,918,336,352,380,32537,30473,17438,12675,510,365,1802,7489,32885,33413,34063,32877,32627,16283,2527,6898,65535,65535,35005,32791,32768,16530
21009,65535,2543,194,169,168,161,160,38134,65535,3563,276,232,229,224,224,3891,15380,344,201,176,174,173,171,11881,28043,963,690,638,640,636,631,319,473,33613,29853,55081,49510,923,335,356,380,32642,30652,17496,12736,514,366,1802,7521,32972,33516,34109,32957,32640,16298,2532,6938,65535,65535,35089,32867,32805,16551
21046,65535,2545,197,168,165,162,159,38209,65535,3541,275,234,229,225,224,3897,15437,342,197,172,174,176,171,11899,28109,961,693,642,637,637,632,321,475,33715,29982,55355,49801,925,336,358,382,32751,30830,17557,12798,515,367,1808,7549,33127,33668,34165,33043,32658,16315,2544,6978,65535,65535,35191,32969,32844,16575
21073,65535,2602,199,168,166,161,160,38297,65535,3587,281,233,225,226,223,3903,15487,348,197,176,173,172,175,11922,28175,965,692,639,640,639,635,320,477,33797,30083,55379,49796,927,337,356,383,32853,31000,17600,12845,518,371,1810,7575,33194,33717,34196,33092,32680,16333,2553,7016,65535,65535,35267,33021,32887,16595
21111,65535,2603,198,167,166,163,162,38371,65535,3566,277,235,231,225,224,3911,15542,344,199,174,176,175,173,11945,28251,965,692,639,639,637,635,320,479,33877,30190,55466,49971,927,338,355,383,32975,31195,17649,12900,520,369,1814,7608,33153,33748,34249,33170,32711,16358,2562,7063,65535,65535,35307,33071,32928,16624
21135,65535,2645,199,172,164,160,160,38447,65535,3602,276,234,225,227,228,3919,15557,347,197,173,174,163,172,11967,28306,968,693,640,638,637,633,319,480,33938,30241,55729,50135,931,336,357,387,33043,31216,17675,12889,517,368,1819,7635,33387,33931,34266,33178,32710,16346,2570,7078,65535,65535,35391,33122,32917,16592
20947,65535,2470,196,170,163,163,159,38143,65535,3503,274,237,229,227,228,3880,15260,338,196,177,172,172,176,11884,28068,959,692,639,637,636,632,319,475,33695,29924,55258,49566,922,333,354,380,32666,30535,17517,12673,510,367,1810,7544,33342,33812,34147,32980,32669,16310,2542,6901,65535,65535,35335,33016,32887,16563
20903,65535,2463,198,170,165,164,158,37958,65535,3520,275,233,231,226,225,3859,15211,341,197,173,173,176,172,11857,27994,965,691,640,641,638,637,319,473,33554,29771,55244,49615,925,332,351,377,32491,30293,17422,12595,508,365,1807,7506,33318,33766,34093,32907,32635,16286,2529,6850,65535,65535,35255,32912,32849,16540
20864,65535,2407,196,169,164,160,160,37902,65535,3478,273,238,226,230,224,3860,15181,339,196,176,173,174,177,11862,27944,963,696,642,641,637,633,319,475,33525,29726,55561,49823,925,336,354,380,32399,30133,17389,12555,512,369,1804,7480,33505,33856,34067,32873,32610,16261,2521,6821,65535,65535,35187,32825,32806,16517
20875,65535,2444,195,171,165,161,163,37884,65535,3515,274,233,228,221,221,3855,15170,335,201,171,169,172,175,11855,27943,961,690,640,638,637,632,320,473,33468,29693,55927,50342,932,334,351,377,32415,30245,17404,12576,508,362,1798,7470,33756,34080,34054,32907,32559,16235,2514,6826,65535,65535,35055,32726,32789,16512
20918,65535,2442,191,167,163,162,160,37990,65535,3493,274,233,226,225,223,3854,15159,338,196,174,174,175,170,11858,27923,957,690,640,638,635,632,317,472,33449,29686,56327,50705,933,334,349,377,32445,30316,17427,12601,509,363,1798,7459,34219,34355,34019,32903,32511,16215,2518,6835,65535,65535,35013,32687,32748,16497
20915,65535,2467,198,168,164,160,160,38004,65535,3530,275,234,229,225,226,3858,15193,341,197,175,169,173,174,11861,27886,969,698,649,649,649,643,318,475,33513,29766,56598,50917,941,338,353,379,32507,30421,17476,12653,517,368,1796,7457,34239,34302,34010,32903,32510,16223,2517,6840,65535,65535,35122,32811,32752,16504
20915,65535,2458,199,169,163,161,160,38098,65535,3501,272,233,226,223,222,3875,15280,344,197,170,174,175,170,11914,27890,965,694,642,637,635,632,323,477,33584,29830,56573,50916,941,338,359,384,32516,30490,17487,12673,515,370,1801,7483,34010,34202,34057,32950,32540,16235,2523,6860,65535,65535,34996,32678,32705,16494
20973,65535,2518,198,169,165,163,163,38161,65535,3543,273,232,226,223,223,3869,15271,342,196,174,172,176,171,11923,27886,963,689,639,639,637,633,322,479,33575,29853,56673,51073,943,335,357,384,32631,30748,17525,12718,514,366,1802,7503,34275,34399,34055,32983,32524,16227,2525,6887,65535,65535,34905,32594,32727,16511
21018,65535,2524,196,169,163,160,160,38251,65535,3525,273,231,227,225,222,3862,15269,339,196,182,173,172,173,11947,27942,963,691,641,639,637,635,321,475,33590,29879,56437,50843,937,337,355,382,32753,30964,17550,12763,517,370,1803,7516,34179,34272,34049,32973,32531,16246,2531,6921,65535,65535,34822,32533,32729,16529
21055,65535,2577,197,169,163,159,159,38344,65535,3573,269,233,229,224,222,3870,15330,341,196,175,174,172,167,11987,28051,969,700,648,645,647,649,321,477,33664,29970,56029,50413,937,338,357,389,32913,31210,17590,12802,519,373,1805,7548,33715,33912,34062,32969,32584,16281,2541,6968,65535,65535,34756,32469,32743,16547
21074,65535,2571,196,168,163,160,159,38465,65535,3558,274,233,229,224,226,3883,15414,343,197,172,175,171,173,12047,28207,982,714,664,663,664,659,325,481,33784,30095,55511,49794,932,339,364,391,33083,31445,17634,12841,526,377,1812,7594,32805,33321,34121,32981,32691,16343,2556,7027,65535,65535,34818,32540,32770,16575
21099,65535,2632,199,168,163,161,159,38588,65535,3606,276,236,231,226,224,3896,15495,344,198,173,175,172,172,12109,28359,989,711,657,652,651,649,323,486,33839,30159,55265,49715,932,342,367,396,33166,31585,17659,12882,527,379,1822,7660,32256,33083,34205,33071,32759,16376,2567,7074,65535,65535,34831,32559,32772,16591
21165,65535,2645,198,171,163,161,161,38667,65535,3586,275,237,230,224,225,3895,15514,345,200,175,174,171,173,12114,28446,978,705,653,650,650,646,329,487,33900,30277,55639,50123,935,341,368,395,33286,31783,17717,12940,525,374,1826,7693,32735,33487,34233,33151,32757,16373,2575,7125,65535,65535,34968,32702,32815,16597
21051,65535,2561,199,170,167,164,160,38609,65535,3578,275,233,229,226,228,3869,15237,345,195,172,175,187,173,12054,28268,981,708,655,656,653,653,327,481,33729,30026,55338,49647,931,339,362,388,33021,31222,17646,12788,519,374,1819,7615,32912,33527,34169,33007,32714,16343,2558,6984,65535,65535,35063,32711,32799,16567
20941,65535,2466,196,171,168,162,160,38342,65535,3525,275,236,234,231,227,3848,15173,339,197,175,178,173,175,12041,28231,991,724,676,676,677,675,323,481,33642,29895,54954,49148,923,342,363,391,32796,30833,17563,12702,521,375,1814,7566,32516,33124,34171,32944,32760,16359,2547,6931,65535,65535,35246,32893,32854,16567
20910,65535,2473,199,168,164,163,160,38362,65535,3563,278,235,230,227,227,3860,15225,345,198,177,175,177,173,12086,28305,1009,735,687,686,686,687,325,479,33586,29759,54371,48544,917,338,365,391,32615,30529,17494,12630,519,373,1817,7571,31692,32555,34211,32911,32816,16375,2544,6910,65535,65535,35393,33016,32839,16547
20905,65535,2450,196,172,167,162,164,38384,65535,3535,278,237,236,233,227,3862,15259,341,198,175,177,174,179,12105,28358,1016,743,690,689,688,686,326,479,33547,29738,54407,48663,915,338,362,387,32527,30437,17491,12655,519,373,1815,7575,31563,32509,34215,32917,32847,16382,2542,6903,65535,65535,35517,33151,32837,16535
20947,65535,2507,195,171,169,164,160,38471,65535,3584,279,237,231,228,225,3874,15318,344,201,172,175,177,174,12136,28423,1015,732,675,673,664,658,322,478,33555,29767,54474,48715,922,341,363,389,32534,30499,17478,12647,522,379,1820,7595,31736,32662,34204,32913,32847,16380,2547,6925,65535,65535,35331,32902,32761,16516
20982,65535,2497,192,168,164,162,160,38495,65535,3552,277,235,231,228,229,3862,15267,340,196,172,171,173,165,12087,28404,985,713,657,655,655,651,327,485,33511,29781,54474,48745,920,340,368,394,32649,30732,17496,12680,525,376,1819,7585,31991,32853,34162,32889,32817,16370,2547,6942,65535,65535,35171,32793,32784,16533
21034,65535,2552,197,167,163,163,159,38549,65535,3597,277,238,230,226,225,3843,15211,340,197,173,178,171,175,12097,28442,989,710,658,654,657,651,322,483,33515,29805,54546,48879,922,337,365,391,32786,30949,17549,12739,521,376,1815,7581,32188,32981,34153,32917,32794,16355,2557,6980,65535,65535,35213,32835,32824,16554
21074,65535,2551,197,169,164,164,161,38633,65535,3575,278,235,231,227,225,3852,15264,342,197,177,170,169,175,12113,28511,986,711,659,657,657,652,323,482,33581,29889,54656,49004,920,337,362,389,32909,31143,17601,12798,521,373,1814,7593,32276,33050,34186,32981,32795,16360,2563,7022,65535,65535,35287,32895,32863,16576
21097,65535,2605,198,169,165,162,159,38713,65535,3622,282,236,231,226,225,3872,15366,344,197,177,177,172,178,12133,28590,991,711,659,659,654,658,324,480,33660,29984,54718,49139,923,341,361,389,33013,31331,17649,12856,524,377,1815,7615,32237,33049,34228,33039,32815,16376,2571,7066,65535,65535,35324,32932,32895,16598
21105,65535,2594,198,171,165,161,158,38802,65535,3596,277,241,233,230,227,3891,15486,347,197,178,175,172,172,12174,28684,1005,734,681,682,682,677,324,484,33851,30195,55193,49607,930,341,365,394,33179,31543,17753,12943,530,380,1822,7653,32175,33006,34297,33135,32871,16415,2583,7115,65535,65535,35605,33235,32969,16627
21106,65535,2644,196,167,164,161,163,38929,65535,3647,279,241,231,228,226,3912,15591,349,198,174,173,173,178,12256,28837,1022,741,690,686,679,671,326,485,33989,30305,55209,49557,930,345,368,395,33205,31599,17769,12955,529,383,1831,7707,31930,32901,34396,33226,32934,16450,2594,7151,65535,65535,35713,33284,32951,16629
21157,65535,2651,193,169,167,162,160,38991,65535,3619,277,235,232,229,225,3917,15635,345,197,172,177,173,173,12254,28894,1001,718,664,657,656,653,327,493,34006,30393,55155,49633,932,346,370,400,33265,31784,17770,12991,533,385,1835,7748,32023,33043,34425,33278,32953,16461,2598,7196,65535,65535,35549,33183,32960,16654
21204,65535,2706,200,172,164,161,160,39057,65535,3659,278,235,235,227,225,3908,15590,345,196,172,175,171,173,12253,28945,998,715,663,659,655,655,330,490,34060,30453,55519,49965,935,341,375,404,33389,31914,17826,13026,529,377,1839,7765,32529,33423,34428,33309,32928,16447,2607,7226,65535,65535,35691,33275,32972,16631
21036,65535,2538,197,171,166,161,160,38843,65535,3575,276,239,231,226,225,3863,15260,340,197,175,177,176,172,12177,28721,989,712,659,658,655,652,325,483,33818,30129,54865,49122,922,338,364,393,33076,31304,17715,12836,523,374,1828,7665,32505,33276,34314,33093,32884,16414,2581,7047,65535,65535,35653,33166,32956,16609
20978,65535,2530,196,170,166,161,157,38625,65535,3597,277,235,231,230,226,3846,15221,340,196,172,175,172,171,12153,28667,991,712,655,659,655,652,322,478,33663,29954,54520,48825,919,337,361,386,32895,31021,17613,12746,519,374,1823,7623,32259,33075,34273,33012,32860,16395,2569,7003,65535,65535,35615,33095,32940,16591
20961,65535,2483,198,168,163,164,160,38578,65535,3557,281,234,230,227,225,3847,15220,340,197,171,174,172,175,12143,28630,987,714,659,655,655,649,322,478,33601,29875,54589,48867,917,336,361,387,32817,30889,17583,12711,517,371,1821,7597,32347,33115,34233,32951,32820,16365,2565,6977,65535,65535,35619,33093,32935,16587
20957,65535,2510,196,171,164,161,162,38559,65535,3595,276,234,231,224,225,3852,15271,342,201,174,174,173,173,12150,28647,989,710,656,655,654,648,320,481,33600,29884,54780,49090,920,337,359,388,32819,30948,17604,12751,519,371,1818,7586,32510,33238,34214,32951,32801,16355,2561,6982,65535,65535,35657,33123,32946,16586
20985,65535,2508,202,168,165,161,159,38658,65535,3572,278,236,232,228,226,3862,15334,341,197,173,175,172,174,12173,28701,987,710,657,655,652,648,322,479,33623,29913,54831,49116,920,336,360,386,32883,31038,17630,12774,518,372,1817,7589,32609,33279,34203,32944,32783,16347,2568,7008,65535,65535,35628,33100,32941,16586
20985,65535,2538,195,169,165,164,160,38680,65535,3610,278,237,230,227,225,3865,15350,343,200,174,176,175,172,12175,28720,993,710,657,654,651,647,322,479,33624,29921,54740,49015,922,338,358,388,32904,31103,17647,12795,520,370,1816,7587,32558,33237,34200,32930,32779,16345,2569,7016,65535,65535,35603,33059,32943,16593
21009,65535,2535,197,168,163,162,157,38734,65535,3590,278,235,231,227,228,3867,15400,342,202,171,174,173,172,12191,28779,988,710,657,654,654,651,322,483,33666,29983,54877,49236,922,335,359,388,32970,31244,17689,12845,519,372,1816,7600,32555,33283,34211,32975,32775,16350,2574,7052,65535,65535,35603,33093,32958,16605
21041,65535,2591,197,168,165,161,159,38815,65535,3632,278,237,231,229,225,3875,15465,344,198,173,173,173,172,12213,28840,993,710,658,654,653,650,319,479,33741,30081,55161,49564,927,336,361,389,33053,31403,17740,12907,522,375,1818,7621,32773,33446,34239,33041,32778,16356,2580,7090,65535,65535,35655,33140,32979,16618
21071,65535,2593,198,171,167,165,165,38899,65535,3607,277,239,233,227,229,3887,15522,343,193,174,177,172,172,12233,28921,989,712,656,655,655,651,323,480,33838,30207,55473,49879,930,339,361,387,33144,31571,17803,12971,524,373,1821,7643,33027,33652,34277,33116,32785,16365,2591,7127,65535,65535,35750,33243,33009,16635
21103,65535,2648,197,166,164,161,163,38993,65535,3653,276,234,229,225,225,3893,15575,345,199,176,175,173,176,12258,28994,995,713,656,654,656,651,323,482,33920,30303,55519,49873,932,341,363,392,33225,31714,17851,13020,527,375,1823,7669,33122,33735,34315,33168,32803,16382,2597,7167,65535,65535,35837,33302,33040,16657
21132,65535,2648,194,168,163,160,163,39091,65535,3627,278,236,230,227,225,3899,15631,345,198,174,173,171,173,12277,29065,993,712,658,654,655,654,323,484,33959,30339,55092,49458,928,343,363,393,33303,31837,17872,13051,527,375,1825,7694,32729,33439,34362,33196,32846,16415,2607,7209,65535,65535,35824,33310,33071,16681
21172,65535,2709,197,163,167,160,160,39163,65535,3673,277,235,231,227,227,3908,15696,348,197,172,174,172,171,12304,29153,997,715,658,656,654,654,323,484,34009,30415,54853,49346,931,339,365,394,33402,32015,17913,13095,527,377,1829,7735,32321,33221,34433,33276,32895,16443,2614,7252,65535,65535,35833,33311,33107,16701
21197,65535,2697,198,168,164,161,158,39228,65535,3643,278,235,230,227,225,3913,15725,347,197,173,174,169,171,12321,29216,994,714,658,655,655,651,326,486,34093,30491,55217,49626,929,340,366,394,33471,32063,17945,13098,526,373,1834,7762,32589,33469,34469,33308,32900,16439,2621,7278,65535,65535,35902,33367,33087,16673
20991,65535,2573,198,171,163,162,159,38926,65535,3623,279,235,230,226,229,3871,15403,343,198,171,171,171,173,12234,28969,995,711,657,656,654,648,327,482,33860,30166,54618,48901,917,337,361,393,33118,31406,17796,12887,520,370,1825,7666,32515,33301,34334,33067,32874,16409,2589,7087,65535,65535,35835,33238,33050,16645
20941,65535,2509,197,167,165,161,162,38716,65535,3581,278,236,229,226,226,3856,15351,345,200,173,174,172,172,12225,28917,989,709,656,653,653,650,321,479,33723,30022,54494,48801,918,334,358,386,32929,31109,17683,12792,517,369,1823,7629,32405,33193,34264,32971,32842,16380,2579,7040,65535,65535,35826,33217,33041,16625
20918,65535,2513,197,169,163,161,158,38655,65535,3607,278,236,234,227,228,3845,15315,341,196,174,173,172,172,12202,28883,992,709,654,653,654,650,320,476,33632,29913,54555,48771,915,335,357,384,32814,30934,17632,12742,519,368,1816,7598,32562,33285,34211,32891,32799,16353,2572,7011,65535,65535,35811,33172,33013,16611
20907,65535,2489,194,168,163,162,160,38612,65535,3575,277,235,229,227,224,3845,15341,344,197,173,173,172,175,12201,28895,987,707,653,652,651,648,319,478,33585,29866,54406,48627,913,334,357,385,32792,30964,17638,12759,516,369,1816,7580,32409,33147,34181,32852,32790,16346,2571,7017,65535,65535,35731,33126,33007,16613
20943,65535,2542,196,171,165,160,159,38695,65535,3623,277,236,230,228,228,3854,15405,343,197,173,173,171,172,12226,28954,991,709,654,651,650,646,319,476,33568,29844,54130,48353,909,335,358,385,32837,31055,17648,12771,516,369,1814,7586,32153,32943,34157,32806,32791,16346,2573,7044,65535,65535,35643,33047,32997,16610
20947,65535,2525,196,167,166,162,163,38703,65535,3591,276,235,230,224,226,3856,15423,341,195,173,176,174,172,12225,28981,987,705,653,651,649,647,320,475,33559,29842,54067,48343,909,335,358,386,32863,31121,17664,12792,518,369,1812,7583,31993,32845,34148,32802,32790,16346,2576,7055,65535,65535,35594,33033,32997,16611
20969,65535,2573,196,170,167,162,162,38739,65535,3635,278,235,231,227,224,3861,15482,345,199,172,175,172,175,12232,29038,992,707,653,654,653,646,323,478,33611,29918,54194,48508,912,335,358,388,32908,31239,17708,12849,522,370,1811,7599,32045,32898,34153,32835,32781,16348,2581,7082,65535,65535,35639,33090,33004,16618
20994,65535,2572,197,168,168,161,151,38806,65535,3610,278,235,233,230,224,3871,15543,346,197,173,177,172,172,12255,29104,989,707,653,651,650,647,321,477,33716,30055,54839,49319,919,335,357,389,32978,31392,17770,12926,520,371,1813,7617,32343,33176,34190,32948,32785,16347,2585,7121,65535,65535,35718,33203,33018,16635
21005,65535,2622,197,167,162,160,160,38881,65535,3652,281,234,232,227,223,3883,15606,347,197,174,174,171,173,12285,29133,991,707,652,651,649,646,323,479,33925,30341,56448,51016,941,335,359,387,33072,31585,17875,13037,521,372,1820,7652,33491,34121,34207,33094,32738,16323,2593,7149,65535,65535,35946,33413,33031,16643
21022,65535,2619,197,168,166,163,167,38968,65535,3619,277,235,231,225,226,3891,15651,345,200,173,174,171,172,12318,29149,987,706,653,650,649,643,317,481,34012,30492,57867,52292,954,336,359,387,33181,31775,17936,13113,522,371,1822,7669,34591,34849,34179,33156,32693,16316,2595,7159,65535,65535,36010,33463,33023,16649
21047,65535,2659,197,171,163,165,159,39017,65535,3663,276,235,232,226,224,3900,15691,348,197,172,174,175,170,12350,29308,990,706,649,645,643,639,321,483,34083,30648,59963,54749,982,339,360,390,33275,31937,18041,13236,523,371,1826,7700,35651,35837,34227,33403,32624,16288,2599,7188,65535,65535,36338,33836,33063,16664
21061,65535,2652,195,171,165,163,159,39061,65535,3631,275,236,228,223,224,3894,15681,345,197,174,183,171,173,12347,29277,981,701,646,645,640,635,321,485,34023,30628,59947,54514,981,337,359,389,33316,32050,18041,13260,525,370,1829,7705,36226,35853,34151,33321,32607,16293,2603,7213,65535,65535,36173,33659,33045,16671
21108,65535,2709,197,168,167,154,162,39066,65535,3670,270,233,225,223,221,3880,15688,347,196,171,174,169,173,12388,29317,982,697,638,638,632,627,321,487,34161,30837,60891,55361,988,337,358,389,33419,32242,18142,13347,522,369,1833,7747,36788,36384,34218,33455,32594,16295,2605,7236,65535,65535,36345,33791,33048,16667
21000,65535,2581,200,165,162,161,159,38999,65535,3600,277,229,225,221,222,3873,15498,335,197,171,173,172,171,12343,29199,964,684,624,622,618,612,321,488,33975,30532,59762,53757,968,333,355,383,33202,31739,18029,13130,513,359,1834,7691,36209,35819,34141,33184,32597,16281,2592,7113,65535,65535,36216,33594,32985,16624
20871,65535,2533,199,168,163,162,156,38635,65535,3611,272,230,222,220,220,3836,15369,342,196,172,169,171,171,12257,29102,955,669,611,608,605,601,317,478,33642,30143,58327,52428,953,330,347,377,32853,31215,17818,12924,505,354,1820,7621,34854,34896,34079,32987,32614,16278,2567,7023,65535,65535,35962,33335,32957,16602
20854,65535,2496,196,167,164,160,158,38515,65535,3570,268,228,223,213,217,3827,15347,338,193,171,173,169,170,12207,29039,939,659,603,598,595,590,314,471,33458,29907,57230,51331,934,325,340,371,32731,31006,17700,12815,492,350,1817,7598,33971,34199,34023,32821,32619,16269,2560,7004,65535,65535,35715,33118,32919,16582
20835,65535,2510,198,167,163,160,162,38442,65535,3601,268,223,224,217,215,3818,15317,340,189,171,172,170,170,12174,28981,931,649,593,589,588,583,311,468,33305,29715,55861,49785,916,323,337,363,32685,30969,17627,12754,494,341,1812,7583,32765,33241,33971,32637,32663,16297,2551,6988,65535,65535,35386,32775,32880,16577
20880,65535,2522,197,168,163,164,159,38457,65535,3578,271,226,219,214,214,3817,15384,340,196,170,172,169,173,12170,29058,922,642,584,582,580,574,310,462,33136,29451,52871,46695,880,320,334,361,32819,31193,17557,12685,487,342,1811,7608,30334,31349,34007,32463,32806,16367,2555,7021,65535,65535,34777,32231,32846,16574
20890,65535,2561,196,170,165,162,159,38499,65535,3621,266,224,219,222,211,3829,15422,343,195,170,171,171,170,12145,29178,916,631,575,574,570,567,305,459,33059,29345,51415,44982,860,318,332,359,32849,31262,17526,12646,486,342,1815,7647,29205,30610,34045,32385,32906,16413,2558,7040,65535,65535,34527,31987,32829,16578
20917,65535,2560,198,170,163,160,160,38493,65535,3599,264,221,217,217,213,3828,15472,341,194,175,171,170,173,12063,29247,909,625,570,567,567,563,308,458,33017,29269,50666,44531,850,316,334,358,32780,31233,17489,12630,484,341,1812,7640,28351,30159,34087,32418,32945,16428,2558,7063,65535,65535,34412,31938,32806,16575
20919,65535,2607,195,169,164,160,163,38399,65535,3633,264,224,219,213,210,3837,15541,347,194,171,171,169,172,12070,29362,917,629,575,577,577,572,301,455,32961,29195,49645,43627,837,314,327,357,32866,31401,17483,12639,485,339,1811,7666,27469,29380,34167,32465,33015,16469,2556,7081,65535,65535,34146,31722,32775,16583
20931,65535,2610,193,170,163,164,158,38394,65535,3608,266,227,221,216,215,3851,15633,341,193,173,171,169,172,12071,29367,920,636,582,578,578,573,299,451,33017,29233,49676,43815,839,311,327,355,32911,31530,17563,12720,484,337,1814,7693,27147,29233,34311,32619,33072,16493,2557,7124,65535,65535,34213,31879,32795,16599
20944,65535,2660,197,167,165,160,163,38466,65535,3646,268,227,220,214,213,3861,15705,344,194,170,171,170,171,12085,29363,921,632,581,577,575,573,297,455,33239,29568,51357,45483,858,316,326,356,33005,31718,17668,12819,486,338,1819,7741,28240,30239,34341,32765,33073,16501,2568,7159,65535,65535,34421,32062,32781,16606
20949,65535,2648,195,168,163,161,159,38518,65535,3612,264,224,218,215,214,3870,15757,344,195,171,169,167,173,12099,29280,922,639,589,590,589,587,299,455,33358,29668,51047,45119,855,314,325,358,33123,31915,17722,12863,489,342,1824,7767,28049,29969,34373,32787,33137,16539,2570,7187,65535,65535,34362,32060,32770,16622
20953,65535,2699,197,169,164,160,158,38569,65535,3653,267,225,221,216,216,3880,15818,345,194,171,171,169,169,12135,29274,938,653,603,601,601,596,299,457,33485,29803,51203,45203,858,317,328,359,33254,32123,17780,12898,492,342,1831,7834,27906,29908,34479,32882,33198,16577,2579,7229,65535,65535,34485,32172,32751,16634
20999,65535,2709,196,167,163,164,158,38608,65535,3632,269,226,221,218,222,3890,15890,346,195,173,172,170,168,12154,29442,944,661,606,607,607,602,300,459,33597,29965,51748,46152,870,317,329,359,33329,32265,17845,12969,491,342,1843,7903,27445,29711,34548,33014,33226,16591,2589,7298,65535,65535,34730,32547,32754,16641
20989,65535,2715,197,167,163,164,160,38685,65535,3663,269,227,220,218,217,3891,15829,350,195,171,174,172,169,12159,29451,954,668,612,610,608,605,303,461,33655,29968,51531,45681,865,317,328,361,33207,32029,17835,12888,488,339,1847,7906,27563,29661,34545,32926,33229,16581,2596,7280,65535,65535,34959,32679,32685,16581
20780,65535,2552,196,168,165,161,159,38262,65535,3581,268,229,222,218,222,3839,15554,342,191,175,175,174,170,12064,29219,947,667,611,611,611,607,302,460,33543,29866,52236,45959,865,315,328,355,32821,31433,17703,12724,487,337,1839,7834,28037,30126,34413,32731,33148,16539,2563,7123,65535,65535,35143,32799,32629,16549
20743,65535,2558,197,171,166,162,162,38120,65535,3607,267,227,221,221,217,3830,15531,344,191,170,171,170,172,12056,29136,952,666,611,611,609,606,301,456,33363,29631,51071,45067,855,315,326,354,32648,31178,17599,12630,483,334,1832,7808,27171,29362,34402,32638,33169,16529,2551,7083,65535,65535,35039,32686,32588,16528
20723,65535,2508,194,167,166,162,160,38035,65535,3569,267,226,222,220,216,3821,15488,342,194,171,176,169,175,12034,29122,949,665,611,609,608,603,301,456,33249,29469,50531,44461,848,316,323,355,32548,30997,17547,12578,482,344,1835,7785,26988,29151,34308,32497,33141,16508,2543,7050,65535,65535,34999,32672,32574,16519
20748,65535,2558,197,169,162,162,162,37988,65535,3609,271,232,225,219,212,3817,15519,343,195,171,171,171,174,12024,29142,950,665,612,607,608,605,301,457,33303,29551,51017,45357,859,318,324,353,32505,30997,17577,12644,484,338,1828,7775,27316,29572,34247,32527,33081,16475,2539,7055,65535,65535,35185,32916,32607,16522
20779,65535,2546,196,169,163,160,162,38041,65535,3575,268,226,218,218,216,3825,15559,344,196,174,173,171,174,12043,29143,947,665,611,609,606,606,302,459,33458,29827,52951,47618,885,321,325,355,32551,31088,17636,12731,485,336,1827,7757,28401,30497,34176,32628,32992,16426,2542,7063,65535,65535,35395,33215,32619,16523
20788,65535,2577,199,169,164,163,159,38001,65535,3607,268,226,219,212,212,3838,15591,345,195,173,171,172,169,12066,29058,948,667,613,607,605,601,302,461,33755,30215,55397,49885,912,317,326,354,32645,31264,17723,12838,485,339,1826,7745,30676,32142,34194,32805,32881,16377,2541,7065,65535,65535,35617,33442,32631,16534
20818,65535,2579,197,168,163,164,159,38084,65535,3582,267,226,220,217,216,3838,15636,344,196,169,171,176,171,12089,29083,947,666,610,609,607,602,304,465,33821,30254,54745,48812,899,318,328,355,32724,31415,17730,12846,488,339,1825,7735,30791,31931,34112,32641,32835,16379,2549,7094,65535,65535,35547,33339,32639,16547
20868,65535,2647,197,168,162,159,159,38171,65535,3628,268,226,223,218,214,3841,15689,345,195,177,173,169,172,12116,29215,951,667,614,609,607,606,303,465,33750,30154,53423,47562,885,318,327,359,32809,31573,17738,12857,488,342,1821,7763,29243,30876,34168,32626,32895,16419,2555,7143,65535,65535,35423,33236,32662,16567
20904,65535,2655,199,169,163,161,162,38266,65535,3610,269,227,220,216,216,3850,15763,345,195,171,173,170,171,12133,29327,951,671,614,613,611,608,303,463,33755,30132,52568,46711,875,319,328,358,32865,31701,17760,12881,489,339,1829,7815,28434,30282,34245,32639,32945,16461,2569,7202,65535,65535,35415,33243,32659,16583
20954,65535,2724,197,169,164,159,159,38361,65535,3659,268,225,219,216,214,3858,15837,346,195,175,175,170,167,12123,29429,958,674,616,612,612,610,301,460,33816,30203,52142,46347,871,316,325,358,32935,31839,17793,12913,487,340,1832,7863,27851,29861,34327,32698,32987,16495,2581,7261,65535,65535,35506,33339,32682,16603
21009,65535,2739,195,168,166,162,159,38385,65535,3634,267,225,221,217,213,3864,15894,345,194,171,173,169,168,12109,29551,958,672,615,614,614,608,301,467,33865,30262,51613,45849,864,316,326,356,32995,31955,17825,12958,488,339,1839,7907,27238,29469,34453,32808,33037,16532,2585,7295,65535,65535,35577,33430,32714,16628
21054,65535,2803,196,171,163,159,160,38260,65535,3665,264,222,217,214,211,3860,15923,349,193,169,173,168,170,12143,29705,961,674,615,615,612,610,300,465,33990,30385,51225,45465,860,315,328,356,33033,32054,17858,12995,489,339,1843,7951,27061,29361,34587,32948,33102,16572,2583,7316,65535,65535,35678,33509,32743,16648
21073,65535,2774,197,168,163,161,163,38133,65535,3617,266,221,215,211,211,3850,15870,345,198,170,171,173,170,12165,29807,957,668,612,610,605,603,304,462,34023,30319,50234,44093,841,318,326,355,33005,31955,17823,12906,488,337,1848,7981,26605,28997,34747,32977,33183,16611,2578,7297,65535,65535,35557,33296,32706,16622
20857,65535,2664,195,168,162,162,158,37669,65535,3599,262,220,214,210,211,3797,15557,345,193,170,173,170,167,12087,29629,950,660,603,599,599,593,299,457,33611,29775,48266,42129,819,313,325,352,32618,31328,17666,12719,483,336,1846,7913,25786,28347,34788,32859,33255,16621,2540,7111,65535,65535,35375,33089,32725,16614
20822,65535,2610,196,168,166,159,161,37387,65535,3538,261,217,216,213,208,3781,15503,340,195,169,175,169,173,12077,29598,943,651,598,594,592,590,298,453,33455,29536,47434,41106,805,311,325,352,32427,31056,17570,12620,481,340,1839,7872,25779,28223,34786,32783,33290,16624,2526,7060,65535,65535,35249,32916,32714,16602
20805,65535,2618,196,167,162,160,159,37181,65535,3551,260,222,214,211,208,3768,15470,341,194,171,170,167,170,12082,29574,941,649,594,591,589,583,297,453,33303,29357,47155,40888,805,312,325,355,32323,30919,17507,12575,483,337,1834,7848,25523,28109,34743,32702,33287,16615,2513,7021,65535,65535,35116,32802,32691,16595
20830,65535,2609,195,167,163,161,159,37017,65535,3507,257,216,213,207,208,3763,15492,340,194,173,172,172,170,12078,29542,920,634,578,574,573,569,301,453,33239,29343,47089,40983,807,315,329,355,32363,31055,17496,12593,486,342,1829,7823,25513,28113,34635,32636,33263,16599,2509,7029,65535,65535,34930,32679,32677,16602
20882,65535,2659,196,169,164,162,158,37001,65535,3539,259,215,212,207,209,3763,15502,342,197,175,171,168,168,12100,29556,922,632,578,576,576,572,301,456,33268,29398,47279,41121,811,315,323,356,32471,31221,17551,12635,485,339,1824,7806,25739,28296,34578,32618,33241,16591,2505,7031,65535,65535,34909,32662,32686,16609
20878,65535,2637,195,169,166,160,160,36949,65535,3505,257,217,213,209,207,3759,15499,340,193,169,173,168,179,12118,29577,921,636,581,579,578,576,300,454,33252,29370,47014,40787,804,314,326,354,32582,31366,17592,12675,487,339,1821,7801,25625,28187,34641,32678,33263,16611,2506,7029,65535,65535,34867,32609,32716,16624
20896,65535,2679,196,168,165,161,162,37029,65535,3556,258,219,212,209,209,3773,15561,344,194,177,169,168,173,12124,29600,927,638,583,582,581,575,301,452,33261,29373,46781,40553,802,314,329,355,32689,31524,17662,12738,486,340,1826,7819,25496,28110,34746,32773,33318,16635,2509,7060,65535,65535,34846,32557,32754,16641
20923,65535,2674,199,168,163,160,159,37261,65535,3546,263,218,213,209,212,3780,15623,345,194,171,171,172,170,12127,29617,925,640,584,583,582,579,300,452,33324,29457,46845,40675,803,315,328,357,32831,31719,17727,12804,491,341,1828,7849,25476,28132,34810,32860,33361,16659,2519,7109,65535,65535,34842,32569,32788,16662
20952,65535,2732,198,169,164,161,160,37385,65535,3593,261,221,215,212,213,3787,15683,345,194,176,170,170,167,12139,29634,934,644,592,593,590,588,304,455,33457,29632,47185,41059,810,317,329,359,32955,31907,17810,12888,493,344,1832,7886,25573,28262,34865,32962,33404,16686,2528,7156,65535,65535,34993,32735,32837,16695
20964,65535,2721,199,169,165,162,160,37527,65535,3571,261,220,215,211,209,3800,15747,343,194,169,172,169,169,12171,29685,940,654,602,597,595,590,302,463,33601,29763,47337,41191,810,317,331,359,33033,32030,17858,12932,495,346,1839,7931,25651,28330,34967,33087,33452,16716,2546,7202,65535,65535,35123,32866,32876,16715
21001,65535,2783,195,168,166,160,161,37623,65535,3618,261,220,216,211,209,3809,15813,347,193,175,172,170,171,12183,29740,944,652,598,595,593,591,302,462,33655,29840,47285,41167,813,317,333,362,33066,32125,17897,12982,500,347,1845,7972,25566,28299,35100,33235,33514,16756,2547,7241,65535,65535,35199,32902,32911,16741
21036,65535,2780,197,167,163,161,162,37700,65535,3596,260,220,215,211,210,3817,15873,348,194,171,171,167,170,12191,29795,937,648,592,595,584,583,307,462,33754,29965,47437,41343,815,322,337,365,33147,32267,17957,13048,497,348,1854,8026,25622,28410,35221,33367,33576,16784,2554,7282,65535,65535,35215,32909,32939,16743
20980,65535,2738,197,171,164,164,160,37723,65535,3602,260,220,214,211,209,3805,15696,348,193,171,175,173,172,12161,29663,933,640,584,581,577,574,305,464,33678,29843,47273,40979,812,318,335,366,33015,31950,17917,12932,496,346,1851,7992,25709,28446,35166,33234,33570,16759,2548,7179,65535,65535,35161,32782,32883,16702
20833,65535,2617,197,171,165,160,159,37393,65535,3535,261,222,215,210,207,3768,15510,342,193,173,172,167,170,12076,29484,923,635,581,578,575,573,303,457,33463,29580,46759,40451,801,313,333,361,32801,31621,17794,12811,488,343,1845,7921,25686,28369,35071,33089,33550,16741,2523,7073,65535,65535,35064,32681,32873,16693
20827,65535,2634,195,168,166,159,163,37329,65535,3566,260,218,213,210,209,3757,15482,339,194,174,170,167,172,12064,29450,924,639,579,578,576,570,301,455,33357,29465,46586,40289,798,314,329,358,32762,31539,17749,12769,487,339,1840,7900,25559,28267,35030,33030,33535,16725,2514,7055,65535,65535,35018,32629,32871,16682
20819,65535,2597,199,171,163,165,158,37325,65535,3535,261,220,212,211,213,3759,15476,340,192,171,170,169,169,12056,29417,920,637,579,578,577,572,299,452,33314,29420,46566,40281,798,314,327,356,32751,31532,17729,12767,485,339,1836,7883,25535,28242,35018,33020,33527,16717,2513,7050,65535,65535,34987,32623,32877,16690
20855,65535,2653,196,168,166,161,159,37353,65535,3579,259,218,215,212,209,3767,15555,345,193,173,171,169,169,12065,29449,919,632,578,577,577,571,298,451,33348,29474,46659,40384,798,311,327,355,32823,31664,17755,12801,486,339,1837,7898,25554,28275,35035,33053,33528,16722,2519,7085,65535,65535,34993,32627,32879,16695
20873,65535,2632,197,168,164,162,159,37479,65535,3557,261,219,214,212,210,3774,15583,342,192,171,171,169,171,12076,29473,921,635,579,577,575,573,300,455,33353,29483,46517,40195,796,311,328,355,32859,31723,17765,12815,486,340,1839,7903,25460,28184,35065,33081,33540,16731,2522,7102,65535,65535,34976,32639,32885,16709
20885,65535,2676,194,170,163,162,158,37599,65535,3600,262,219,217,211,210,3778,15617,344,194,169,171,171,170,12077,29472,927,640,587,588,583,583,299,455,33412,29552,46442,40161,798,314,328,362,32912,31831,17803,12858,492,343,1839,7924,25259,28046,35143,33145,33566,16751,2529,7135,65535,65535,35059,32730,32906,16726
20902,65535,2672,196,171,164,160,159,37754,65535,3581,263,225,216,211,210,3785,15676,342,196,172,171,170,169,12098,29514,927,639,584,584,578,573,300,457,33482,29633,46500,40245,799,317,329,359,32956,31933,17827,12892,494,346,1846,7962,25253,28088,35191,33216,33595,16771,2539,7182,65535,65535,35094,32790,32917,16742
20948,65535,2731,196,173,163,161,159,37864,65535,3628,263,219,214,210,210,3792,15730,346,197,170,169,170,170,12089,29532,925,630,573,573,576,570,305,463,33541,29734,46636,40413,802,316,334,363,33022,32088,17878,12956,497,344,1848,7991,25363,28213,35219,33284,33616,16788,2547,7223,65535,65535,35111,32816,32937,16760
20992,65535,2733,197,169,162,161,161,37969,65535,3606,263,218,215,212,210,3796,15763,343,193,169,171,167,168,12090,29573,920,628,575,572,571,567,303,461,33613,29818,46783,40591,802,314,333,361,33126,32261,17934,13019,492,343,1850,8015,25465,28327,35274,33367,33631,16799,2556,7273,65535,65535,35174,32911,32981,16783
21022,65535,2789,197,171,163,161,159,38064,65535,3651,262,221,215,212,210,3801,15806,347,194,171,174,169,169,12103,29613,920,631,575,574,574,572,301,458,33694,29924,46935,40769,805,315,331,361,33210,32406,17980,13072,497,343,1854,8041,25563,28433,35329,33459,33653,16818,2564,7316,65535,65535,35254,32985,33013,16807
21055,65535,2783,197,167,164,166,162,38138,65535,3626,262,221,215,211,211,3810,15872,347,195,173,171,169,171,12113,29661,916,632,577,581,577,575,302,461,33819,30081,47253,41159,814,318,331,362,33309,32577,18038,13141,497,345,1860,8079,25701,28587,35396,33567,33682,16842,2575,7362,65535,65535,35317,33071,33034,16821
21048,65535,2796,197,170,162,162,160,38260,65535,3658,262,221,218,212,211,3815,15843,347,194,171,172,170,170,12141,29686,932,638,582,581,582,579,303,462,33895,30143,47454,41206,812,316,333,365,33318,32489,18065,13103,497,344,1863,8097,25890,28727,35406,33530,33688,16829,2579,7342,65535,65535,35405,33112,33017,16790
20855,65535,2636,196,170,163,154,160,37967,65535,3581,260,225,216,212,209,3778,15586,343,193,175,171,172,173,12067,29469,925,639,581,584,576,573,302,458,33675,29848,46924,40599,803,317,332,363,32990,31940,17910,12933,493,346,1856,8004,25809,28597,35321,33379,33666,16808,2549,7182,65535,65535,35342,33023,33008,16777
20833,65535,2649,196,167,162,160,161,37859,65535,3613,261,222,217,215,210,3771,15572,344,196,171,171,169,166,12049,29423,920,631,575,571,569,562,306,458,33549,29716,46649,40349,799,315,330,359,32869,31783,17828,12863,492,342,1853,7989,25669,28481,35331,33348,33665,16801,2540,7157,65535,65535,35257,32934,32992,16770
20830,65535,2605,195,168,163,159,160,37855,65535,3576,263,219,215,214,211,3763,15533,341,198,170,171,169,169,12027,29373,911,625,574,570,567,566,305,455,33489,29644,46651,40351,797,313,333,359,32840,31738,17799,12848,488,339,1852,7971,25762,28549,35287,33299,33641,16785,2542,7147,65535,65535,35228,32929,32999,16775
20851,65535,2653,196,168,164,158,159,37858,65535,3619,260,223,215,211,211,3767,15571,343,193,171,173,167,167,12031,29381,917,628,574,571,571,565,299,454,33499,29678,46734,40447,799,312,329,357,32889,31866,17811,12881,487,338,1849,7971,25833,28606,35265,33295,33632,16779,2542,7176,65535,65535,35239,32958,33009,16781
20881,65535,2645,196,171,165,162,162,37994,65535,3594,262,223,219,216,210,3777,15631,341,193,173,175,169,169,12042,29427,911,627,572,570,567,568,298,459,33508,29685,46579,40246,794,309,326,356,32922,31926,17815,12887,487,339,1848,7976,25748,28519,35261,33298,33623,16779,2551,7201,65535,65535,35203,32941,33005,16781
20901,65535,2687,199,168,162,163,159,38011,65535,3636,261,219,215,210,211,3787,15687,344,194,174,169,170,170,12041,29462,916,629,571,570,569,565,302,453,33512,29696,46489,40201,797,311,325,357,32962,32006,17835,12915,490,338,1848,7985,25575,28411,35315,33352,33635,16791,2553,7225,65535,65535,35220,32970,33014,16798
20929,65535,2686,196,168,166,159,163,38065,65535,3609,261,220,218,215,211,3795,15756,343,193,171,174,169,169,12058,29503,913,629,573,571,569,569,300,456,33565,29770,46549,40301,795,313,327,355,33023,32138,17868,12962,489,338,1851,8013,25563,28425,35346,33407,33652,16801,2561,7262,65535,65535,35226,33021,33035,16811
20963,65535,2738,198,168,167,164,159,38135,65535,3653,265,220,215,212,210,3805,15819,346,193,173,171,170,169,12066,29542,919,629,573,574,570,568,298,457,33643,29863,46648,40430,799,313,329,358,33108,32297,17911,13020,490,342,1855,8035,25590,28479,35382,33473,33669,16816,2569,7303,65535,65535,35263,33074,33050,16828
20995,65535,2739,199,167,163,162,159,38203,65535,3627,266,219,215,209,213,3813,15876,345,192,170,171,173,170,12080,29598,915,630,575,571,571,567,300,456,33719,29965,46722,40523,799,314,329,359,33201,32455,17955,13072,492,338,1859,8069,25581,28491,35437,33548,33689,16839,2579,7341,65535,65535,35283,33141,33072,16846
21029,65535,2794,199,164,165,160,159,38278,65535,3671,263,225,215,211,213,3820,15929,347,193,170,174,169,169,12093,29651,922,627,574,571,571,566,299,458,33806,30075,46829,40649,802,314,328,359,33287,32614,18005,13127,494,341,1861,8105,25619,28552,35492,33633,33715,16860,2583,7386,65535,65535,35330,33195,33087,16870
21063,65535,2790,198,167,167,159,161,38343,65535,3643,263,220,219,211,211,3827,15984,348,194,171,175,168,169,12105,29717,916,630,574,573,573,568,300,459,33903,30195,46996,40875,805,315,329,361,33397,32788,18059,13185,495,345,1868,8143,25634,28604,35551,33727,33746,16877,2593,7427,65535,65535,35371,33261,33109,16887
21066,65535,2810,197,165,166,160,160,38450,65535,3678,263,221,215,212,212,3833,15965,348,196,170,171,168,169,12131,29757,927,635,578,573,573,568,301,464,33959,30235,47103,40827,807,316,331,363,33412,32722,18067,13141,496,342,1870,8157,25739,28683,35570,33695,33759,16873,2600,7420,65535,65535,35419,33265,33087,16851
20883,65535,2659,195,169,164,163,159,38157,65535,3605,263,221,215,212,211,3792,15690,342,195,173,171,169,168,12051,29556,913,625,570,569,570,563,301,457,33716,29926,46560,40231,799,314,331,360,33092,32192,17911,12970,490,340,1864,8074,25652,28557,35476,33531,33729,16846,2567,7257,65535,65535,35332,33176,33073,16837
20863,65535,2670,195,167,162,163,159,38024,65535,3636,262,219,213,211,211,3780,15666,343,194,175,170,169,168,12037,29518,914,625,570,567,567,564,300,453,33595,29791,46357,40057,792,311,325,359,33000,32055,17843,12911,491,339,1862,8050,25548,28461,35456,33483,33718,16833,2563,7236,65535,65535,35309,33129,33069,16830
20855,65535,2627,196,171,163,163,159,38009,65535,3602,263,224,215,212,210,3780,15659,341,195,173,167,169,170,12025,29500,909,625,569,568,566,562,299,453,33544,29731,46366,40071,795,314,326,354,32959,32005,17811,12894,487,341,1861,8037,25554,28451,35423,33442,33702,16819,2560,7223,65535,65535,35272,33119,33063,16837
20866,65535,2675,195,169,162,159,157,37999,65535,3643,261,221,215,214,211,3785,15719,346,193,170,171,169,172,12034,29519,913,623,571,567,566,560,297,454,33566,29779,46488,40231,797,316,327,359,33006,32122,17828,12930,487,339,1859,8043,25589,28490,35415,33455,33694,16814,2561,7253,65535,65535,35293,33161,33073,16841
20902,65535,2667,195,172,159,160,159,38134,65535,3619,261,221,216,211,214,3797,15767,343,195,171,170,166,168,12048,29562,910,623,567,567,565,561,298,455,33585,29810,46539,40267,793,312,326,357,33041,32186,17848,12947,488,339,1862,8052,25595,28501,35411,33457,33691,16817,2569,7278,65535,65535,35294,33174,33078,16845
20911,65535,2707,195,168,167,161,160,38159,65535,3662,264,221,216,216,211,3800,15800,347,198,174,171,170,169,12055,29591,913,622,565,565,562,559,298,454,33607,29839,46511,40282,797,313,326,356,33083,32283,17865,12970,489,341,1863,8066,25542,28469,35431,33495,33697,16827,2571,7303,65535,65535,35303,33189,33091,16857
20942,65535,2705,195,168,163,163,159,38204,65535,3630,263,222,213,215,211,3803,15853,344,194,171,169,168,167,12058,29639,905,621,564,564,562,558,302,457,33663,29911,46594,40393,799,313,330,355,33163,32423,17907,13024,489,346,1865,8087,25537,28489,35464,33548,33707,16838,2580,7338,65535,65535,35343,33253,33111,16876
20979,65535,2761,191,167,162,160,158,38279,65535,3676,269,221,218,210,211,3813,15913,347,194,175,170,169,167,12074,29696,911,622,566,565,563,558,300,457,33743,30017,46774,40638,801,314,329,362,33247,32587,17963,13079,493,340,1865,8114,25591,28565,35491,33614,33721,16847,2586,7381,65535,65535,35399,33311,33132,16888
21007,65535,2758,197,169,164,159,159,38371,65535,3650,264,223,219,216,211,3822,15969,348,194,169,171,168,168,12096,29761,910,625,568,565,563,562,300,458,33846,30148,47001,40879,805,313,329,358,33339,32743,18023,13137,493,337,1869,8142,25713,28696,35535,33691,33739,16865,2593,7423,65535,65535,35449,33382,33148,16910
21039,65535,2812,199,168,167,159,159,38463,65535,3693,264,223,216,212,211,3829,16024,349,194,171,171,167,171,12123,29819,917,626,569,569,564,564,300,461,33940,30266,47147,41049,808,314,330,359,33431,32909,18075,13197,495,344,1875,8175,25799,28783,35583,33767,33763,16886,2603,7467,65535,65535,35526,33433,33165,16925
21067,65535,2807,197,171,164,165,159,38553,65535,3667,264,223,217,212,211,3832,16075,348,194,173,169,169,171,12149,29884,920,630,574,573,572,567,303,462,34069,30428,47403,41334,815,316,332,363,33549,33092,18143,13264,498,344,1879,8216,25863,28864,35653,33871,33795,16909,2613,7514,65535,65535,35625,33528,33189,16949
21078,65535,2838,197,168,162,162,159,38685,65535,3705,263,226,217,211,211,3842,16065,350,193,169,169,168,169,12185,29966,922,630,574,569,567,565,303,462,34099,30427,47467,41299,813,315,334,366,33550,33043,18128,13202,494,341,1885,8237,25988,28975,35663,33837,33803,16898,2619,7517,65535,65535,35596,33433,33123,16898
20907,65535,2688,197,169,166,160,161,38426,65535,3637,263,221,220,213,213,3792,15737,343,193,169,174,173,169,12098,29768,913,628,572,569,567,567,299,459,33839,30125,47147,40985,804,317,324,358,33313,32602,17957,13009,493,338,1876,8141,25997,28940,35508,33624,33755,16863,2582,7333,65535,65535,35379,33201,33056,16871
20872,65535,2695,196,169,164,162,158,38263,65535,3665,263,222,221,213,211,3776,15701,343,192,170,171,169,168,12070,29705,918,631,572,570,569,569,303,459,33741,30025,47106,40947,805,312,324,357,33179,32431,17884,12956,490,333,1869,8108,26053,28960,35441,33547,33725,16845,2571,7297,65535,65535,35385,33207,33039,16863
20860,65535,2652,199,171,162,162,159,38237,65535,3628,267,225,216,213,210,3781,15714,342,197,172,170,169,167,12077,29703,918,630,573,571,571,568,300,456,33707,29989,47229,41085,807,313,329,356,33124,32359,17874,12955,488,341,1869,8088,26146,29021,35387,33502,33707,16825,2575,7287,65535,65535,35407,33250,33042,16867
20862,65535,2696,196,171,164,161,162,38230,65535,3669,264,223,216,213,213,3784,15784,350,195,170,171,168,172,12112,29762,925,634,577,575,573,569,299,459,33770,30072,47436,41301,811,316,325,360,33177,32484,17913,13011,490,343,1867,8097,26209,29077,35407,33533,33703,16826,2583,7331,65535,65535,35505,33349,33069,16874
20892,65535,2685,199,169,164,164,159,38385,65535,3642,269,223,217,212,211,3798,15837,343,197,174,170,170,170,12147,29854,919,629,575,571,572,565,302,459,33773,30075,47329,41162,810,314,330,361,33206,32550,17918,13020,491,343,1871,8107,26207,29064,35415,33541,33702,16830,2593,7368,65535,65535,35435,33298,33062,16877
20924,65535,2736,197,166,163,161,161,38422,65535,3683,268,224,217,212,211,3787,15817,346,195,171,170,169,171,12155,29905,922,629,575,571,569,567,300,458,33761,30075,47253,41127,809,313,329,358,33246,32637,17935,13045,491,344,1869,8115,26135,29023,35437,33575,33709,16835,2594,7391,65535,65535,35442,33316,33075,16889
20947,65535,2731,196,167,162,161,159,38487,65535,3658,264,222,215,213,212,3793,15861,343,194,169,169,167,170,12171,29971,921,630,572,572,569,565,302,459,33829,30163,47421,41349,809,314,328,357,33299,32753,17975,13101,491,339,1870,8130,26193,29099,35455,33629,33715,16844,2600,7426,65535,65535,35481,33390,33099,16902
20979,65535,2785,197,169,163,162,159,38555,65535,3701,265,222,218,213,213,3805,15953,348,193,170,176,169,169,12193,30049,922,631,572,571,569,565,304,460,33911,30269,47611,41567,813,314,328,358,33373,32901,18029,13159,493,341,1870,8160,26276,29189,35481,33688,33727,16859,2607,7471,65535,65535,35533,33451,33114,16923
21014,65535,2784,196,168,162,161,159,38638,65535,3677,265,222,215,212,210,3819,16038,347,195,170,169,169,171,12216,30126,923,629,575,575,571,569,300,463,33991,30377,47695,41694,814,314,329,361,33454,33054,18075,13218,498,345,1875,8186,26288,29212,35531,33765,33740,16876,2618,7514,65535,65535,35534,33489,33127,16936
21033,65535,2835,197,169,164,162,160,38713,65535,3715,265,222,217,215,213,3825,16095,354,196,174,175,169,172,12250,30206,934,639,582,581,580,573,303,466,34129,30531,47907,41890,819,319,331,363,33559,33219,18144,13289,500,345,1881,8227,26345,29283,35599,33861,33775,16902,2625,7556,65535,65535,35667,33611,33156,16956
21066,65535,2833,195,168,164,161,159,38799,65535,3688,265,222,217,214,215,3831,16149,349,195,169,175,174,169,12286,30303,930,636,578,576,569,567,303,466,34211,30643,48049,42107,823,321,334,368,33623,33358,18187,13345,504,347,1887,8272,26386,29369,35662,33955,33807,16922,2634,7601,65535,65535,35696,33639,33169,16973
21103,65535,2882,199,172,162,162,161,38893,65535,3728,265,223,216,212,210,3831,16150,351,197,167,169,171,169,12298,30371,927,632,573,570,569,566,305,469,34259,30695,48183,42159,823,317,335,367,33670,33394,18197,13331,500,345,1891,8294,26573,29529,35665,33935,33817,16916,2639,7622,65535,65535,35721,33631,33141,16941
20928,65535,2731,197,171,164,163,158,38683,65535,3661,265,223,216,213,211,3792,15845,346,192,177,169,171,167,12233,30201,924,633,573,572,571,566,302,463,34016,30383,47638,41507,813,315,331,362,33369,32847,18067,13159,493,342,1882,8201,26476,29384,35548,33748,33788,16893,2613,7449,65535,65535,35643,33528,33117,16923
20887,65535,2742,199,169,163,161,160,38501,65535,3694,264,221,219,215,213,3778,15833,346,194,177,170,169,166,12219,30181,926,631,572,572,568,564,300,461,33911,30263,47455,41371,810,314,329,359,33266,32709,17995,13107,493,339,1877,8177,26390,29301,35518,33693,33770,16883,2603,7421,65535,65535,35609,33489,33108,16913
20897,65535,2712,196,169,163,159,159,38503,65535,3656,265,225,217,213,211,3778,15839,345,193,175,170,168,168,12217,30178,921,629,571,569,569,566,301,459,33883,30234,47583,41508,811,315,328,359,33218,32647,17984,13097,491,341,1875,8165,26471,29370,35479,33655,33756,16863,2603,7412,65535,65535,35597,33497,33103,16911
20906,65535,2758,196,171,163,162,162,38457,65535,3695,267,221,217,212,210,3781,15898,347,195,169,173,170,171,12224,30199,927,630,572,570,570,567,305,461,33907,30289,47794,41766,815,314,327,360,33267,32765,18009,13143,493,340,1874,8163,26609,29494,35465,33675,33740,16857,2599,7433,65535,65535,35615,33525,33098,16910
20932,65535,2745,196,170,163,160,158,38595,65535,3669,268,226,216,213,212,3794,15952,350,195,173,169,166,167,12247,30255,924,630,573,570,569,566,300,460,33934,30323,47850,41800,815,313,327,358,33279,32795,18014,13155,492,341,1874,8168,26667,29525,35454,33681,33735,16861,2605,7456,65535,65535,35587,33511,33095,16911
20944,65535,2785,194,168,163,161,159,38591,65535,3706,266,222,218,217,212,3795,15982,347,197,171,171,169,167,12247,30281,929,631,577,572,569,567,302,461,33953,30352,47839,41799,816,315,329,358,33292,32855,18031,13184,493,340,1873,8175,26650,29522,35480,33716,33733,16866,2607,7473,65535,65535,35578,33529,33092,16913
20969,65535,2781,196,168,167,162,158,38640,65535,3676,266,222,217,212,210,3799,16031,346,197,170,172,169,169,12259,30325,926,631,574,571,572,567,300,462,33997,30423,47887,41881,818,315,328,361,33332,32958,18069,13227,494,343,1877,8195,26647,29541,35505,33755,33746,16877,2617,7505,65535,65535,35596,33583,33109,16927
21002,65535,2836,198,167,163,161,159,38707,65535,3723,266,226,215,214,213,3803,16083,351,198,171,175,169,166,12278,30389,929,633,574,572,571,566,301,461,34059,30494,47916,41925,817,317,331,362,33385,33071,18100,13276,496,341,1880,8222,26635,29547,35538,33818,33759,16889,2619,7545,65535,65535,35622,33617,33119,16938
21035,65535,2829,197,167,163,161,158,38779,65535,3693,264,222,216,213,211,3808,16131,348,194,169,171,169,170,12288,30455,928,633,576,571,571,567,302,464,34116,30567,47955,41997,817,316,331,361,33439,33191,18143,13321,498,342,1880,8246,26611,29557,35576,33877,33774,16904,2628,7583,65535,65535,35621,33659,33135,16952
21064,65535,2883,198,168,163,161,159,38837,65535,3733,265,223,217,215,214,3813,16173,349,198,171,166,169,169,12304,30515,934,633,577,573,570,567,302,464,34178,30649,47975,42049,819,317,331,363,33503,33315,18181,13369,497,342,1885,8275,26605,29571,35617,33945,33795,16924,2634,7618,65535,65535,35648,33694,33137,16963
21095,65535,2876,198,167,163,161,158,38893,65535,3704,265,223,218,213,215,3819,16221,352,195,171,171,179,169,12324,30583,929,633,575,572,570,569,301,466,34261,30757,48135,42266,821,318,329,365,33592,33461,18228,13419,499,343,1889,8306,26631,29633,35658,34023,33817,16940,2641,7655,65535,65535,35675,33748,33154,16976
21081,65535,2884,196,170,163,161,159,38970,65535,3733,264,222,216,211,212,3817,16151,350,195,167,169,171,169,12328,30574,933,635,572,572,571,567,303,467,34240,30696,48037,41981,820,315,329,361,33530,33279,18209,13332,497,340,1888,8299,26666,29624,35627,33930,33815,16923,2641,7610,65535,65535,35663,33660,33100,16928
20898,65535,2751,197,167,163,160,159,38605,65535,3669,266,223,216,213,213,3777,15928,345,197,171,174,183,168,12248,30404,924,631,574,570,570,568,301,463,34007,30431,47575,41512,812,315,327,361,33254,32839,18069,13195,494,342,1881,8222,26523,29470,35543,33782,33787,16903,2610,7469,65535,65535,35565,33563,33075,16913
20884,65535,2773,197,171,164,161,160,38490,65535,3702,269,222,217,216,215,3765,15925,348,196,171,173,169,154,12247,30393,933,635,577,575,575,568,302,461,33959,30386,47559,41514,813,315,329,361,33207,32762,18033,13170,493,342,1878,8219,26446,29402,35521,33747,33785,16900,2604,7465,65535,65535,35559,33545,33061,16906
20877,65535,2743,196,167,163,160,158,38481,65535,3668,263,222,217,213,215,3764,15924,345,194,173,169,171,168,12246,30395,926,632,573,572,569,564,302,462,33922,30349,47529,41493,811,314,329,362,33167,32747,18012,13165,494,342,1880,8207,26466,29405,35492,33723,33767,16888,2603,7459,65535,65535,35488,33501,33044,16900
20910,65535,2799,197,168,163,161,160,38477,65535,3710,269,222,216,213,216,3770,15985,349,196,173,172,169,170,12249,30427,931,629,572,568,569,563,302,463,33918,30359,47526,41491,813,313,331,358,33223,32853,18029,13191,496,339,1880,8214,26458,29405,35477,33729,33757,16887,2605,7486,65535,65535,35499,33495,33037,16898
20925,65535,2778,198,169,163,161,160,38539,65535,3678,265,221,216,211,215,3777,16007,346,194,167,171,171,169,12253,30454,924,629,573,567,563,570,300,460,33900,30343,47476,41445,810,315,327,361,33226,32877,18033,13194,493,339,1877,8214,26415,29377,35479,33727,33753,16889,2606,7497,65535,65535,35469,33483,33039,16896
20940,65535,2824,197,167,163,160,159,38540,65535,3719,268,221,216,212,212,3777,16042,348,195,174,169,169,168,12242,30467,928,627,570,569,567,562,301,460,33901,30366,47467,41482,810,312,330,359,33251,32954,18051,13222,495,340,1878,8223,26355,29346,35479,33759,33759,16892,2607,7516,65535,65535,35478,33497,33030,16907
20967,65535,2815,197,171,163,160,158,38577,65535,3691,264,222,217,214,215,3782,16089,348,195,171,170,169,170,12251,30503,925,630,572,568,570,565,301,462,33963,30455,47566,41606,812,317,327,359,33309,33074,18088,13271,496,342,1881,8242,26354,29359,35507,33809,33771,16905,2612,7548,65535,65535,35474,33531,33042,16912
20982,65535,2866,197,171,163,162,160,38627,65535,3728,266,221,220,213,211,3783,16138,350,197,170,170,170,170,12269,30554,932,631,577,571,568,563,302,463,34042,30547,47677,41743,817,318,331,364,33367,33190,18123,13315,497,342,1880,8269,26363,29391,35545,33871,33789,16919,2624,7583,65535,65535,35509,33562,33047,16923
21010,65535,2861,202,166,162,162,160,38683,65535,3701,268,221,217,213,211,3787,16187,350,196,167,171,171,171,12274,30608,925,631,572,567,566,563,301,464,34095,30624,47737,41834,815,314,329,363,33422,33317,18153,13357,498,341,1883,8293,26409,29457,35578,33930,33801,16936,2625,7621,65535,65535,35495,33599,33065,16938
21045,65535,2916,197,171,163,164,160,38733,65535,3742,265,222,220,213,215,3794,16230,351,194,169,171,171,169,12286,30675,931,627,569,570,568,564,302,464,34142,30705,47829,41981,819,314,329,362,33493,33461,18197,13405,498,341,1883,8319,26439,29516,35605,33991,33815,16947,2633,7658,65535,65535,35558,33668,33087,16958
21071,65535,2903,197,169,163,164,159,38801,65535,3711,265,222,216,214,211,3797,16262,353,196,170,170,168,167,12303,30741,929,630,570,570,567,563,303,470,34215,30773,47957,42066,820,314,328,363,33541,33511,18213,13413,495,341,1887,8341,26532,29603,35607,33991,33822,16943,2636,7682,65535,65535,35581,33678,33059,16929
20892,65535,2816,200,168,162,162,159,38544,65535,3711,265,222,216,211,214,3760,15973,344,194,172,171,168,169,12227,30523,930,628,568,567,565,562,300,461,33998,30481,47509,41467,811,312,327,359,33209,32911,18082,13220,490,338,1881,8259,26450,29462,35488,33777,33778,16910,2605,7503,65535,65535,35502,33552,33011,16893
20811,65535,2747,196,171,163,159,161,38287,65535,3670,265,224,217,212,211,3737,15910,345,194,171,170,171,166,12194,30457,924,625,569,569,565,562,298,459,33842,30301,47254,41230,806,311,326,356,33031,32645,17972,13132,489,338,1877,8212,26350,29347,35431,33686,33750,16888,2591,7447,65535,65535,35407,33453,32983,16873
20793,65535,2758,197,167,164,160,161,38205,65535,3697,263,225,216,213,210,3728,15884,347,193,169,171,169,172,12177,30411,925,630,570,566,565,560,297,459,33761,30214,47290,41262,806,313,325,356,32921,32499,17923,13085,490,337,1871,8182,26383,29367,35355,33594,33719,16863,2584,7419,65535,65535,35350,33402,32958,16850
20776,65535,2733,198,168,162,170,159,38148,65535,3663,265,221,217,213,211,3723,15901,345,193,171,171,168,170,12167,30401,920,626,569,566,565,556,296,456,33725,30197,47326,41340,807,311,323,358,32903,32520,17916,13098,488,337,1866,8166,26400,29363,35299,33557,33690,16851,2578,7425,65535,65535,35294,33371,32938,16845
20804,65535,2782,197,162,163,160,163,38218,65535,3705,264,221,216,212,210,3729,15947,347,193,170,169,169,169,12182,30427,923,627,570,565,564,562,298,457,33725,30204,47343,41332,807,311,325,358,32908,32559,17920,13106,490,339,1866,8163,26383,29351,35269,33529,33671,16839,2581,7441,65535,65535,35263,33335,32911,16835
20803,65535,2758,196,168,165,161,159,38189,65535,3671,265,221,219,215,210,3731,15961,349,194,170,175,169,169,12172,30423,921,624,564,563,561,562,298,459,33719,30210,47301,41315,806,312,324,357,32922,32606,17927,13124,489,339,1863,8162,26305,29287,35259,33531,33660,16840,2580,7451,65535,65535,35207,33308,32901,16840
20815,65535,2803,196,175,162,163,159,38216,65535,3710,263,220,219,212,212,3731,16011,349,194,168,170,171,169,12184,30455,927,631,574,572,571,566,299,459,33765,30276,47377,41403,809,314,328,357,32965,32705,17959,13162,494,339,1865,8172,26268,29265,35279,33566,33659,16850,2586,7479,65535,65535,35238,33351,32907,16851
20829,65535,2796,199,167,166,164,161,38263,65535,3684,265,222,218,211,213,3738,16060,346,195,170,173,172,169,12202,30507,930,635,576,572,572,569,299,459,33821,30344,47479,41550,811,314,326,359,32996,32797,17985,13198,494,339,1865,8189,26279,29284,35306,33623,33671,16858,2591,7511,65535,65535,35257,33391,32921,16855
20851,65535,2847,197,168,162,162,160,38329,65535,3723,263,223,217,213,213,3743,16116,349,194,170,174,171,168,12213,30557,934,633,573,574,573,566,299,460,33878,30427,47606,41687,812,314,328,359,33022,32887,18013,13238,493,339,1868,8207,26335,29363,35321,33670,33679,16872,2595,7542,65535,65535,35280,33418,32927,16869
20875,65535,2840,196,172,159,161,160,38363,65535,3695,265,224,217,211,210,3749,16165,349,195,171,168,171,169,12214,30603,933,632,572,572,567,567,301,466,33939,30509,47646,41749,813,317,329,359,33081,33011,18045,13282,496,341,1871,8235,26365,29403,35351,33727,33691,16888,2603,7580,65535,65535,35284,33447,32949,16881
20907,65535,2895,198,169,167,167,159,38423,65535,3733,263,223,215,213,212,3754,16211,350,193,170,171,168,169,12224,30644,929,628,567,565,563,561,302,463,34000,30606,47755,41907,817,314,331,361,33156,33155,18079,13323,496,341,1871,8264,26411,29483,35373,33777,33708,16898,2609,7617,65535,65535,35287,33461,32960,16893
20876,65535,2829,199,167,164,160,161,38430,65535,3686,269,223,216,211,210,3745,16094,346,196,175,170,169,168,12209,30583,922,625,566,565,563,562,300,461,33964,30501,47626,41595,809,312,327,361,33071,32919,18039,13221,492,337,1871,8236,26484,29495,35308,33640,33686,16870,2603,7558,65535,65535,35257,33405,32919,16846
20693,65535,2757,196,167,163,159,158,38039,65535,3695,265,221,215,212,211,3699,15865,345,198,173,172,170,166,12122,30403,921,624,565,565,561,559,299,456,33709,30200,47189,41147,806,311,327,354,32751,32425,17885,13065,485,333,1860,8150,26381,29367,35198,33473,33638,16837,2570,7420,65535,65535,35181,33289,32891,16817
20649,65535,2703,193,168,165,163,160,37889,65535,3652,263,221,216,213,212,3687,15834,349,195,170,171,169,168,12094,30337,916,624,565,563,562,560,298,456,33594,30068,47038,41002,801,310,322,354,32614,32207,17793,12985,483,333,1856,8118,26280,29266,35116,33364,33597,16804,2560,7383,65535,65535,35072,33204,32851,16795
20613,65535,2711,195,169,163,161,159,37793,65535,3682,264,225,220,212,209,3680,15812,345,197,169,170,167,169,12067,30279,919,623,566,564,560,557,299,453,33503,29974,47040,41019,802,309,321,353,32511,32077,17742,12948,483,337,1847,8080,26315,29257,35033,33270,33550,16778,2549,7359,65535,65535,35028,33151,32831,16783
20635,65535,2705,195,168,162,164,162,37774,65535,3654,264,221,215,213,210,3685,15873,339,194,170,169,169,168,12069,30287,915,621,564,563,561,557,295,453,33501,29987,47091,41071,801,309,321,355,32539,32180,17745,12972,483,334,1849,8068,26303,29255,34987,33245,33523,16771,2552,7382,65535,65535,34967,33130,32815,16779
20642,65535,2741,197,170,166,161,159,37833,65535,3693,263,219,217,215,212,3687,15899,349,191,168,170,169,167,12070,30299,918,619,563,565,561,556,295,452,33487,29993,47127,41155,804,308,323,355,32536,32210,17750,12982,483,334,1842,8062,26259,29231,34961,33231,33503,16757,2553,7391,65535,65535,34935,33107,32803,16775
20643,65535,2723,196,167,164,164,161,37835,65535,3665,263,221,215,212,212,3687,15938,346,194,170,170,169,168,12065,30303,915,619,563,562,560,557,297,452,33517,30038,47259,41310,807,313,323,353,32559,32293,17759,13006,484,334,1839,8058,26351,29304,34925,33222,33485,16751,2553,7407,65535,65535,34901,33107,32799,16776
20662,65535,2776,197,169,162,163,163,37865,65535,3702,263,220,214,211,211,3689,15984,348,191,175,169,171,171,12068,30331,917,621,563,560,557,555,295,454,33562,30103,47339,41409,809,310,321,352,32615,32405,17780,13038,485,335,1839,8062,26416,29360,34901,33228,33471,16754,2557,7441,65535,65535,34927,33133,32807,16787
20689,65535,2769,197,168,164,161,159,37915,65535,3678,260,221,215,212,209,3697,16033,347,193,171,170,172,169,12078,30375,917,621,563,562,557,555,296,455,33607,30163,47287,41342,805,307,321,353,32675,32534,17803,13073,488,335,1842,8080,26339,29310,34921,33263,33477,16765,2563,7476,65535,65535,34919,33149,32823,16800
20711,65535,2825,195,171,164,162,160,37977,65535,3720,263,222,217,215,212,3700,16087,350,199,170,170,169,167,12085,30430,919,620,563,561,560,555,297,456,33639,30209,47187,41266,803,311,323,355,32736,32653,17827,13105,487,337,1841,8097,26227,29234,34958,33313,33494,16783,2570,7512,65535,65535,34931,33162,32835,16815
20735,65535,2817,197,167,161,163,160,38023,65535,3685,266,221,216,213,215,3701,16130,349,197,171,171,169,172,12094,30473,919,623,568,565,567,562,296,457,33708,30304,47188,41305,807,313,320,360,32825,32803,17870,13154,489,337,1844,8127,26134,29177,35001,33374,33519,16803,2575,7550,65535,65535,34951,33220,32858,16832
20747,65535,2866,199,167,163,162,162,38067,65535,3727,268,223,216,211,211,3707,16174,350,196,170,173,168,169,12122,30547,926,626,570,564,563,557,299,463,33794,30397,47267,41379,808,312,328,361,32891,32922,17894,13181,493,341,1851,8165,26095,29196,35046,33439,33551,16822,2581,7587,65535,65535,34939,33217,32854,16829
20665,65535,2767,198,169,165,161,159,37974,65535,3667,264,222,217,219,210,3686,15985,346,193,169,171,171,166,12075,30417,913,620,560,560,557,554,299,458,33681,30223,47051,41023,804,305,327,359,32733,32564,17830,13050,487,336,1847,8129,26141,29192,34954,33265,33521,16788,2569,7479,65535,65535,34868,33111,32815,16793
20516,65535,2719,196,167,164,158,161,37608,65535,3685,263,227,214,211,210,3651,15831,347,193,170,171,169,168,11987,30241,914,619,561,558,558,554,296,455,33443,29955,46725,40689,797,308,323,353,32550,32239,17684,12915,487,335,1836,8053,26085,29090,34865,33140,33483,16758,2533,7348,65535,65535,34730,32920,32751,16756
20476,65535,2666,198,168,163,162,162,37465,65535,3644,265,220,221,213,212,3637,15787,344,193,169,169,167,168,11927,30119,910,619,560,555,557,555,294,450,33308,29795,46471,40427,793,307,318,345,32423,32045,17576,12815,479,330,1833,8023,25918,28931,34794,33025,33445,16730,2520,7303,65535,65535,34579,32803,32708,16736
20443,65535,2675,196,169,163,160,160,37366,65535,3674,261,221,217,212,214,3630,15776,344,192,170,171,169,169,11912,30096,911,616,557,555,556,550,294,448,33221,29711,46331,40291,790,305,319,348,32342,31965,17533,12795,475,331,1826,7990,25805,28820,34705,32939,33409,16716,2517,7303,65535,65535,34545,32788,32701,16737
20479,65535,2677,196,167,162,160,159,37369,65535,3646,264,214,215,211,210,3634,15843,344,198,169,171,167,167,11933,30163,906,615,559,554,553,550,294,453,33231,29735,46324,40294,790,306,319,349,32393,32088,17557,12827,477,333,1825,7992,25731,28766,34663,32911,33391,16707,2527,7353,65535,65535,34538,32824,32704,16735
20481,65535,2712,196,167,163,161,159,37402,65535,3683,266,219,216,207,210,3636,15859,346,194,174,169,170,167,11942,30201,911,614,556,553,552,548,294,449,33213,29726,46198,40156,790,306,319,353,32405,32131,17566,12843,481,331,1821,7986,25615,28672,34642,32887,33378,16706,2531,7370,65535,65535,34534,32831,32721,16746
20487,65535,2700,197,170,164,160,159,37417,65535,3654,266,224,214,211,210,3637,15903,345,196,172,169,169,172,11944,30239,905,614,555,555,551,548,295,448,33222,29745,46097,40062,787,306,320,350,32431,32209,17582,12870,481,333,1822,7993,25499,28592,34645,32905,33381,16713,2537,7399,65535,65535,34525,32844,32733,16755
20515,65535,2753,199,168,166,163,158,37470,65535,3698,264,219,217,210,210,3645,15954,346,193,173,170,172,169,11957,30292,912,616,554,556,550,550,293,449,33252,29789,46053,40051,791,308,319,351,32481,32318,17613,12907,483,335,1823,8011,25391,28529,34663,32942,33391,16724,2542,7439,65535,65535,34555,32876,32749,16770
20537,65535,2750,195,168,163,161,159,37525,65535,3673,263,220,215,211,210,3648,16006,346,194,170,169,170,172,11969,30354,910,613,555,555,553,548,294,451,33307,29867,46110,40145,789,307,321,354,32551,32455,17647,12957,484,334,1825,8029,25379,28540,34687,32995,33408,16739,2547,7478,65535,65535,34587,32925,32775,16788
20558,65535,2802,197,171,163,160,159,37579,65535,3713,263,221,215,212,210,3653,16052,348,193,169,174,167,168,11980,30403,911,615,555,553,554,549,295,454,33385,29975,46289,40373,792,308,321,354,32618,32584,17689,13009,484,334,1824,8049,25453,28642,34703,33042,33420,16753,2553,7509,65535,65535,34662,32995,32802,16808
20577,65535,2795,198,169,163,160,160,37627,65535,3683,266,219,216,211,204,3657,16100,346,197,168,170,170,172,11995,30461,909,614,559,554,551,548,295,453,33470,30081,46409,40482,792,307,318,355,32698,32731,17734,13059,487,336,1831,8073,25527,28725,34741,33114,33440,16769,2561,7546,65535,65535,34689,33052,32831,16827
20612,65535,2849,195,170,163,164,162,37696,65535,3725,263,221,227,212,209,3664,16151,350,194,170,171,173,171,12011,30525,915,615,557,550,549,546,297,456,33535,30164,46458,40578,797,309,325,359,32775,32871,17770,13103,487,340,1830,8105,25516,28748,34789,33185,33465,16791,2564,7587,65535,65535,34708,33093,32850,16838
20601,65535,2803,197,170,164,161,161,37745,65535,3683,264,221,216,210,211,3662,16090,346,197,169,171,168,174,12015,30534,906,611,551,549,546,545,296,458,33538,30144,46478,40484,793,310,321,351,32749,32740,17767,13044,483,333,1833,8109,25590,28803,34748,33099,33459,16776,2567,7562,65535,65535,34687,33057,32799,16798
20405,65535,2716,198,167,166,162,160,37371,65535,3688,265,216,217,211,211,3616,15846,346,193,172,169,171,168,11929,30334,905,610,550,549,546,543,294,451,33305,29863,46047,40007,791,305,318,354,32429,32214,17614,12879,480,331,1825,8028,25504,28671,34643,32945,33419,16747,2529,7404,65535,65535,34623,32956,32780,16778
20361,65535,2662,197,167,163,160,162,37238,65535,3647,264,227,213,212,210,3608,15814,346,193,173,169,168,167,11907,30288,902,610,550,550,545,547,292,449,33189,29727,45833,39804,783,305,319,349,32298,32007,17517,12798,476,329,1819,8005,25385,28549,34602,32865,33401,16725,2521,7371,65535,65535,34525,32872,32754,16759
20332,65535,2667,199,168,164,161,157,37173,65535,3678,262,221,214,212,211,3598,15784,345,193,171,172,168,167,11887,30237,904,610,551,547,547,543,292,449,33103,29648,45823,39831,785,307,319,348,32201,31883,17471,12766,478,329,1816,7975,25389,28539,34529,32789,33369,16708,2513,7345,65535,65535,34483,32845,32737,16757
20347,65535,2661,197,171,162,160,163,37157,65535,3648,265,222,212,213,210,3600,15838,344,197,171,168,169,170,11893,30255,900,607,550,549,545,542,296,447,33126,29691,45949,39959,784,309,317,349,32242,32004,17493,12801,474,330,1817,7974,25439,28581,34493,32775,33349,16701,2513,7375,65535,65535,34461,32851,32731,16755
20368,65535,2700,196,168,164,163,160,37254,65535,3688,261,221,215,210,205,3607,15869,347,192,171,163,172,171,11903,30280,903,608,549,549,546,545,293,448,33124,29705,45923,39930,787,306,319,351,32246,32043,17507,12817,479,332,1813,7973,25411,28559,34477,32765,33337,16699,2517,7382,65535,65535,34438,32839,32721,16758
20379,65535,2686,197,168,162,161,159,37281,65535,3657,261,220,215,212,211,3613,15904,347,193,169,171,178,166,11905,30305,901,609,554,548,549,544,296,450,33136,29723,45861,39874,784,306,321,347,32289,32130,17523,12840,479,333,1814,7979,25343,28510,34493,32794,33340,16709,2520,7407,65535,65535,34393,32831,32724,16767
20411,65535,2738,197,168,166,164,160,37343,65535,3700,263,219,215,211,210,3623,15956,347,193,183,170,169,169,11921,30348,905,609,551,549,547,545,294,449,33163,29774,45830,39871,786,307,319,352,32348,32259,17554,12881,479,335,1814,7995,25278,28477,34508,32832,33353,16718,2521,7438,65535,65535,34424,32861,32735,16781
20446,65535,2734,196,168,162,160,160,37411,65535,3671,263,221,215,213,211,3629,16005,349,193,172,175,171,168,11934,30406,902,609,551,551,548,544,293,449,33227,29849,45883,39954,787,308,325,351,32431,32407,17585,12932,482,334,1815,8020,25251,28481,34529,32886,33370,16737,2531,7476,65535,65535,34459,32899,32751,16797
20480,65535,2789,197,168,162,161,159,37493,65535,3714,263,221,213,213,212,3635,16057,349,198,171,172,172,165,11949,30457,908,612,551,550,548,547,292,452,33298,29948,46013,40145,790,308,321,352,32507,32554,17631,12984,485,335,1817,8042,25288,28543,34557,32938,33386,16753,2537,7517,65535,65535,34505,32962,32779,16816
