 ECG Channel 
1322.955051
1318.97644
1321.748057
1336.477856
1349.061888
1350.581807
1355.096859
1359.410746
1368.574961
1370.765432
1376.152203
1393.340694
1409.009267
1413.323154
1414.440741
1421.660354
1441.620462
1460.775907
1475.304541
1491.867184
1512.520196
1535.453085
1563.638635
1583.68815
1609.95145
1636.460619
1655.57136
1679.264209
1715.965774
1751.125068
1774.884972
1796.990847
1825.556377
1846.723479
1853.78663
1865.633054
1882.955656
1892.253982
1886.911915
1873.254999
1855.798287
1837.805133
1799.918926
1750.722736
1712.523605
1677.319607
1632.996098
1577.831993
1528.859321
1500.584364
1468.978997
1426.264814
1398.571002
1383.304761
1370.854839
1347.005528
1329.794685
1331.538121
1330.733458
1322.262147
1311.063923
1310.035743
1317.56828
1313.880243
1298.770463
1297.138786
1314.707257
1315.333106
1310.169853
1309.074618
1320.071676
1321.010449
1310.25926
1307.532347
1311.242737
1314.975478
1308.202899
1302.05617
1303.553737
1308.538176
1303.866661
1302.57026
1309.23108
1312.18151
1311.689772
1308.605231
1308.091141
1313.187338
1309.655763
1299.418664
1305.699504
1315.020182
1311.421551
1297.83169
1301.922059
1314.550795
1306.884147
1296.42353
1297.004676
1305.274821
1310.303963
1301.340914
1290.679132
1294.903612
1296.647048
1291.193222
1285.158251
1290.52267
1295.842385
1290.14269
1282.677207
1284.979437
1290.790891
1288.108681
1285.381768
1287.482832
1287.70635
1284.040664
1277.223382
1276.642236
1289.896821
1290.545021
1279.682074
0
1889.214145
1873.165592
1841.761391
1794.107472
1744.352489
1698.799634
1650.69868
1592.517089
1539.297585
1499.176204
1464.419241
1422.263851
1385.383473
1364.730461
1351.274711
1331.515769
1308.515824
1298.166966
1296.512937
1287.32637
1274.719986
1271.188411
1278.430376
1281.134937
1271.166059
1270.003768
1277.648065
1280.576143
1271.277818
1266.159268
1272.618922
1276.932809
1269.601437
1264.371129
1269.176754
1277.603361
1274.407062
1265.823992
1271.56839
1279.011521
1275.032911
1263.454707
1266.271027
1277.022216
1274.988207
1263.700576
1260.504277
1268.215629
1271.411928
1260.906608
1256.369204
1266.047509
1269.467326
1259.923131
1252.792925
1259.029062
1260.303111
1250.893027
1244.366317
1246.489733
1253.217608
1249.842495
1243.718117
1248.702556
1255.318672
1250.960082
1241.505294
1239.046602
1247.406155
1244.679242
1234.196274
1232.899872
1241.70646
1242.578178
1227.468399
1222.282794
1229.658869
1235.604433
1228.630689
1225.747314
1231.111733
1235.269157
1228.943614
1224.9203
1230.888215
1232.028154
1220.31584
1210.659887
1220.673468
1234.620957
1236.252634
1233.302204
1248.233169
1277.983341
1284.845327
1271.523687
1260.437222
1261.06307
1256.011576
1242.287605
1241.952329
1255.519838
1255.721003
1237.437277
1221.165207
1220.896986
1219.555881
1208.312954
1199.394607
1201.875651
1205.228413
1201.205099
1197.315895
1200.512195
1208.245898
1205.027247
1193.113767
1195.751273
1204.110826
1200.668657
1191.280924
1189.313971
1176.439366
1123.219862
1095.436644
1161.106069
1333.147446
1614.801778
1961.052652
2307.839967
2569.690653
2759.702833
2825.059333
2669.245323
2308.91285
1839.526217
1509.569765
1409.791578
1372.642979
1333.236853
1300.402141
1274.585876
1265.645178
1265.444012
1256.816239
1241.84057
1242.511123
1253.083498
1254.290492
1249.887198
1252.72587
1263.968797
1274.00473
1272.060129
1269.914361
1278.877411
1291.863774
1295.440053
1296.535289
1306.101836
1318.127074
1323.826769
1324.653783
1335.203807
1353.82281
1363.657577
1366.183325
1381.047235
1407.735218
1423.917881
1430.332831
1447.566026
1474.052843
1501.500786
1519.806864
1540.750449
1575.775632
1610.420836
1636.393563
1662.388642
1697.771454
1734.741239
1760.624559
1784.652684
1816.906252
1852.087897
1871.645674
1877.524183
1890.935229
1908.36959
1907.654334
1890.331732
1879.781709
1869.097575
1842.029612
1802.064693
1759.641082
1720.324364
1670.211753
1609.213842
1553.803868
1510.687353
1470.208343
1427.002421
1389.652656
1370.877191
1357.309682
1336.14258
1314.215519
1302.816129
1298.546946
1288.153385
1272.305998
1272.931847
1281.514917
1277.290437
1265.734585
1265.935751
1274.429414
1277.357492
1271.188411
1268.863829
1274.652931
1275.636408
1265.265198
1260.727794
1266.606303
1271.680149
1266.405137
1261.733623
1270.786079
1277.491603
1272.529515
1267.410966
1269.936713
1276.441071
1269.333216
1261.375995
1266.069861
1275.882277
1272.797736
1262.068899
1262.404175
1270.897838
1271.121355
1259.789021
1255.206913
1260.459573
1261.264236
1253.038794
1247.272044
1254.469306
1258.559675
1251.273006
1247.361451
1254.044623
1258.49262
1251.228303
1240.81239
1241.907625
1250.557751
1250.848323
1243.740468
1246.847361
1253.843457
1249.954253
1240.2983
1236.632614
1246.243864
1247.048527
1236.811428
1235.537378
1244.52278
1243.338137
1228.429524
1221.187558
1233.793942
1244.411021
1239.761858
1241.214721
1261.711271
1289.382731
1293.495452
1284.264181
1280.576143
1278.877411
1263.477059
1250.066012
1257.196219
1269.757899
1263.432355
1243.829875
1231.938747
1233.950404
1229.837683
1218.795922
1216.806616
1222.953346
1223.065105
1217.36541
1212.783302
1219.086494
1224.875596
1219.198253
1212.000991
1220.31584
1225.814369
1218.304183
1211.509253
1215.465512
1204.200233
1145.99629
1112.446322
1173.28777
1333.259205
1602.91065
1947.216922
2302.028513
2574.451575
2764.620216
2829.663793
2680.465899
2327.554205
1858.391089
1522.31026
1425.393096
1389.518546
1345.150333
1306.03478
1285.493527
1284.688864
1285.448824
1271.724853
1258.045585
1261.219533
1270.450803
1267.567428
1261.06307
1265.689882
1279.771481
1286.141728
1284.554754
1288.958048
1302.346742
1307.241774
1303.643144
1307.755865
1323.357382
1334.153275
1337.461333
1341.462295
1357.734365
1373.469993
1374.252304
1382.365988
1401.812005
1424.208453
1437.664203
1449.465924
1472.354111
1498.975038
1518.175187
1532.301489
1562.006958
1596.450996
1624.323621
1644.283729
1677.029035
1717.642154
1752.644986
1775.75669
1802.690542
1838.274519
1864.873095
1876.875982
1888.588296
1905.866194
1919.254889
1911.789407
1898.534822
1892.701017
1879.714653
1847.50579
1806.110359
1766.972454
1726.381686
1673.788032
1611.046685
1560.576446
1521.125617
1478.50084
1435.429029
1406.528223
1390.010284
1368.619665
1338.176589
1322.709182
1323.089161
1318.238833
1301.855004
1287.996922
1290.410911
1294.36717
1284.018312
1276.418719
1280.66555
1287.639295
1285.381768
1275.994036
1278.050396
1284.532402
1277.826879
1266.449841
1270.54021
1278.788004
1280.285571
1275.256428
1276.217553
1286.320542
1287.639295
1277.737472
1274.317655
1281.55962
1282.319579
1274.027082
1269.310864
1275.368187
1281.805489
1273.133012
1263.633521
1270.16023
1279.25739
1274.809393
1266.226323
1267.701539
1273.848268
1272.015425
1264.237018
1266.494544
1276.061091
1273.892972
1263.74528
1260.727794
1265.734585
1265.108736
1257.822067
1258.269102
1264.013501
1265.242847
1254.066974
1246.892064
1252.792925
1255.944521
1247.204989
1239.895968
1248.166114
1256.682129
1250.960082
1239.672451
1243.181675
1254.64812
1250.602454
1239.761858
1236.319689
1245.014518
1246.780306
1240.611224
1247.026175
1266.718062
1289.76271
1296.334123
1294.88126
1297.339952
1294.657742
1280.062053
1270.54021
1273.87062
1279.994998
1270.629617
1255.989224
1253.105849
1253.575236
1240.566521
1225.993183
1223.087457
1227.155474
1224.830893
1215.532567
1219.15355
1228.697744
1229.591814
1219.377067
1216.828968
1225.881425
1228.89891
1222.327497
1216.180768
1223.288622
1224.585023
1184.061311
1127.019659
1139.871912
1235.246806
1425.527206
1732.729582
2105.780197
2442.598634
2664.707919
2814.50931
2816.208043
2589.047264
2163.335939
1696.83268
1476.802108
1431.271604
1383.818851
1333.058039
1309.409894
1304.604269
1295.708274
1278.676245
1270.339044
1275.077614
1276.888105
1270.048472
1265.913399
1276.977512
1285.7841
1282.766614
1280.799661
1288.935696
1303.911365
1307.912327
1304.984248
1313.254394
1331.806342
1339.785914
1340.590577
1350.984138
1366.742118
1375.280485
1379.124985
1389.071511
1406.930555
1419.067552
1425.147226
1439.094715
1468.509611
1493.409454
1505.077065
1518.152835
1547.634786
1579.195449
1600.183737
1620.568528
1653.515
1689.814233
1717.686858
1740.239768
1775.332007
1814.112283
1839.57092
1853.898389
1876.898334
1899.093616
1903.966296
1896.433758
1893.393921
1895.249116
1881.994531
1851.551455
1818.135597
1788.385426
1747.95112
1692.742311
1640.171008
1599.177909
1555.927283
1504.652381
1457.646663
1428.544692
1406.416465
1378.588543
1347.340804
1333.773295
1330.286423
1319.311716
1299.776292
1294.523632
1299.061036
1294.50128
1283.303056
1279.25739
1283.839498
1288.980399
1281.134937
1280.799661
1292.020236
1295.596516
1285.091196
1277.849231
1285.292361
1293.696617
1291.863774
1288.689827
1293.316638
1297.094082
1291.528498
1282.721911
1284.621809
1289.941524
1289.583896
1282.923077
1286.29819
1292.713141
1289.181565
1279.12328
1278.788004
1286.81228
1291.729664
1283.079539
1278.676245
1283.638332
1286.253486
1278.162155
1268.685015
1273.289475
1279.480908
1272.753033
1267.58978
1272.060129
1275.748167
1273.535344
1266.159268
1268.886181
1273.624751
1268.886181
1253.485829
1256.19039
1267.187448
1266.248675
1258.939655
1256.302149
1260.146649
1259.967835
1252.457649
1247.9873
1255.944521
1259.38669
1249.52957
1240.901797
1247.920245
1251.898855
1248.769611
1249.350756
1255.050451
1269.690844
1283.86185
1293.003713
1306.124187
1314.327277
1302.905536
1288.980399
1283.168946
1290.410911
1289.449786
1281.850193
1276.217553
1273.468289
1260.794849
1243.24873
1235.023288
1241.237073
1245.215684
1236.811428
1225.523797
1230.485884
1237.213759
1232.430486
1226.931957
1228.183654
1232.385782
1227.580157
1222.841587
1225.456742
1230.083553
1228.697744
1210.324611
1166.023453
1146.219807
1189.962171
1307.711161
1551.009899
1894.802081
2254.084021
2531.357411
2727.38221
2832.793037
2720.631983
2386.696921
1922.562948
1568.287798
1452.952797
1414.731314
1350.984138
1320.295193
1317.121246
1305.699504
1295.752978
1293.741321
1302.525556
1296.870565
1283.906553
1285.292361
1293.741321
1297.407007
1293.875431
1297.004676
1307.666458
1310.572184
1307.062961
1307.666458
1322.440961
1338.735382
1340.031784
1344.323319
1356.303854
1370.854839
1375.99574
1378.588543
1394.592392
1414.619555
1428.857616
1431.718639
1445.286148
1472.577628
1488.112091
1497.321009
1517.102303
1545.645481
1579.195449
1599.848461
1621.417895
1656.756003
1691.334151
1713.238861
1741.089134
1786.954914
1816.906252
1839.973252
1860.335691
1882.665084
1907.319058
1919.031372
1921.244195
1930.207244
1936.711602
1922.786465
1893.617439
1869.924589
1844.510656
1800.410664
1745.760649
1696.18448
1650.788087
1605.883432
1546.584254
1499.243259
1473.181125
1440.279357
1405.678857
1384.087072
1371.659502
1356.572074
1331.247548
1315.668382
1319.512882
1320.89869
1309.409894
1296.647048
1300.223327
1306.593574
1298.189318
1291.953181
1295.462405
1304.045475
1306.951202
1300.558603
1301.586783
1307.577051
1308.605231
1301.385617
1300.13392
1317.031839
1322.955051
1311.041571
1305.990077
1312.807359
1312.539138
1301.653838
1288.622771
1296.647048
1311.421551
1311.399199
1296.892917
1296.959972
1298.457539
1290.008579
1285.649989
1287.616943
1288.890992
1292.646085
1284.308885
1285.91821
1295.685923
1287.773405
1280.173812
1278.586838
1284.867678
1288.555716
1281.894896
1276.955161
1281.291399
1282.811318
1275.770518
1267.545076
1269.914361
1278.542135
1271.993073
1263.633521
1264.840515
1277.536306
1275.547001
1260.012538
1252.480001
1262.672396
1272.797736
1272.08248
1275.27878
1286.387597
1300.513899
1307.666458
1308.381713
1316.651859
1316.517748
1305.677152
1291.260277
1295.551812
1304.023123
1299.575126
1281.246696
1278.564486
1277.424547
1265.376957
1253.843457
1251.8318
1257.419736
1255.788059
1244.120448
1239.426582
1248.166114
1249.551922
1241.214721
1237.817256
1249.216646
1255.743355
1242.466419
1238.644271
1249.976605
1256.324501
1224.853244
1174.18184
1166.023453
1243.516951
1410.931517
1699.380779
2068.653949
2413.407256
2646.312433
2802.215851
2819.985487
2610.639049
2222.456303
1762.747975
1496.605753
1433.216206
1402.437854
1342.266958
1315.981307
1315.266051
1310.840405
1297.049379
1291.863774
1293.875431
1293.920135
1287.773405
1288.555716
1302.503205
1309.834577
1305.341876
1303.151405
1311.198033
1320.786932
1320.943394
1317.680039
1327.738324
1344.792705
1351.252359
1350.738269
1359.701319
1373.492345
1382.65656
1384.824679
1390.300857
1410.618593
1426.197758
1431.47277
1443.52036
1469.26957
1495.130538
1512.766065
1528.255824
1560.151763
1588.739644
1606.129301
1626.022354
1655.616064
1690.842413
1722.671297
1748.107582
1780.49526
1817.286231
1838.185112
1857.11704
1875.713691
1900.524128
1917.422046
1913.532843
1909.196604
1908.593107
1893.908011
1860.469801
1825.824598
1793.8169
1754.433126
1696.855032
1641.333299
1602.105987
1564.264484
1514.576556
1464.978035
1437.10541
1416.519453
1389.540898
1355.23097
1340.121191
1336.857836
1327.626565
1314.193167
1312.807359
1315.869548
1309.320487
1298.099911
1298.681056
1307.82292
1308.515824
1302.078521
1299.61983
1305.073655
1309.521652
1302.614963
1296.93762
1305.364228
1311.80153
1303.397274
1296.311771
1301.072693
1311.063923
1306.995905
1299.686885
1302.480853
1307.666458
1304.380751
1295.171832
1295.484757
1301.318562
1303.240812
1291.573202
1281.000826
1287.281667
1293.338989
1284.867678
1280.039701
1287.751053
1290.790891
1280.777309
1272.998902
1280.509088
1287.482832
1279.615018
1269.333216
1272.373053
1279.391501
1276.351664
1267.768594
1266.583951
1276.083443
1276.843402
1264.751108
1261.800678
1264.63935
1263.454707
1253.552884
1250.177771
1254.290492
1259.163172
1256.413908
1257.97853
1267.58978
1274.921152
1281.04553
1292.757844
1305.654801
1307.912327
1295.01537
1282.677207
1281.403158
1289.11451
1287.616943
1279.570315
1275.189373
1274.965855
1262.203009
1245.126277
1240.611224
1248.479038
1246.981471
1236.945538
1237.079649
1238.867788
1236.140875
1228.206006
1221.58989
1229.323593
1233.369259
1226.015535
1221.880462
1231.178788
1238.107829
1230.888215
1208.424712
1162.380119
1136.89913
1181.35675
1311.846234
1573.741624
1938.522093
2308.197595
2584.152232
2781.942818
2901.010561
2793.766891
2444.029146
1971.110937
1586.750339
1436.144285
1382.097767
1335.784952
1313.656725
1306.057132
1292.310809
1278.989169
1279.860888
1280.799661
1273.334178
1265.80164
1272.350701
1287.371074
1286.566411
1280.01735
1286.4323
1297.429359
1299.552774
1295.708274
1300.111568
1316.227176
1324.810246
1322.016278
1327.783028
1346.312624
1359.947188
1361.042423
1366.786822
1387.439834
1406.707037
1411.311497
1417.391171
1437.708907
1463.368709
1476.019797
1488.536774
1513.548376
1542.762106
1566.3879
1587.175022
1614.712371
1651.145715
1681.432328
1706.645096
1736.238806
1773.253295
1802.467025
1823.835292
1848.645729
1881.189869
1899.093616
1900.255907
1901.84288
1908.928383
1905.642677
1886.151956
1863.330825
1840.867322
1812.480606
1763.262065
1704.231108
1655.303139
1610.912575
1559.011824
1503.758312
1461.96055
1434.66907
1403.868366
1365.289255
1340.679984
1334.667365
1321.971574
1303.486681
1292.288457
1293.741321
1290.567373
1278.631542
1270.786079
1279.011521
1285.649989
1279.212687
1275.41289
1281.626675
1290.388559
1287.862812
1280.464385
1280.509088
1287.594591
1283.012483
1275.144669
1276.932809
1288.958048
1292.355513
1283.683036
1281.224344
1291.796719
1295.596516
1285.985265
1284.644161
1291.841423
1291.237925
1281.626675
1273.401233
1278.139803
1283.168946
1274.205896
1266.494544
1272.864791
1282.788966
1280.687902
1271.858963
1274.295303
1280.822013
1275.636408
1265.309902
1266.941579
1271.858963
1269.690844
1262.962969
1261.800678
1266.047509
1263.633521
1253.172905
1246.71325
1253.552884
1257.285626
1249.104887
1242.064088
1245.841532
1250.669509
1244.567483
1242.22055
1251.384765
1262.448879
1257.844419
1260.347815
1284.085367
1305.431283
1304.470158
1286.879335
1274.965855
1273.423585
1270.942541
1260.772498
1265.466364
1271.143707
1260.303111
1238.666622
1227.244881
1228.071896
1227.982489
1217.700686
1210.257555
1219.108846
1225.210872
1215.420808
1205.340171
1211.039866
1219.198253
1211.956288
1205.094302
1208.827044
1217.410114
1215.465512
1206.524814
1207.016552
1189.716302
1128.360764
1103.505624
1178.428671
1362.137659
1660.198171
2023.928109
2385.892258
2650.067526
2840.884369
2901.926983
2725.83994
2340.42881
1852.37847
1517.482283
1402.12493
1363.165839
1335.695545
1311.510958
1290.857946
1281.403158
1281.514917
1272.97655
1259.230227
1258.202047
1267.835649
1270.584914
1265.354605
1267.254504
1279.078576
1283.370111
1280.777309
1283.213649
1295.484757
1303.441978
1300.715065
1301.67619
1315.198995
1329.325298
1332.275728
1333.19215
1348.614853
1369.156107
1380.08611
1385.0929
1400.71677
1424.610785
1438.021831
1444.749706
1464.642759
1495.756387
1517.951669
1534.782533
1560.889371
1597.166252
1627.698735
1647.412973
1676.850221
1715.317573
1748.107582
1771.375748
1794.487452
1826.852778
1853.853685
1867.555304
1873.299703
1885.079072
1897.283125
1891.091691
1873.746738
1860.022767
1845.024746
1811.25126
1760.468097
1713.574137
1669.943532
1617.215767
1556.39667
1504.138291
1469.560143
1434.445552
1392.468976
1360.081298
1344.502132
1329.370001
1303.441978
1285.471175
1285.806452
1286.991094
1278.050396
1267.165097
1267.321559
1272.417757
1267.545076
1258.559675
1257.21857
1264.415832
1261.95714
1252.882332
1252.189428
1259.833724
1257.822067
1247.763782
1249.306053
1264.415832
1269.914361
1262.359472
1257.889123
1266.226323
1269.310864
1262.113602
1256.458611
1262.135954
1269.623789
1262.292416
1253.61994
1255.653948
1262.515934
1256.279797
1247.674375
1250.222474
1257.822067
1257.08446
1249.686032
1251.720041
1258.939655
1258.872599
1253.172905
1250.222474
1259.431393
1262.158306
1250.401288
1240.9465
1247.9873
1249.440163
1238.152532
1232.430486
1236.923186
1242.108791
1233.615128
1227.781323
1231.737582
1238.577216
1235.537378
1228.831855
1233.63748
1243.069916
1240.387707
1227.155474
1222.774532
1234.15157
1239.78421
1237.750201
1237.906663
1256.391556
1280.442033
1283.794795
1278.899762
1278.720949
1272.954198
1256.883294
1249.618977
1254.804582
1266.31573
1260.459573
1241.661756
1234.308032
1232.989279
1221.925166
1209.095265
1206.904794
1210.659887
1208.357657
1202.814424
1204.55786
1207.75416
1205.250765
1196.667695
1193.247878
1201.674485
1206.927145
1197.76293
1190.275096
1195.952439
1197.24884
1170.426747
1107.886566
1085.333656
1149.527866
1298.323428
1566.209086
1929.983727
2306.543566
2568.975397
2753.64551
2850.093287
2735.048859
2379.074976
1882.843898
1520.455065
1411.155034
1366.451546
1318.350591
1292.310809
1287.147556
1277.938637
1261.420698
1250.110716
1252.010614
1254.469306
1247.070878
1240.119486
1246.936768
1257.732661
1256.816239
1253.977567
1261.979492
1274.027082
1276.374015
1272.685978
1282.118414
1301.184452
1310.728647
1308.180548
1314.416684
1333.594481
1348.95013
1352.593464
1362.517639
1385.271714
1404.270697
1411.892642
1422.666183
1444.973224
1469.180163
1484.558163
1496.42694
1526.870015
1561.895199
1585.789214
1603.514147
1635.45479
1673.408052
1698.75493
1721.978393
1757.227094
1795.940315
1820.86251
1837.112229
1853.92074
1876.674816
1892.209279
1890.041159
1885.391997
1885.682569
1875.177249
1843.303662
1804.098702
1771.711024
1731.008498
1673.542163
1614.242985
1568.176039
1526.311222
1475.684521
1429.058782
1399.30861
1376.107499
1347.072583
1318.663516
1302.637315
1299.664533
1288.890992
1270.830783
1263.924094
1266.494544
1264.415832
1253.37407
1247.562617
1255.184562
1258.403213
1250.468344
1248.836666
1259.00671
1260.817201
1252.301187
1247.540265
1254.066974
1263.588818
1261.018367
1255.81041
1258.917303
1267.343911
1262.627693
1250.893027
1252.837628
1262.560637
1263.633521
1252.435297
1247.361451
1251.854152
1254.826934
1244.969814
1243.807524
1251.407117
1255.095155
1246.266216
1237.146704
1240.678279
1246.489733
1242.712288
1236.990242
1240.454762
1245.796829
1239.940672
1232.586948
1233.972756
1240.030079
1237.258463
1229.323593
1229.748276
1235.760896
1236.431448
1230.150608
1230.150608
1237.705497
1237.839608
1230.485884
1226.484922
1230.508236
1230.68705
1221.455779
1218.706515
1228.38482
1232.09521
1224.227396
1218.035962
1223.13216
1229.971794
1224.182692
1219.041791
1223.489788
1234.084515
1235.760896
1234.866826
1239.359527
1255.341024
1272.998902
1280.240867
1280.799661
1284.353588
1275.949332
1258.783192
1246.892064
1252.435297
1262.359472
1256.548018
1242.555826
1238.666622
1235.671489
1220.18173
1207.418884
1211.553956
1219.108846
1213.230337
1203.887308
1205.764855
1213.699724
1211.73277
1202.367389
1200.981581
1208.64823
1209.207023
1202.613259
1201.942706
1207.485939
1205.720151
1178.875706
1120.425894
1083.433757
1129.008964
1256.637425
1506.015838
1867.600008
2246.216207
2522.304955
2711.557175
2837.777476
2766.96715
2447.516018
1972.452041
1576.826164
1444.235616
1391.306685
1334.332089
1302.145577
1294.970667
1283.370111
1263.298245
1252.949387
1255.653948
1256.70448
1249.060184
1245.886236
1258.224399
1268.349739
1264.102908
1261.800678
1274.049434
1285.7841
1284.174774
1284.644161
1296.378827
1309.23108
1313.924946
1316.070714
1328.83356
1345.485609
1352.973444
1355.543894
1367.27856
1387.417482
1398.79452
1402.169633
1415.535976
1438.692384
1458.786602
1471.996483
1490.7943
1523.450199
1553.647405
1570.858249
1591.801833
1628.078714
1660.935779
1682.684026
1706.198061
1743.927806
1783.82567
1807.630278
1822.762409
1846.74583
1874.350235
1883.939133
1882.821546
1885.123776
1888.521241
1875.31136
1848.086935
1819.163778
1792.744016
1753.963739
1697.34677
1642.11561
1597.859156
1551.971025
1498.058617
1450.136477
1419.358125
1393.608915
1361.467107
1330.956975
1316.048362
1307.040609
1292.176699
1274.697635
1272.395405
1276.552829
1269.13205
1256.637425
1255.743355
1265.198143
1266.092213
1259.632559
1257.956178
1263.588818
1262.940617
1255.139858
1255.430431
1265.823992
1268.10387
1260.280759
1256.05628
1265.265198
1275.144669
1270.16023
1261.219533
1263.700576
1269.288512
1264.974626
1254.625768
1256.682129
1265.354605
1264.482887
1254.558713
1252.323538
1257.732661
1257.08446
1247.652024
1244.1428
1252.457649
1255.229265
1246.623844
1242.332309
1248.657852
1251.295358
1244.52278
1235.492675
1239.873617
1245.752125
1239.851265
1231.022326
1232.899872
1236.766724
1230.619994
1221.165207
1222.863939
1231.044678
1229.167131
1217.74539
1216.717209
1224.696782
1226.909605
1219.28766
1217.432465
1225.009707
1227.49075
1218.818273
1214.54909
1222.327497
1226.306108
1217.477169
1212.224509
1222.059276
1228.921262
1218.639459
1205.809558
1210.771645
1223.623898
1224.473265
1219.488826
1231.804637
1262.828858
1278.944466
1270.227286
1264.058204
1269.064995
1261.040719
1245.796829
1244.813352
1258.783192
1260.437222
1241.885274
1225.009707
1221.791055
1220.539358
1207.75416
1197.829985
1202.233279
1210.525776
1205.116654
1194.521927
1196.265363
1204.155529
1198.075855
1189.381026
1192.465567
1201.875651
1200.489843
1192.89025
1193.739616
1201.562727
1190.185689
1130.774752
1081.869135
1122.795179
1248.50139
1481.563029
1825.131693
2199.523413
2490.744292
2683.438681
2797.074949
2729.259757
2435.24491
1976.698873
1566.767879
1426.957718
1388.468014
1336.611967
1294.925963
1279.927943
1275.390539
1263.74528
1248.590797
1244.634538
1254.178733
1256.123335
1251.004785
1252.792925
1265.131088
1268.640312
1260.504277
1261.554809
1273.915323
1286.879335
1286.611114
1285.359417
1296.870565
1310.080446
1313.902594
1317.680039
1333.639185
1350.917083
1356.63913
1360.528333
1374.028787
1396.402883
1411.199738
1416.050066
1428.611747
1454.696233
1478.009102
1492.604791
1513.458969
1544.080859
1573.786327
1594.551098
1614.041819
1649.782258
1683.399282
1706.466282
1733.355431
1768.984111
1801.416493
1821.935394
1839.995604
1862.436755
1881.927476
1886.934267
1881.368683
1879.468784
1879.357026
1860.626264
1825.2211
1787.714873
1753.941387
1711.920108
1655.169029
1599.06615
1556.91076
1515.023591
1465.179201
1418.933442
1392.223107
1371.525392
1340.702336
1314.416684
1305.475987
1300.200975
1284.264181
1269.243809
1268.595608
1274.161193
1270.093175
1259.833724
1260.213704
1267.030986
1266.427489
1256.369204
1256.503315
1265.756937
1266.874524
1260.772498
1260.727794
1271.076652
1274.518821
1267.701539
1262.784155
1269.422623
1275.055262
1268.126222
1261.733623
1267.992111
1277.089271
1274.496469
1268.282684
1270.517858
1277.133975
1274.518821
1265.756937
1266.382786
1274.719986
1273.937675
1264.952274
1261.890085
1269.444975
1269.936713
1260.526629
1257.553847
1265.823992
1269.489678
1259.319634
1251.518876
1254.625768
1259.654911
1253.530533
1246.020346
1247.719079
1255.519838
1250.602454
1242.175846
1247.137934
1254.514009
1251.004785
1241.415887
1240.968852
1250.736564
1246.646195
1235.090343
1236.051468
1244.209855
1242.913454
1232.430486
1229.033021
1236.654965
1241.594701
1233.458666
1227.647212
1235.336213
1239.605396
1232.586948
1226.931957
1234.732715
1240.678279
1228.474227
1218.527701
1229.345945
1240.857093
1245.930939
1246.132105
1263.477059
1293.338989
1297.384655
1284.398292
1277.558658
1278.989169
1268.439146
1256.324501
1257.106812
1268.372091
1268.036815
1250.088364
1233.995108
1234.196274
1235.291509
1225.702611
1215.264346
1222.10398
1228.138951
1223.221567
1214.236166
1215.800788
1222.662773
1218.639459
1211.822177
1215.06318
1223.936823
1218.997087
1208.022381
1208.022381
1213.297393
1187.011741
1119.665935
1099.929345
1180.417976
1358.471973
1647.949415
2005.711437
2349.213046
2587.683807
2753.421992
2788.067196
2611.734284
2242.774039
1774.370882
1492.113053
1423.515549
1385.070549
1336.701374
1301.877356
1289.695655
1286.611114
1277.357492
1264.90757
1260.169001
1267.835649
1269.802603
1264.929922
1267.299207
1280.576143
1286.052321
1280.978475
1280.307922
1291.662609
1305.543042
1304.850138
1304.805434
1319.177606
1333.885054
1337.304871
1336.902539
1348.681909
1369.804307
1380.913124
1380.868421
1389.652656
1408.450473
1419.80516
1426.533035
1445.844942
1474.745747
1495.644628
1510.463835
1530.915681
1564.532705
1593.634676
1614.287688
1638.628738
1676.425538
1712.389494
1735.165922
1757.852943
1791.738187
1825.824598
1847.550493
1858.324034
1875.557229
1895.249116
1898.713636
1888.655351
1880.139337
1877.345369
1858.771069
1821.018973
1786.127899
1752.846152
1708.813215
1652.799744
1601.122511
1563.57158
1523.494902
1476.422128
1437.083058
1415.06659
1394.19006
1363.635226
1337.997775
1328.297118
1323.916176
1313.343801
1298.234021
1294.076597
1299.686885
1297.049379
1287.035797
1282.476042
1288.890992
1291.304981
1284.800623
1283.727739
1291.394388
1292.087292
1283.34776
1280.01735
1289.270972
1296.334123
1289.740359
1282.185469
1289.360379
1296.557641
1291.416739
1283.750091
1290.477966
1301.631487
1296.401178
1286.834632
1288.019274
1295.149481
1295.194184
1286.208783
1284.867678
1291.014408
1293.048417
1283.705388
1277.983341
1286.074672
1286.767577
1280.509088
1278.944466
1286.544059
1286.924039
1276.731643
1268.707367
1273.758861
1279.570315
1273.110661
1265.086384
1270.003768
1277.156326
1272.685978
1262.694748
1264.706405
1270.651969
1266.159268
1257.97853
1259.833724
1268.506201
1267.701539
1254.893989
1252.278835
1265.198143
1268.260332
1258.447916
1252.792925
1260.973663
1264.438184
1255.095155
1247.272044
1250.960082
1256.480963
1251.273006
1243.919282
1249.216646
1260.437222
1256.078631
1245.03687
1243.449896
1254.022271
1257.576198
1250.960082
1256.05628
1271.478983
1292.981362
1303.307867
1302.346742
1303.196109
1295.551812
1277.469251
1266.31573
1274.518821
1283.146594
1278.162155
1265.823992
1260.236056
1258.380861
1245.081573
1231.625823
1229.323593
1235.626785
1238.331346
1229.100076
1228.228358
1238.644271
1237.660794
1224.54032
1220.494654
1230.374125
1231.625823
1223.310974
1224.227396
1231.625823
1232.519893
1210.168148
1153.439421
1121.632889
1172.90779
1296.892917
1537.956481
1887.940095
2253.145248
2520.472112
2699.822509
2796.851432
2706.483329
2387.747453
1923.948756
1558.005996
1453.600997
1412.004401
1356.013281
1322.485664
1316.137769
1307.554699
1285.493527
1275.79287
1281.894896
1281.917248
1269.400271
1265.868695
1276.709292
1285.694693
1279.078576
1278.676245
1290.835594
1301.251507
1305.096007
1302.860833
1308.918155
1326.061943
1333.125095
1331.40401
1341.439943
1360.640092
1369.960769
1368.127926
1379.84024
1400.917935
1418.665221
1424.767247
1436.166636
1462.340529
1481.451271
1491.129576
1505.680562
1534.380202
1561.068185
1582.525859
1605.123473
1638.606386
1674.235067
1701.012457
1723.900643
1754.299015
1791.112338
1818.850853
1838.92272
1862.772031
1890.510546
1905.463863
1909.531881
1913.376381
1915.231575
1907.8555
1887.426005
1862.3697
1834.921758
1795.87326
1742.497294
1691.937648
1650.162238
1607.470406
1552.395708
1502.70778
1470.655378
1443.52036
1409.098674
1376.331017
1358.069641
1345.798534
1331.940452
1312.874414
1303.017295
1305.297173
1304.827786
1289.24862
1286.275838
1295.797681
1298.390484
1286.856984
1281.805489
1293.4731
1297.049379
1286.052321
1281.917248
1292.757844
1303.799606
1298.412835
1288.041626
1295.484757
1301.698542
1298.770463
1289.002751
1290.723835
1299.932754
1296.714103
1292.19905
1300.78212
1306.861795
1302.346742
1295.797681
1293.517803
1297.83169
1294.814205
1281.17964
1281.55962
1295.596516
1301.139748
1294.858908
1291.215574
1294.724798
1298.21167
1292.668437
1285.649989
1287.393425
1295.551812
1290.969705
1278.653893
1279.726777
1282.185469
1273.177716
1266.226323
1266.785117
1271.747204
1273.624751
1259.029062
1260.03489
1271.613094
1270.495507
1258.447916
1252.256483
1256.548018
1258.313806
1251.250655
1248.255521
1255.475134
1260.437222
1252.904684
1242.689936
1249.060184
1261.219533
1257.442088
1245.260387
1242.689936
1253.798753
1256.413908
1254.424602
1258.582027
1277.133975
1298.055207
1306.325353
1308.202899
1308.940507
1300.200975
1276.709292
1267.254504
1275.994036
1282.029007
1271.411928
1256.950349
1252.569408
1253.865809
1244.880407
1232.676355
1235.55973
1242.73464
1237.102
1229.100076
1228.38482
1235.42562
1234.01746
1224.361506
1225.076762
1233.011631
1234.799771
1227.378992
1224.987355
1232.162265
1234.464495
1205.720151
1163.497706
1175.813517
1268.461498
1451.857561
1752.086193
2116.620793
2429.701678
2637.639956
2763.592036
2711.177195
2451.137
2037.115638
1624.0554
1436.524264
1415.491273
1381.829546
1326.374868
1307.487644
1309.074618
1303.419626
1288.578068
1284.934734
1289.785062
1290.232097
1283.325408
1283.236001
1293.316638
1298.882222
1293.540155
1294.300114
1309.096969
1317.657687
1316.607155
1314.327277
1325.547853
1336.880188
1338.467161
1339.741211
1353.219313
1369.737252
1376.331017
1380.510793
1396.224069
1419.715753
1431.562177
1433.059744
1447.297805
1476.243314
1498.662114
1510.776759
1527.339402
1560.352929
1592.047702
1609.884394
1631.99027
1668.781241
1703.448797
1729.734448
1749.918073
1782.171641
1819.499054
1843.080144
1858.972235
1880.094633
1908.973087
1920.528939
1914.941003
1913.532843
1921.534767
1907.319058
1873.254999
1842.25313
1813.55349
1773.633274
1719.63146
1665.517886
1624.43538
1580.49185
1528.188768
1481.786547
1454.763288
1430.399886
1397.296953
1367.435022
1355.767412
1349.151295
1330.599347
1312.092103
1307.174719
1308.828748
1301.922059
1290.768539
1294.210707
1301.475024
1299.061036
1289.963876
1288.846289
1295.976495
1297.429359
1292.869603
1291.103815
1300.983286
1306.481815
1299.798644
1294.613039
1302.592612
1310.594536
1305.230117
1300.357437
1304.313696
1311.868586
1303.509033
1290.500318
1294.009542
1301.922059
1298.457539
1290.52267
1293.09312
1302.100873
1301.922059
1289.181565
1283.124242
1290.455614
1291.617905
1284.867678
1279.950294
1282.386635
1285.091196
1274.697635
1264.572294
1270.316693
1275.211725
1267.321559
1260.705443
1265.421661
1269.489678
1261.375995
1252.122373
1255.206913
1264.281722
1264.25937
1251.116544
1248.546094
1257.151515
1259.565504
1252.636463
1250.110716
1257.486791
1258.045585
1249.417812
1246.57914
1255.363376
1261.219533
1252.547056
1241.661756
1240.9465
1243.204027
1240.834742
1240.410059
1252.189428
1269.042643
1277.357492
1287.147556
1301.229155
1308.024086
1296.222364
1279.212687
1273.133012
1279.25739
1281.447861
1274.8988
1271.411928
1272.46246
1264.035852
1248.814314
1238.800733
1242.712288
1242.399364
1232.721058
1228.720096
1230.776457
1234.397439
1227.691916
1221.433428
1227.513102
1233.615128
1231.938747
1225.032058
1226.261404
1235.671489
1236.654965
1217.812445
1177.288732
1132.205264
1153.1712
1258.11264
1476.243314
1814.20169
2193.063759
2504.334152
2714.149977
2865.136011
2831.340174
2549.641138
2105.221403
1669.764718
1465.201553
1403.376627
1352.258188
1322.731533
1308.806397
1291.126167
1272.708329
1266.82982
1271.389576
1271.009597
1261.353643
1259.498448
1269.780251
1272.395405
1265.756937
1272.753033
1287.70635
1294.255411
1291.17087
1292.377864
1306.303001
1318.060019
1315.13194
1315.333106
1329.526464
1344.077449
1350.35829
1352.615816
1368.463203
1384.556459
1393.228935
1400.783825
1419.313421
1444.347375
1459.390099
1465.335663
1484.759329
1516.588213
1541.577463
1555.480248
1577.675531
1614.846482
1646.161276
1666.747232
1695.268058
1734.137742
1765.854867
1784.876202
1804.143405
1832.597176
1860.782726
1872.204467
1877.7477
1886.040197
1893.684494
1882.933305
1859.03929
1839.034479
1816.213347
1775.175545
1725.465265
1682.192288
1645.244854
1596.450996
1539.878731
1496.605753
1467.526134
1437.150113
1397.90045
1365.110441
1349.240702
1335.62849
1311.019219
1292.19905
1289.941524
1286.856984
1276.709292
1267.410966
1269.936713
1273.133012
1269.824954
1261.219533
1261.107774
1270.584914
1272.32835
1264.616998
1267.165097
1275.256428
1274.76469
1267.813297
1268.036815
1273.982379
1277.245733
1269.489678
1266.449841
1268.685015
1273.892972
1267.455669
1258.671434
1262.694748
1268.506201
1259.677262
1250.311881
1256.70448
1267.098041
1261.554809
1252.636463
1253.686995
1263.499411
1263.924094
1254.737527
1252.971739
1260.794849
1262.001844
1251.407117
1241.862922
1249.797791
1254.446954
1248.993128
1242.73464
1250.28953
1254.111678
1243.405192
1236.319689
1246.310919
1249.753088
1244.031041
1236.498503
1234.173922
1239.046602
1233.12339
1222.729829
1225.322631
1233.682183
1232.788114
1227.803675
1223.221567
1229.658869
1232.586948
1223.959175
1222.640422
1233.838646
1241.907625
1247.09323
1261.152477
1288.667475
1302.816129
1287.102853
1268.595608
1263.857038
1261.711271
1252.85998
1250.088364
1252.502352
1249.238998
1233.570425
1218.974736
1218.751218
1222.953346
1218.684163
1207.418884
1208.759988
1217.030134
1216.493692
1205.809558
1205.608392
1216.806616
1217.2313
1209.363485
1204.624916
1211.688067
1214.951422
1208.804692
1197.271192
1178.02634
1137.480275
1121.185854
1181.513212
1348.972481
1641.959148
1999.98939
2344.318014
2599.083197
2791.643475
2838.895063
2644.568997
2259.58255
1800.09774
1492.783605
1395.955848
1352.437002
1315.020182
1293.629562
1273.021254
1259.252579
1259.163172
1261.666568
1253.642291
1245.863884
1251.563579
1258.850248
1254.961044
1248.322576
1256.168038
1269.735547
1273.937675
1272.283646
1274.295303
1286.164079
1297.339952
1295.350646
1300.804472
1316.227176
1329.146484
1328.922967
1332.543949
1352.146429
1369.401976
1373.604104
1379.996703
1400.605011
1423.895529
1433.931462
1445.44261
1471.951779
1495.756387
1510.687353
1529.865149
1560.956426
1597.613287
1622.490778
1644.663709
1677.252552
1715.205814
1743.503123
1763.84321
1791.939353
1826.562205
1851.886732
1863.554342
1873.232648
1885.414348
1891.114043
1881.480441
1867.264732
1852.110249
1826.048115
1784.093891
1735.724716
1693.234049
1649.134058
1593.142938
1534.335498
1491.889535
1458.25016
1419.782808
1378.990874
1352.951092
1338.668327
1320.831635
1296.557641
1283.236001
1281.894896
1276.351664
1261.800678
1254.089326
1257.710309
1260.638387
1254.893989
1252.412945
1258.202047
1265.28755
1260.012538
1253.910512
1257.844419
1263.968797
1260.839553
1252.189428
1256.145687
1267.835649
1266.002806
1254.625768
1255.631597
1262.85121
1262.806506
1254.379899
1253.016442
1262.895913
1264.974626
1254.290492
1247.003823
1254.938692
1259.409041
1252.815277
1244.723945
1251.205951
1255.609245
1248.814314
1240.119486
1243.516951
1249.171942
1244.701593
1236.319689
1237.705497
1246.623844
1242.511123
1229.971794
1227.35664
1236.185579
1236.297338
1225.389686
1223.042753
1231.178788
1233.50337
1225.993183
1217.387762
1220.718172
1226.864901
1217.767741
1209.944631
1216.001954
1221.254614
1216.739561
1213.699724
1224.473265
1237.258463
1243.226378
1252.994091
1270.093175
1280.285571
1267.142745
1248.590797
1241.907625
1241.795867
1239.203064
1235.604433
1231.84934
1231.71523
1222.953346
1205.228413
1193.78432
1194.43252
1195.19248
1186.765872
1178.54043
1182.563744
1187.190555
1181.177936
1174.159488
1180.574439
1188.777529
1188.486956
1179.814479
1180.239162
1188.911639
1184.217773
1169.107994
1134.395735
1084.640751
1082.539687
1164.525886
1356.326205
1674.413881
2052.851266
2396.688151
2622.932508
2795.018589
2826.735714
2607.152177
2192.415558
1724.928823
1464.39689
1380.488441
1328.006545
1293.897783
1280.419681
1264.818163
1246.288567
1238.577216
1238.644271
1229.010669
1217.633631
1218.639459
1229.949442
1232.922224
1225.926128
1229.234186
1241.371184
1246.71325
1244.299262
1251.742393
1267.478021
1278.452728
1280.240867
1284.018312
1297.384655
1311.063923
1312.539138
1313.880243
1329.392353
1350.537103
1360.595388
1365.333958
1385.629342
1410.126854
1425.482503
1434.579663
1454.517419
1487.173317
1512.654306
1529.507521
1552.753336
1589.678417
1624.144807
1646.34009
1673.966846
1713.350619
1749.515742
1771.085175
1789.458309
1816.705086
1841.828447
1852.423173
1855.999453
1866.661235
1875.646636
1865.275427
1841.157894
1817.77797
1792.02876
1749.627501
1693.412863
1641.445058
1599.781406
1551.747507
1494.035303
1448.460096
1416.452398
1383.103595
1345.798534
1318.887033
1307.487644
1294.50128
1272.015425
1258.11264
1257.307977
1256.078631
1247.294396
1236.744372
1236.051468
1239.78421
1236.96789
1230.776457
1234.240977
1240.655928
1238.621919
1226.641384
1222.975698
1235.515027
1235.470323
1225.792018
1222.282794
1231.178788
1236.856131
1230.016497
1226.127294
1236.096172
1244.455724
1243.025213
1237.906663
1240.655928
1246.355623
1243.338137
1233.078686
1234.285681
1242.73464
1241.348832
1231.648175
1229.323593
1233.905701
1234.173922
1221.411076
1219.511177
1227.423695
1230.061201
1226.417867
1224.473265
1232.341079
1234.53155
1226.59668
1220.338192
1224.40621
1223.221567
1216.784265
1214.996125
1223.154512
1227.535454
1222.126332
1215.018477
1212.760951
1218.371239
1219.220605
1213.498558
1218.371239
1226.619032
1234.062163
1248.322576
1265.376957
1275.323483
1266.248675
1244.411021
1232.922224
1232.631651
1233.391611
1227.334288
1225.479093
1230.955271
1224.965003
1206.658924
1191.660904
1191.213869
1199.03698
1191.057407
1177.400491
1185.558878
1187.682293
1177.109918
1163.005967
1166.001101
1177.244029
1176.61818
1172.214886
1176.707587
1186.36354
1192.622029
1186.408244
1172.371348
1137.949662
1104.757321
1128.271357
1248.277873
1498.393893
1852.981967
2219.438817
2504.155338
2709.992553
2820.119598
2704.203451
2373.442337
1921.490064
1548.998242
1401.990819
1349.240702
1304.045475
1281.157289
1263.141783
1242.332309
1234.643308
1240.968852
1236.319689
1225.412038
1218.281832
1224.897948
1238.018422
1237.571387
1234.755067
1240.790038
1250.490695
1249.060184
1246.690899
1254.804582
1271.233114
1276.753995
1278.318617
1290.567373
1305.364228
1310.058094
1311.354495
1327.380696
1342.42342
1347.609025
1351.721746
1369.849011
1398.191023
1415.06659
1418.821683
1435.384325
1466.207381
1493.163585
1508.340419
1527.115885
1559.056528
1595.73574
1621.417895
1647.524732
1684.40511
1728.505102
1757.472963
1775.2426
1804.165757
1835.189979
1851.4844
1860.335691
1875.512526
1886.219011
1882.016883
1860.983892
1839.257996
1820.147254
1787.066673
1733.914224
1680.270038
1636.281805
1585.789214
1526.15476
1476.57859
1441.955738
1409.925688
1372.285351
1340.590577
1326.15135
1313.701429
1291.617905
1267.07569
1255.743355
1257.956178
1255.072803
1247.920245
1247.383803
1252.72587
1249.551922
1242.756992
1238.152532
1239.515989
1239.068954
1230.374125
1229.636518
1239.78421
1243.919282
1236.766724
1233.704535
1242.131143
1247.875541
1240.9465
1234.643308
1241.70646
1247.070878
1238.353698
1232.631651
1239.627747
1248.210817
1244.969814
1235.872654
1240.879445
1253.530533
1249.775439
1235.783247
1232.497541
1239.359527
1237.839608
1227.378992
1221.947518
1229.345945
1237.593739
1231.447009
1224.182692
1228.921262
1234.643308
1229.211835
1216.963079
1219.064143
1223.154512
1218.639459
1211.777474
1212.045695
1220.919337
1220.807579
1209.363485
1205.518985
1212.515081
1215.018477
1211.017515
1214.951422
1224.585023
1237.839608
1248.970777
1255.743355
1262.001844
1256.860942
1240.320652
1229.994146
1231.379954
1235.604433
1231.804637
1222.551015
1215.666677
1210.883404
1200.400436
1185.558878
1185.20125
1190.364503
1187.794052
1178.249857
1180.261514
1186.877631
1182.630799
1174.517116
1174.338302
1183.726035
1188.755177
1181.759081
1173.712453
1182.496689
1187.659942
1171.097299
1124.426857
1082.69615
1111.351086
1221.612241
1448.840076
1798.555469
2185.307704
2491.906582
2697.185003
2825.52872
2743.609577
2428.494683
1968.652245
1563.973911
1398.459244
1358.337862
1307.733513
1271.233114
1260.660739
1254.089326
1239.78421
1232.09521
1234.620957
1234.039811
1222.774532
1220.673468
1232.184617
1241.505294
1240.790038
1237.325518
1245.707422
1256.145687
1256.816239
1257.732661
1267.545076
1280.844364
1285.739396
1283.638332
1290.902649
1307.509995
1317.322411
1318.372943
1328.721801
1349.687737
1363.679929
1368.753775
1379.57202
1404.382456
1427.650622
1438.021831
1450.985843
1480.892477
1510.53089
1527.875844
1547.701841
1580.581257
1620.099142
1648.105877
1671.999892
1705.661619
1744.084268
1770.36992
1785.926734
1807.652629
1833.401839
1843.817752
1843.1472
1846.052926
1852.266711
1838.229816
1808.658458
1775.868449
1745.671242
1705.862785
1647.994119
1590.371321
1543.544417
1502.171338
1453.243369
1405.388284
1378.365025
1357.309682
1326.53133
1296.267068
1281.693731
1275.636408
1264.192315
1245.059221
1239.27012
1243.807524
1242.533474
1228.943614
1226.663736
1233.168093
1230.441181
1221.58989
1221.567538
1233.436314
1237.593739
1230.17296
1227.289585
1235.671489
1241.125314
1236.565559
1229.681221
1233.77159
1244.165152
1241.19237
1234.732715
1236.297338
1243.695765
1241.393535
1231.581119
1232.184617
1241.617053
1242.444067
1234.352736
1230.217663
1237.86196
1239.27012
1228.161303
1223.959175
1232.408134
1238.443105
1230.709401
1225.590852
1230.977622
1234.196274
1224.450913
1215.689029
1216.85132
1221.925166
1218.438294
1208.335305
1207.865919
1215.57727
1213.00682
1202.926183
1201.540375
1207.687105
1205.83191
1194.253706
1189.872764
1195.795977
1200.825119
1197.159433
1203.149701
1215.331401
1233.346907
1245.126277
1250.28953
1256.100983
1252.949387
1237.303166
1222.729829
1227.513102
1233.235149
1232.497541
1221.344021
1209.274079
1203.976715
1194.968962
1181.177936
1177.199325
1183.211944
1183.211944
1174.338302
1173.623046
1180.440328
1181.803785
1173.153659
1168.258627
1176.886401
1181.423805
1174.137136
1163.855334
1169.175049
1176.126441
1165.419956
1123.041048
1067.564019
1068.569847
1149.9749
1331.292252
1643.791991
2033.472304
2394.140052
2628.475741
2805.121577
2848.752183
2644.233721
2227.776018
1740.552692
1463.771041
1379.616723
1325.525501
1284.666513
1269.333216
1257.039756
1236.990242
1221.299317
1219.712343
1221.880462
1215.06318
1212.738599
1222.260442
1232.944576
1233.2575
1228.585986
1236.409096
1251.094192
1251.407117
1250.468344
1256.145687
1274.518821
1283.906553
1281.269047
1287.259315
1305.364228
1316.338934
1316.316583
1323.71501
1344.85976
1362.092955
1368.664368
1378.230915
1400.537956
1427.270642
1442.670994
1458.987768
1485.318123
1515.560033
1539.61051
1556.731946
1586.057435
1623.988345
1651.369232
1670.05529
1703.001762
1745.961815
1776.78487
1798.957801
1821.086028
1843.996566
1859.374566
1860.380395
1859.665139
1863.487287
1858.704014
1835.346441
1803.115225
1769.878181
1733.578948
1680.538259
1619.875624
1567.952522
1523.785475
1474.633989
1425.549558
1388.557421
1362.651749
1337.17076
1305.923022
1285.806452
1279.391501
1270.294341
1252.278835
1242.041736
1246.310919
1245.461553
1233.525721
1225.814369
1232.117561
1238.800733
1233.436314
1226.194349
1229.994146
1236.096172
1230.977622
1223.735657
1227.758971
1233.860997
1228.474227
1219.824102
1222.886291
1230.82116
1227.244881
1219.712343
1220.494654
1232.117561
1233.011631
1221.478131
1217.208948
1224.070933
1228.943614
1217.052486
1209.788169
1216.98543
1225.300279
1218.415942
1211.039866
1217.343058
1222.841587
1218.170073
1212.49273
1215.912547
1222.23809
1217.186596
1206.86009
1205.563689
1212.716247
1210.928108
1201.674485
1203.820253
1212.380971
1210.950459
1200.243974
1197.941744
1205.630744
1209.095265
1200.378084
1194.521927
1198.031151
1198.522889
1189.470433
1181.110881
1187.972866
1200.847471
1201.518023
1197.517061
1215.174939
1241.035907
1248.322576
1238.577216
1229.144779
1226.015535
1214.079704
1202.210927
1203.350866
1214.906718
1214.012648
1192.152642
1175.366482
1175.388834
1175.277075
1165.665825
1161.821325
1167.901
1168.884476
1160.72609
1154.71347
1161.106069
1165.285845
1160.413165
1153.774697
1156.345148
1162.849505
1160.8602
1151.807744
1154.132325
1159.653206
1126.39381
1056.835181
1044.653481
1135.401563
1328.230063
1633.91252
2016.328516
2381.55602
2622.552529
2786.524926
2809.413112
2604.559374
2204.887832
1714.088227
1428.276471
1350.402993
1313.142635
1267.165097
1235.269157
1225.233224
1222.282794
1211.97864
1199.394607
1200.556898
1209.184672
1206.681276
1197.740578
1201.562727
1212.783302
1218.818273
1218.371239
1222.975698
1237.794904
1250.200123
1248.479038
1251.205951
1264.751108
1278.430376
1277.446899
1277.424547
1290.343856
1308.560527
1315.198995
1317.255356
1332.409839
1354.605121
1367.747947
1376.018092
1396.626401
1423.068514
1443.207436
1456.618483
1478.88082
1516.610565
1545.824295
1564.555057
1592.91942
1632.705525
1668.244799
1692.071759
1718.178596
1756.511838
1792.252277
1810.60306
1822.047153
1842.990737
1860.201581
1857.742889
1843.549531
1836.128752
1826.741019
1796.00737
1751.058012
1710.735465
1669.5412
1616.88049
1553.155667
1499.757349
1462.452288
1423.672011
1377.090976
1343.272787
1323.245623
1301.832652
1274.138841
1254.603416
1248.344928
1243.539303
1229.815332
1218.885329
1218.147721
1219.913509
1217.74539
1209.318782
1209.989334
1217.432465
1214.772608
1209.765817
1210.928108
1218.617108
1218.885329
1212.49273
1212.358619
1220.248785
1222.819236
1213.811483
1208.64823
1213.52091
1218.862977
1209.81052
1206.189538
1215.06318
1218.930032
1211.129273
1203.708494
1206.390703
1215.174939
1213.833834
1205.854262
1207.262422
1214.392628
1210.928108
1202.255631
1203.842605
1212.895061
1209.229375
1195.84068
1192.085587
1201.741541
1202.702666
1195.527756
1189.403378
1196.019494
1198.880517
1190.878593
1187.481128
1193.247878
1193.650209
1185.447119
1177.288732
1181.87084
1189.716302
1190.990352
1186.22943
1192.957305
1216.98543
1231.178788
1225.233224
1217.36541
1214.794959
1205.854262
1191.236221
1188.01757
1197.24884
1200.243974
1182.608447
1166.582247
1165.844639
1162.938912
1149.572569
1141.6377
1147.627967
1156.076927
1149.147886
1141.458886
1142.755287
1150.019604
1147.359746
1136.787371
1138.933139
1150.556046
1148.231464
1137.502627
1138.664918
1143.492895
1109.361781
1038.171475
1033.187036
1134.932176
1334.242682
1642.137962
2019.793036
2375.096366
2610.951973
2764.15083
2771.772775
2556.033737
2150.193113
1664.087375
1395.642924
1329.079429
1292.95901
1255.81041
1228.630689
1216.761913
1213.789131
1200.445139
1184.933029
1181.401453
1188.576363
1188.375197
1183.346055
1183.256648
1194.566631
1204.356695
1202.657962
1206.569517
1218.214776
1225.680259
1225.389686
1229.055372
1243.740468
1256.324501
1256.972701
1259.431393
1272.395405
1289.136861
1294.568335
1297.272896
1313.187338
1338.668327
1352.28054
1361.623569
1381.538973
1411.400904
1437.060706
1452.416355
1474.186954
1507.20048
1536.637728
1559.615321
1587.107967
1625.195339
1655.392546
1675.933799
1702.241802
1738.965719
1772.180411
1787.714873
1798.108434
1814.000525
1826.852778
1825.802246
1812.905289
1801.751769
1786.619638
1752.644986
1703.269983
1657.49361
1614.555909
1560.464687
1498.036265
1445.241445
1406.192947
1369.0667
1326.128999
1291.975533
1273.088309
1257.710309
1236.342041
1218.930032
1215.197291
1212.559785
1201.428616
1188.688122
1187.302314
1190.386854
1184.620104
1178.518078
1182.161412
1189.001046
1186.520003
1175.969979
1174.807689
1179.255686
1178.696892
1174.047729
1173.310122
1180.84266
1178.003988
1165.710529
1163.900037
1173.80186
1179.702721
1173.712453
1168.772718
1176.461718
1184.731863
1178.451023
1168.526848
1171.052596
1178.518078
1175.031206
1166.023453
1167.386909
1175.947628
1177.556953
1168.817421
1166.671654
1176.171145
1175.902924
1164.682348
1163.765927
1173.555991
1177.579305
1165.822287
1159.206171
1168.303331
1175.008854
1169.800898
1166.24697
1172.438404
1183.994256
1193.739616
1202.523852
1212.068047
1212.49273
1197.025323
1176.417014
1169.264456
1177.065215
1176.975808
1169.309159
1163.698872
1161.821325
1150.936025
1132.987575
1125.857368
1132.317022
1135.736839
1124.33745
1117.16254
1125.231519
1128.628985
1118.727162
1110.479368
1115.732028
1123.95747
1119.621232
1110.457016
1114.390923
1118.213072
1112.535729
1083.746682
1028.560225
1003.101588
1063.183077
1217.36541
1504.562975
1883.51445
2254.151077
2502.590716
2672.754547
2728.27628
2564.214476
2183.698378
1702.666486
1402.884889
1330.107609
1284.353588
1234.553901
1216.292526
1210.436369
1193.471395
1175.522944
1172.326645
1175.791165
1170.829078
1163.050671
1167.766889
1179.121575
1181.49086
1177.467546
1182.295523
1193.605506
1197.673523
1195.684218
1202.143872
1218.550052
1228.206006
1226.59668
1228.988317
1242.466419
1255.251617
1259.453745
1264.818163
1281.090233
1300.357437
1311.309792
1321.390429
1340.948205
1366.876229
1382.343636
1394.547688
1418.419351
1450.18118
1472.890553
1490.526079
1520.14214
1557.715423
1588.180851
1613.55008
1642.205017
1679.241857
1710.511948
1725.979355
1741.580873
1766.436013
1785.725568
1783.892725
1776.941332
1779.936466
1775.086138
1746.632367
1706.6898
1670.167049
1631.811456
1580.268333
1522.131446
1475.058672
1435.026698
1387.640999
1341.641109
1307.554699
1282.341931
1258.269102
1227.378992
1206.256593
1202.568555
1197.338247
1185.178898
1176.99816
1178.071043
1182.049654
1171.723148
1161.039014
1166.403433
1174.293598
1164.905866
1153.148848
1155.585188
1167.565723
1166.537543
1159.273226
1160.547276
1166.425784
1167.297502
1162.938912
1167.252799
1172.438404
1169.599732
1169.130345
1168.459793
1170.113822
1171.276113
1165.107031
1162.603636
1170.963189
1176.439366
1165.97875
1157.038052
1163.67652
1172.371348
1166.895171
1159.094412
1164.905866
1171.030244
1167.073985
1160.279055
1164.525886
1171.432575
1169.197401
1160.435517
1161.664863
1172.125479
1178.093395
1184.508346
1196.801805
1211.062218
1209.028209
1185.134195
1168.973883
1168.593904
1169.376215
1162.78245
1155.004043
1158.446212
1156.725127
1137.994365
1123.108104
1123.711601
1127.064362
1121.632889
1108.735932
1107.17131
1117.408409
1119.08479
1112.111045
1106.523109
1111.798121
1113.698019
1103.282106
1101.248098
1110.166444
1110.747589
1100.175214
1079.633961
1033.075277
988.7517677
1023.642841
1151.76304
1409.903337
1779.154155
2147.622662
2413.742532
2601.787758
2674.766204
2525.300089
2166.532238
1706.980372
1391.351389
1301.229155
1263.611169
1216.046657
1194.074892
1181.624971
1164.347072
1154.981691
1158.625026
1159.921427
1155.182857
1150.265473
1153.215903
1162.603636
1161.75427
1158.960302
1164.7047
1170.694968
1167.185744
1168.482145
1177.422843
1191.660904
1199.573421
1199.662828
1213.230337
1234.464495
1243.360489
1242.801695
1252.368242
1267.142745
1281.201992
1288.555716
1302.302039
1327.4254
1345.329147
1353.643996
1370.027825
1404.471863
1439.362936
1456.126744
1470.275399
1503.177166
1540.191655
1565.717347
1588.247906
1625.620022
1667.10486
1693.010532
1706.332172
1727.253405
1751.594454
1764.513763
1766.167792
1769.654664
1766.391309
1760.37869
1738.943367
1702.778244
1672.893962
1634.918348
1577.608475
1520.432713
1476.399777
1436.926596
1390.792595
1342.959862
1306.79474
1285.873507
1254.424602
1226.194349
1216.404285
1213.945593
1195.572459
1177.176973
1173.623046
1176.841697
1170.158526
1154.288787
1150.35488
1164.168258
1167.409261
1158.245046
1156.166334
1170.136174
1170.806726
1156.188685
1152.79122
1163.095374
1163.788279
1160.927255
1159.183819
1168.906828
1175.902924
1166.045805
1159.206171
1165.934046
1168.839773
1167.14104
1171.320816
1172.751328
1177.758119
1179.009817
1170.046767
1167.319854
1172.639569
1170.002064
1162.089546
1155.786354
1163.274188
1170.650264
1161.262531
1152.545351
1161.798973
1168.571552
1154.914636
1153.260607
1167.476316
1175.657055
1180.753253
1192.867898
1203.730846
1212.62684
1200.914526
1179.099224
1167.588075
1167.476316
1167.722186
1165.554066
1157.418031
1157.328624
1154.020566
1134.440438
1121.364668
1120.783522
1125.790313
1118.861272
1112.692191
1115.866138
1126.550272
1122.437551
1113.362743
1116.804912
1117.095484
1111.842824
1107.283069
1110.389961
1121.163502
1120.604708
1108.221842
1078.046987
1025.051001
1012.265803
1082.31617
1270.54021
1589.901935
1967.042919
2284.370635
2499.506175
2643.9655
2592.891764
2310.56688
1885.034369
1482.233582
1305.341876
1274.317655
1239.27012
1202.948535
1190.878593
1177.065215
1166.068156
1167.431613
1172.639569
1169.242104
1160.569627
1159.31793
1170.113822
1172.147831
1165.107031
1168.526848
1177.847526
1183.591924
1187.570535
1189.246915
1202.143872
1213.073875
1217.074837
1218.103018
1230.999974
1245.774477
1251.742393
1256.413908
1270.115527
1287.84046
1293.584859
1297.876394
1315.288402
1338.176589
1353.465182
1367.904409
1385.98697
1416.005363
1441.888683
1455.590302
1479.841945
1517.258765
1550.674623
1571.439394
1593.277048
1625.284746
1656.46543
1677.565477
1695.022189
1716.233995
1737.356393
1745.64889
1743.704288
1746.118277
1748.062879
1728.549806
1695.759797
1664.221485
1636.013584
1590.796005
1534.603719
1485.608695
1447.409564
1408.472825
1359.567208
1320.429304
1294.568335
1269.176754
1239.292471
1219.466474
1210.279907
1201.339209
1186.475299
1176.461718
1175.34413
1176.014683
1168.593904
1162.290712
1168.504497
1175.902924
1175.835869
1169.219752
1174.628875
1184.664808
1181.49086
1171.924314
1174.159488
1186.60941
1187.078796
1176.417014
1170.98554
1177.534601
1180.037997
1172.103127
1172.304293
1184.038959
1186.050616
1178.585133
1171.030244
1175.791165
1180.216811
1173.645398
1167.00693
1169.532677
1175.187668
1170.002064
1158.93795
1160.524924
1167.677482
1164.883514
1153.1712
1154.154677
1160.502572
1156.389851
1142.196493
1137.837903
1151.62893
1158.021528
1154.892284
1148.231464
1165.263494
1182.720206
1186.698817
1184.776567
1177.467546
1171.276113
1160.882552
1149.863142
1154.19938
1164.57059
1158.602674
1143.336432
1136.072115
1135.446267
1126.438514
1109.674705
1107.931269
1115.508511
1114.770903
1104.377342
1099.974048
1107.774807
1110.926403
1102.119816
1098.364723
1104.265583
1110.814644
1101.762188
1095.481347
1102.209223
1106.813682
1070.536801
1004.688562
1001.358152
1091.905068
1280.53144
1582.972894
1958.415146
2314.970173
2540.923958
2685.830317
2675.10148
2436.183683
2020.240071
1561.001129
1315.556623
1267.232152
1237.124352
1193.516099
1173.220715
1169.130345
1165.97875
1154.892284
1145.057517
1147.963243
1150.399584
1147.426802
1144.342261
1149.818438
1163.095374
1166.470488
1163.609465
1170.829078
1183.971904
1185.871802
1181.736729
1187.235258
1202.568555
1213.498558
1214.280869
1221.455779
1240.141838
1254.581065
1257.039756
1264.63935
1285.091196
1302.302039
1311.756827
1323.424437
1345.61972
1371.927723
1390.502023
1402.326095
1428.455285
1463.301654
1488.313256
1507.401646
1537.151818
1574.7251
1603.42474
1622.423723
1647.792953
1683.108709
1708.23207
1717.061009
1728.326288
1747.794658
1756.288321
1748.822838
1735.14357
1726.784018
1709.908451
1676.649055
1634.650127
1596.294534
1552.708632
1498.282134
1441.441648
1398.369837
1361.355348
1320.921042
1276.932809
1247.652024
1230.217663
1207.463587
1185.737692
1176.148793
1175.925276
1171.030244
1158.066232
1152.321834
1158.625026
1159.608502
1149.70668
1142.867046
1149.483162
1156.434555
1151.986557
1146.443325
1152.947682
1158.736784
1153.014738
1144.543427
1148.589092
1156.255741
1152.411241
1143.135267
1146.242159
1156.255741
1156.50161
1146.689194
1144.96811
1153.931159
1152.545351
1144.230502
1142.084735
1150.645453
1153.484124
1147.91854
1142.621177
1149.036127
1151.941854
1145.079868
1138.597863
1139.938967
1143.850523
1137.368517
1127.28788
1130.730049
1137.592034
1132.317022
1119.688287
1120.962336
1131.758229
1131.042973
1119.531825
1117.788388
1124.762133
1124.404505
1117.16254
1120.604708
1135.960357
1146.1304
1153.059441
1162.849505
1178.406319
1178.629837
1158.893247
1138.866083
1138.083772
1141.525941
1135.915653
1133.099333
1129.232482
1122.191682
1108.087731
1093.536746
1088.686417
1094.587278
1094.453167
1086.048911
1082.673798
1090.318095
1092.463862
1085.423062
1081.28799
1086.652408
1090.452205
1082.18206
1079.164574
1087.613533
1090.89924
1084.394882
1071.520277
1035.466914
987.2542008
996.1948986
1092.486214
1313.72378
1654.409069
2036.221568
2360.634787
2576.485583
2741.776734
2749.912769
2492.599486
2043.41883
1571.685263
1346.804362
1267.276855
1222.75218
1200.892174
1187.950514
1164.950569
1145.906883
1142.174142
1142.196493
1135.602729
1128.986612
1131.579415
1138.910787
1138.150828
1133.903996
1141.883569
1156.613369
1160.234351
1156.412203
1162.491877
1175.165316
1179.479203
1178.406319
1187.190555
1203.976715
1216.828968
1218.751218
1225.456742
1247.227341
1264.527591
1267.276855
1273.624751
1295.037722
1319.088199
1331.202845
1347.854894
1378.968522
1410.819758
1434.266738
1450.807029
1476.82446
1511.112036
1538.001184
1562.655158
1595.400464
1631.699697
1655.750174
1674.302122
1699.492538
1727.722791
1743.72664
1744.196027
1742.430239
1747.034698
1742.385536
1719.810274
1695.871555
1670.524677
1637.533502
1584.023426
1528.546396
1483.954666
1443.296843
1391.463148
1339.227121
1302.19028
1277.558658
1247.115582
1217.700686
1200.266326
1192.353808
1180.216811
1162.827154
1155.764002
1158.133287
1155.406374
1143.761116
1135.49097
1141.101258
1147.829133
1140.967147
1133.814589
1140.475409
1146.465677
1142.218845
1137.435572
1144.163447
1150.198418
1142.844694
1131.378249
1133.479313
1141.525941
1142.621177
1137.457924
1138.083772
1146.108049
1145.303386
1138.374345
1138.128476
1144.498723
1143.582302
1135.334508
1131.825284
1137.41322
1135.893301
1122.54931
1119.017734
1127.511397
1132.920519
1124.896243
1116.626098
1121.588185
1127.958432
1123.532787
1113.31804
1114.748551
1121.14115
1117.542519
1107.618345
1106.120778
1112.133397
1112.848653
1102.075112
1098.387074
1105.405522
1111.239327
1104.645563
1100.398731
1106.880737
1111.865176
1106.098426
1100.041103
1110.144092
1120.694115
1114.972069
1113.385095
1135.178046
1160.770793
1163.005967
1148.097354
1141.302424
1141.995328
1137.189703
1124.002173
1124.784484
1135.334508
1128.651336
1103.595031
1088.59701
1088.664065
1085.378359
1076.884696
1074.001321
1080.192754
1081.511507
1070.581504
1068.033405
1073.643693
1075.431833
1070.693263
1064.166554
1068.771013
1077.331731
1073.062548
1061.573751
1063.764222
1072.257885
1038.998489
968.5010872
964.1648488
1054.756469
1238.644271
1536.391859
1901.440549
2248.29492
2479.747233
2641.395049
2673.82743
2480.417786
2080.813298
1592.137109
1332.923929
1268.841477
1228.161303
1186.989389
1157.418031
1146.443325
1144.610482
1130.595938
1115.88849
1116.290822
1126.058534
1124.806836
1115.866138
1119.487121
1131.735877
1135.602729
1130.215958
1133.702831
1148.611444
1156.322796
1156.076927
1161.016662
1175.72411
1187.279962
1189.649247
1193.717264
1211.911584
1225.188521
1230.396477
1236.006765
1251.898855
1273.244771
1285.247658
1294.210707
1316.5401
1343.429249
1365.848048
1381.583677
1400.828529
1433.797352
1459.881837
1478.120861
1503.534794
1540.862208
1575.216839
1599.803758
1626.782313
1659.527619
1684.896849
1697.21266
1709.349657
1728.885082
1741.044431
1736.708192
1725.934652
1719.564404
1708.567346
1676.179668
1632.839636
1590.796005
1551.479286
1503.35598
1447.633081
1398.638058
1361.13183
1322.418609
1279.883239
1248.635501
1233.63748
1215.644326
1188.01757
1168.951532
1162.111898
1157.798011
1145.661014
1134.283976
1134.909825
1138.374345
1130.037144
1122.616365
1130.7524
1140.028374
1136.787371
1129.076019
1134.060458
1145.236331
1142.218845
1133.255796
1134.105162
1140.251892
1142.732935
1139.156656
1140.453057
1150.310177
1151.226598
1142.867046
1139.916615
1144.230502
1146.823305
1138.128476
1131.26649
1135.222749
1137.569682
1131.042973
1124.762133
1129.768923
1137.614386
1133.032278
1123.532787
1125.119761
1131.713525
1128.874854
1120.515301
1117.967202
1123.353973
1126.885548
1118.414237
1114.145054
1117.095484
1116.447284
1103.97501
1097.69417
1104.86908
1110.077037
1107.81951
1101.628077
1104.891432
1109.428836
1102.499795
1094.073188
1095.928382
1103.997362
1100.063455
1090.496908
1092.709731
1103.32681
1103.32681
1093.492042
1087.747644
1096.1519
1097.04597
1090.094577
1093.760263
1110.63583
1119.911804
1124.09158
1136.854426
1152.478296
1155.853409
1141.034203
1125.767961
1121.14115
1124.85154
1124.873891
1118.905976
1114.882662
1112.155749
1096.889507
1079.522202
1074.694225
1081.578562
1078.114042
1067.362853
1066.871115
1075.275371
1073.755452
1065.127679
1065.775879
1076.102385
1078.248153
1066.401728
1066.178211
1076.9294
1081.310342
1072.570809
1062.512524
1040.406649
997.6030585
983.7002735
1051.224893
1225.479093
1524.836007
1878.64177
2197.735274
2427.399448
2604.715837
2625.100628
2408.869852
2019.748332
1572.869906
1326.263109
1269.333216
1228.38482
1191.392683
1170.203229
1147.873837
1136.295633
1140.497761
1139.536636
1124.225691
1110.367609
1115.061476
1127.913729
1128.606633
1127.109066
1133.166389
1143.738764
1148.566741
1146.689194
1152.210075
1164.168258
1172.103127
1175.120613
1181.513212
1201.562727
1209.877576
1206.413055
1212.179805
1229.994146
1245.081573
1247.719079
1259.610207
1281.04553
1299.016333
1310.147501
1325.100818
1356.616778
1387.685703
1405.030656
1421.995631
1445.755535
1475.662169
1503.244222
1524.88071
1558.251865
1593.232345
1617.171063
1634.828941
1658.030052
1691.58002
1710.064913
1715.138759
1725.107637
1743.100791
1749.135762
1734.763591
1716.837492
1701.57125
1680.024168
1636.795895
1582.324693
1539.766972
1498.639762
1446.537846
1390.680837
1347.340804
1318.127074
1284.085367
1244.343966
1221.545186
1211.106922
1191.795014
1169.398566
1158.915598
1156.322796
1152.411241
1141.794162
1136.608557
1146.689194
1156.456906
1149.147886
1143.269377
1147.225636
1149.863142
1139.179008
1128.517226
1135.580377
1145.325738
1140.22954
1135.155694
1142.218845
1152.098316
1148.81261
1147.873837
1149.013775
1152.366537
1149.9749
1141.660052
1143.761116
1153.260607
1152.321834
1142.442363
1139.179008
1141.280072
1147.963243
1143.269377
1138.195531
1137.636738
1141.77181
1136.206226
1126.684383
1131.51236
1139.760153
1131.869987
1122.839883
1125.49974
1129.031316
1124.315098
1120.358839
1127.131418
1133.211092
1129.478351
1118.503644
1118.123665
1123.421028
1119.174197
1111.239327
1110.926403
1126.505569
1130.037144
1117.564871
1114.636792
1124.806836
1132.585243
1129.523054
1127.28788
1150.019604
1170.203229
1167.431613
1158.826191
1156.523962
1154.06527
1146.756249
1133.702831
1131.422953
1141.816514
1128.249005
1102.030409
1093.939077
1098.96822
1095.928382
1085.020731
1084.283124
1090.407502
1095.213127
1088.686417
1081.198583
1085.154842
1089.736949
1082.137356
1076.236496
1079.276333
1085.490118
1080.662141
1069.285103
1076.191792
1080.639789
1053.303606
1008.197785
1031.287137
1141.615348
1352.101726
1663.483878
2011.321725
2301.134443
2499.975562
2597.920906
2487.413882
2187.542878
1760.691614
1387.90922
1253.038794
1249.842495
1214.571442
1165.062328
1143.336432
1141.25772
1144.699889
1135.669784
1123.264566
1124.695078
1134.038107
1133.389906
1126.77379
1133.747534
1146.935063
1151.964206
1146.912711
1149.416107
1163.721223
1172.013721
1170.046767
1171.253761
1187.704645
1200.869823
1201.652134
1202.88148
1220.069971
1236.207931
1237.571387
1238.219588
1257.08446
1277.558658
1285.538231
1293.406045
1313.992001
1344.613891
1360.818906
1375.615761
1400.515604
1432.344488
1461.491163
1478.612599
1501.746655
1540.146952
1577.630827
1598.015618
1617.685153
1649.335223
1676.894924
1688.048445
1699.760759
1716.502215
1726.202873
1723.587718
1710.914279
1704.544032
1692.652904
1658.365328
1615.85231
1575.552115
1536.816542
1487.933277
1433.26091
1387.551592
1351.297063
1311.466254
1268.059166
1237.079649
1217.655983
1198.254669
1171.36552
1153.931159
1153.260607
1150.243121
1134.105162
1124.33745
1127.198473
1133.881644
1131.311194
1123.57749
1126.952604
1134.194569
1131.579415
1125.320926
1126.639679
1134.708659
1128.919557
1119.800045
1123.108104
1134.909825
1139.156656
1132.227615
1130.528883
1135.960357
1135.289804
1126.863197
1119.800045
1125.611499
1130.662993
1125.052705
1121.632889
1125.186816
1127.980784
1120.962336
1112.245156
1116.044952
1122.862234
1116.715505
1108.780635
1108.646525
1116.022601
1111.820473
1100.465787
1098.945868
1105.047894
1105.003191
1096.062493
1093.670856
1096.509528
1096.375417
1087.56883
1082.673798
1089.334618
1092.977952
1083.769033
1077.622304
1084.551344
1088.775824
1079.052815
1069.933304
1072.481402
1079.343388
1081.243286
1074.448356
1075.387129
1095.280182
1113.161577
1118.235423
1118.347182
1116.491987
1109.518243
1094.497871
1089.066397
1097.358894
1105.673743
1094.855499
1078.739891
1074.917743
1072.682568
1058.243341
1047.022766
1052.029556
1055.53878
1048.632091
1043.401783
1049.190885
1055.762298
1048.542684
1036.204521
1037.500922
1047.290986
1045.189922
1031.756524
1033.388201
1044.675832
1041.658347
998.2065556
937.5215694
948.0939446
1045.636957
1239.471285
1554.697937
1935.437552
2281.666074
2496.443986
2646.826523
2660.438736
2431.109837
2005.376161
1531.474475
1289.025103
1228.138951
1185.067139
1143.470543
1127.109066
1125.052705
1113.474502
1094.542574
1088.239382
1093.156766
1095.973086
1091.346275
1091.838013
1098.342371
1102.097464
1100.622249
1099.929345
1114.167406
1126.706735
1125.320926
1127.153769
1137.681441
1148.656148
1152.165371
1152.701813
1166.828116
1185.737692
1195.103073
1196.175956
1207.642401
1230.865864
1245.483905
1249.104887
1264.460536
1293.517803
1315.422513
1327.961842
1346.603196
1379.750833
1406.148244
1424.208453
1448.035413
1484.580515
1515.381219
1532.703821
1554.161495
1590.684246
1625.508264
1645.289558
1657.292444
1673.117479
1691.043579
1692.317628
1682.102881
1679.890058
1677.431366
1659.28175
1624.837711
1589.365493
1556.061394
1510.933222
1454.629177
1401.677895
1362.115307
1321.27867
1273.334178
1233.682183
1210.369314
1191.817366
1165.442308
1137.904958
1127.243176
1122.750476
1108.378304
1091.838013
1089.513432
1095.682513
1092.285048
1080.349217
1078.85165
1087.18885
1087.881754
1079.455147
1079.544554
1088.842879
1093.089711
1085.78069
1081.511507
1087.971161
1089.222859
1078.806946
1073.867211
1081.958542
1085.713635
1078.963408
1074.358949
1079.119871
1088.328789
1082.517336
1074.76128
1076.191792
1083.076129
1082.405577
1073.978969
1074.202487
1082.383225
1081.377397
1071.207353
1066.781708
1074.090728
1076.9294
1068.256923
1063.205429
1071.274408
1074.984798
1066.0441
1061.238475
1068.189868
1072.816679
1063.272484
1053.348309
1055.494077
1062.221952
1058.891542
1050.911969
1055.471725
1064.50183
1059.673853
1052.007205
1054.868228
1063.183077
1060.746737
1049.526161
1047.760373
1056.656367
1059.673853
1056.008167
1057.192809
1076.504716
1100.37638
1106.27724
1101.158691
1098.118853
1094.497871
1077.778766
1066.401728
1074.314245
1085.981856
1077.868173
1057.282216
1050.353175
1051.403707
1043.49119
1031.465951
1031.644765
1037.009184
1035.601024
1025.833312
1024.648669
1034.259919
1037.143294
1025.185111
1018.837216
1026.481512
1030.996565
1023.955765
1015.551509
1020.513597
1024.179283
988.7070642
924.6022611
916.8462058
999.1676806
1167.901
1453.980977
1827.299813
2193.622553
2432.830922
2599.664342
2660.394032
2498.008609
2112.888052
1613.237156
1312.360324
1230.888215
1187.011741
1140.967147
1114.457979
1108.355952
1101.40456
1084.417234
1076.03533
1076.817641
1080.818603
1075.65535
1070.581504
1079.432795
1090.049874
1089.021693
1085.043083
1091.301571
1106.14313
1109.920574
1108.825339
1116.089656
1132.384078
1141.280072
1139.044897
1143.336432
1162.938912
1177.311084
1180.105052
1187.525831
1206.435407
1223.735657
1233.168093
1243.963986
1266.941579
1292.310809
1306.213594
1320.965746
1348.972481
1382.321284
1404.337752
1423.627308
1458.697195
1497.924506
1527.249995
1547.321862
1574.523935
1609.504415
1635.901825
1645.468372
1660.220523
1680.113575
1690.216564
1684.896849
1676.425538
1672.335168
1658.141811
1624.882415
1590.617191
1559.481211
1518.376353
1463.301654
1406.416465
1362.584694
1325.793722
1283.548925
1239.985375
1212.269212
1192.51027
1165.710529
1137.122647
1124.560967
1120.649412
1109.182967
1091.145109
1083.746682
1089.558135
1091.79331
1079.276333
1074.984798
1084.976028
1086.987685
1076.504716
1072.459051
1079.902182
1089.133452
1084.551344
1075.543591
1079.633961
1089.066397
1081.735025
1072.928437
1077.912876
1084.730158
1083.031426
1076.392958
1075.923571
1085.64658
1086.987685
1076.281199
1074.314245
1082.651446
1084.037254
1076.214144
1071.453222
1076.996455
1078.739891
1070.760318
1063.428946
1069.50862
1074.582466
1065.932341
1056.209332
1060.79144
1067.988702
1063.920684
1053.258902
1056.343443
1064.390071
1061.529048
1052.051908
1051.962501
1058.623321
1058.511562
1049.548513
1047.112172
1054.711766
1057.483382
1046.44162
1040.719574
1047.223931
1051.783687
1044.38526
1041.94892
1055.248207
1063.428946
1068.793365
1080.215106
1098.789406
1110.144092
1096.867156
1077.823469
1073.800155
1077.44349
1074.11308
1068.391033
1065.082975
1063.965388
1054.935283
1041.166608
1033.477608
1034.371678
1033.388201
1024.514559
1021.497073
1028.649632
1033.924643
1022.212329
1011.192919
1020.535948
1026.637975
1021.340611
1015.30564
1017.429056
1025.408629
1022.949937
1011.908175
980.8168984
928.0667815
924.8481303
1006.58846
1198.411131
1515.694143
1885.503755
2212.509777
2432.383887
2591.505956
2603.307677
2376.660988
1966.037091
1506.328762
1274.2506
1206.368352
1160.837848
1133.792237
1119.263604
1098.543536
1079.298685
1073.308417
1073.017844
1067.541667
1059.584446
1061.640806
1071.699091
1071.989664
1066.982873
1072.146126
1087.926458
1093.380284
1088.440548
1091.100406
1106.27724
1117.050781
1115.843787
1119.397714
1136.630909
1151.517171
1153.931159
1154.847581
1169.018587
1188.933991
1199.68518
1209.944631
1231.804637
1258.559675
1274.138841
1282.07371
1303.486681
1333.482722
1355.566246
1371.279522
1397.967505
1433.126799
1459.65832
1477.047977
1507.423998
1543.320899
1571.551153
1590.907763
1612.477197
1642.473238
1662.790974
1666.411956
1668.021282
1676.090261
1680.359445
1663.483878
1635.521845
1611.940755
1584.805737
1539.834027
1486.033378
1440.43582
1398.526299
1348.905426
1296.758806
1256.458611
1229.614166
1199.528718
1163.609465
1139.626043
1129.299537
1119.59888
1101.40456
1085.937153
1087.613533
1089.580487
1078.628132
1070.067414
1074.358949
1079.186926
1073.286065
1065.641769
1072.347292
1082.003246
1080.349217
1073.21901
1072.771975
1080.617437
1079.678664
1073.822507
1076.03533
1083.970199
1083.590219
1073.59899
1071.028539
1080.170403
1084.864269
1072.682568
1066.491135
1075.096557
1079.119871
1068.34633
1061.529048
1069.441565
1077.622304
1071.341463
1061.394937
1065.574713
1075.208315
1072.883734
1060.903199
1058.48921
1065.217086
1065.373548
1056.745774
1055.181152
1063.563056
1063.563056
1054.018862
1051.582521
1059.785612
1061.193772
1050.621396
1043.759411
1048.945016
1054.600007
1052.431888
1052.387184
1056.656367
1070.827373
1083.970199
1091.010999
1096.509528
1095.101368
1082.472632
1063.943036
1060.836144
1068.726309
1072.637865
1059.450335
1043.6253
1040.652518
1038.260882
1024.223986
1016.311469
1021.117094
1024.492207
1014.188053
1006.856681
1014.188053
1018.837216
1011.237623
1004.554451
1011.885823
1021.519425
1016.423227
1003.950954
1002.632201
1009.896518
1002.274573
955.5147237
900.2612114
923.5517291
1027.979079
1234.688012
1561.045833
1947.641605
2272.658321
2465.106841
2581.31356
2533.01144
2260.744841
1811.944164
1386.836336
1226.797846
1194.723093
1146.398621
1105.89726
1093.357932
1089.178156
1074.24719
1057.729251
1054.778821
1062.736042
1058.064527
1047.827428
1050.084955
1060.858495
1062.959559
1058.533914
1065.440603
1079.008112
1082.651446
1081.28799
1086.518298
1104.556156
1115.664973
1116.581394
1121.454075
1135.781543
1150.243121
1157.686252
1162.760098
1176.640532
1196.555936
1205.988372
1213.297393
1231.558768
1258.582027
1276.776347
1288.60042
1314.550795
1348.078412
1370.74308
1387.90922
1415.155997
1449.443573
1479.551372
1505.032361
1529.99926
1562.096365
1590.147804
1604.139996
1619.316831
1639.969842
1654.856104
1653.045613
1645.043688
1642.786162
1636.86295
1610.353781
1573.987493
1538.984661
1502.685428
1453.556294
1393.430101
1344.72565
1306.92885
1265.511068
1220.941689
1187.190555
1166.805764
1144.319909
1115.486159
1096.867156
1093.648504
1087.591182
1074.850687
1063.317187
1067.049929
1067.653426
1057.259864
1049.995548
1054.309434
1060.232646
1053.728289
1045.949882
1048.676795
1054.778821
1052.700109
1048.36387
1049.63792
1058.131583
1055.985815
1046.575731
1046.374565
1052.856571
1057.773955
1049.593216
1046.978062
1059.785612
1064.814754
1054.398841
1049.615568
1058.265693
1062.803097
1054.689414
1045.480495
1048.22976
1055.02469
1048.319167
1042.239492
1042.373603
1047.089821
1047.000414
1039.534931
1040.004318
1047.380393
1043.960577
1034.282271
1031.4436
1044.809943
1049.570864
1046.575731
1044.720536
1060.724385
1084.081958
1086.115967
1082.897315
1076.281199
1068.458088
1055.136449
1049.660271
1056.075222
1069.37451
1060.254998
1037.322108
1026.883844
1025.363925
1015.81973
1004.733265
1003.213346
1007.147253
1007.571937
997.7595207
993.624448
1000.419378
999.9723434
988.5953055
984.616695
993.3562271
1001.46991
997.0219132
989.6681892
992.4398056
989.0870439
932.4700752
879.1835164
923.7752466
1062.981911
1312.427379
1658.454735
2029.381934
2317.451217
2499.349713
2546.288377
2388.373302
2051.443106
1599.06615
1268.99794
1182.876668
1171.924314
1129.455999
1089.1111
1072.794327
1074.046025
1068.458088
1053.124792
1040.093725
1044.228797
1050.911969
1050.844914
1052.454239
1058.802135
1068.771013
1066.401728
1063.473649
1069.285103
1086.764167
1094.766092
1091.614496
1098.498833
1113.519205
1120.917633
1121.074095
1127.578453
1141.324775
1154.534656
1163.564761
1173.265418
1192.711436
1217.767741
1232.6093
1240.097134
1268.439146
1295.864737
1305.096007
1317.523577
1336.477856
1375.258133
1406.729389
1428.835264
1446.20257
1474.701044
1520.499768
1546.427792
1580.827127
1599.267316
1605.615211
1611.583127
1607.626868
1620.166197
1640.148656
1649.134058
1629.196302
1612.924232
1584.20224
1535.520141
1496.337533
1451.321119
1403.108406
1351.475877
1308.180548
1271.210762
1248.50139
1214.347925
1162.693043
1121.208205
1113.653316
1096.28601
1071.028539
1052.96833
1056.142277
1053.638882
1039.400821
1018.054905
1022.637012
1051.783687
1063.205429
1063.875981
1071.140298
1069.732138
1063.831277
1054.979987
1067.116984
1080.751548
1078.963408
1074.828336
1081.735025
1091.92742
1091.860365
1079.902182
1080.192754
1094.766092
1094.341409
1090.116929
1092.9556
1100.935173
1103.349162
1093.492042
1091.949772
1098.096502
1103.863252
1098.632943
1096.353066
1103.103292
1107.126606
1098.990571
1093.134414
1098.945868
1103.930307
1102.544499
1104.198528
1115.664973
1120.515301
1124.739781
1131.847636
1145.906883
1161.173124
1153.998214
1131.042973
1120.49295
1126.326755
1126.863197
1121.096447
1119.911804
1121.074095
1111.820473
1093.223821
1082.18206
1080.751548
1082.003246
1070.939132
1061.752565
1064.233609
1065.999397
1061.909027
1053.23655
1052.118963
1053.191847
1048.006242
1044.586425
1045.100515
1051.895446
1044.206446
1028.046134
1007.191957
964.2319041
939.130895
995.7925672
1157.418031
1452.349299
1825.936356
2153.389413
2382.941828
2552.435106
2541.885083
2297.401702
1885.615514
1482.680617
1301.184452
1259.878428
1215.331401
1160.301406
1135.11099
1115.642621
1095.861327
1087.680589
1088.552307
1083.433757
1072.570809
1072.146126
1083.009074
1088.105272
1080.080996
1077.041158
1085.311304
1091.122757
1087.479423
1085.110138
1098.07415
1108.959449
1111.552252
1112.021638
1125.343278
1141.794162
1144.610482
1145.906883
1159.921427
1181.714378
1191.951477
1194.700741
1208.13414
1230.910567
1246.132105
1256.883294
1274.362358
1302.011466
1323.469141
1339.450638
1360.684795
1391.418444
1417.994668
1434.736125
1458.428974
1490.481376
1522.109094
1540.169303
1553.826219
1576.826164
1594.752263
1597.568583
1594.215822
1595.065188
1597.322714
1586.102138
1557.380147
1529.261652
1505.434693
1468.88959
1417.569985
1371.368929
1333.594481
1292.914306
1247.786134
1208.983506
1182.273171
1159.206171
1130.864159
1107.283069
1100.175214
1093.648504
1077.5776
1064.568885
1065.775879
1070.581504
1064.63594
1058.891542
1062.71369
1066.334673
1065.105327
1055.941112
1054.912931
1065.641769
1064.188905
1054.532952
1051.828391
1059.942074
1064.546533
1059.740908
1055.628187
1064.323016
1067.988702
1059.115059
1054.488248
1059.182115
1062.445469
1055.628187
1048.721498
1056.634016
1065.686472
1060.009129
1049.347347
1059.048004
1070.805022
1060.724385
1047.380393
1045.301681
1049.324995
1047.045117
1038.797324
1039.624338
1046.709841
1048.989719
1045.435792
1045.704013
1054.018862
1063.183077
1071.29676
1083.903144
1095.861327
1094.810795
1074.046025
1058.019824
1056.589312
1059.003301
1055.292911
1052.186018
1052.118963
1047.4698
1032.404725
1014.165701
1008.153082
1013.472797
1012.601079
1003.235698
1001.648724
1008.153082
1011.058809
1002.162814
1000.911117
1010.790588
1016.445579
1010.321201
1001.46991
1007.370771
1014.635088
1009.784759
986.1813171
936.5827962
893.823909
925.8316071
1052.878923
1307.800568
1673.720977
2031.661812
2289.198612
2482.608257
2553.262121
2401.1585
2048.962062
1598.350894
1314.774312
1236.096172
1188.777529
1125.320926
1096.330714
1083.947847
1067.519315
1056.164629
1058.109231
1058.265693
1048.900312
1041.770106
1047.581559
1056.81283
1054.220027
1048.36387
1056.477553
1070.469745
1075.096557
1070.425042
1075.990626
1094.36376
1101.002228
1101.739836
1110.546423
1125.343278
1132.697002
1130.528883
1136.630909
1154.288787
1171.700796
1177.400491
1183.9272
1205.83191
1228.496579
1236.699669
1245.975643
1269.735547
1297.205841
1314.036705
1332.655708
1361.802383
1394.100653
1420.095732
1434.624366
1454.070384
1486.860393
1511.760236
1527.56292
1546.941882
1565.896161
1578.279028
1575.596818
1575.730929
1581.140051
1577.004978
1548.528856
1519.158664
1496.516347
1469.560143
1420.587471
1365.780993
1324.720839
1289.829766
1250.893027
1206.815387
1180.328569
1163.832982
1138.240235
1108.490063
1091.390978
1090.720426
1078.359911
1059.986777
1056.365795
1064.680644
1062.691338
1051.806039
1043.960577
1051.873094
1054.756469
1048.430925
1046.8216
1054.868228
1061.886676
1056.879885
1049.570864
1053.728289
1063.026615
1064.323016
1060.65733
1063.74187
1075.610647
1077.532897
1062.244303
1057.684548
1068.368681
1069.732138
1058.690376
1056.924588
1067.899295
1068.636902
1056.43285
1050.621396
1055.270559
1060.634978
1056.186981
1045.391088
1047.827428
1055.270559
1048.36387
1037.925606
1039.624338
1052.342481
1052.700109
1049.950844
1064.680644
1086.652408
1099.683475
1097.783577
1091.122757
1085.735987
1073.911914
1058.131583
1053.080088
1062.870152
1071.699091
1060.702033
1044.720536
1038.082068
1034.461085
1021.899405
1007.393123
1010.500015
1012.891652
1005.202652
1004.509748
1009.673001
1010.723533
1011.259974
1008.935393
1004.576803
1008.018971
1009.449483
1003.190995
1002.74396
1009.270669
1005.292059
970.8703722
906.0279615
885.1961357
954.5983022
1121.163502
1416.832378
1802.332914
2161.81602
2399.124491
2566.181429
2557.419545
2329.342345
1929.00025
1488.112091
1261.353643
1207.865919
1159.854372
1104.198528
1086.54065
1081.958542
1068.279274
1050.15201
1044.251149
1048.497981
1048.050946
1040.987795
1045.189922
1058.600969
1061.864324
1058.176286
1062.020786
1074.224839
1085.423062
1083.031426
1080.282161
1089.133452
1102.030409
1103.259755
1102.276278
1107.931269
1127.690211
1140.006022
1136.340336
1148.231464
1165.688177
1177.176973
1187.324665
1204.55786
1225.859073
1241.281777
1254.245788
1268.506201
1298.837519
1328.230063
1346.6479
1369.983121
1399.710941
1426.086
1443.788581
1465.402718
1498.170376
1526.244167
1537.554149
1546.383088
1562.67751
1580.961237
1583.039949
1576.781461
1574.367472
1568.287798
1549.869961
1513.749541
1476.355073
1443.721526
1400.582659
1346.044403
1302.860833
1270.339044
1238.107829
1199.03698
1165.956398
1148.387927
1131.64647
1105.003191
1084.998379
1079.008112
1079.790423
1071.43087
1059.606798
1059.271521
1064.993568
1061.350234
1060.27735
1059.38328
1064.63594
1067.005225
1058.600969
1053.571827
1060.746737
1067.251094
1060.679681
1060.41146
1069.173344
1076.392958
1070.894429
1066.871115
1074.671873
1078.628132
1070.000359
1064.926513
1072.749623
1077.644655
1071.632036
1061.707862
1061.953731
1069.218048
1062.803097
1051.69428
1051.582521
1058.578617
1059.271521
1051.627225
1048.453277
1055.494077
1056.768126
1046.620434
1041.300719
1048.430925
1052.476591
1043.468838
1035.109286
1037.366812
1045.346385
1039.601986
1030.951861
1039.311414
1048.788553
1047.71567
1058.310396
1080.215106
1093.670856
1085.981856
1068.882772
1066.848763
1072.302588
1068.793365
1061.797269
1061.774917
1060.612626
1048.699146
1027.420286
1016.266765
1021.161797
1020.223024
1007.661344
1001.380503
1008.331896
1014.612736
1005.470873
997.2454306
1004.330934
1009.673001
1005.739094
1001.3358
1004.845024
1013.137521
1012.109341
1004.979134
994.4514626
952.430183
899.8141765
920.0872088
1045.815771
1300.983286
1658.0077
2035.282795
2333.924453
2545.282548
2649.776953
2527.11058
2197.668218
1745.313614
1365.333958
1208.827044
1157.686252
1119.263604
1095.950734
1078.382263
1059.204466
1053.191847
1054.801173
1050.062603
1039.356117
1040.786629
1051.247245
1052.163667
1044.38526
1043.804114
1055.136449
1058.824487
1054.220027
1057.952769
1074.24719
1082.472632
1081.80208
1087.010036
1102.745664
1114.368572
1117.430761
1121.476426
1136.362688
1149.796087
1157.485087
1164.056499
1180.105052
1199.439311
1215.197291
1225.322631
1239.27012
1265.958102
1290.723835
1306.54887
1333.728592
1369.491383
1396.827566
1416.698267
1442.402773
1475.259838
1505.814672
1523.517254
1539.990489
1567.058452
1586.392711
1589.231383
1587.778519
1597.747397
1604.050589
1590.013694
1568.44426
1550.741679
1525.998297
1482.904134
1429.148189
1383.03654
1344.122153
1298.435187
1247.808486
1209.072913
1183.234296
1157.306273
1125.455037
1101.963353
1093.559097
1086.630057
1067.139336
1052.901274
1056.388146
1057.84101
1048.900312
1038.551454
1041.367774
1049.190885
1048.721498
1042.21714
1043.647652
1051.493114
1050.129658
1041.904216
1042.127733
1052.253074
1055.02469
1049.168533
1046.531027
1055.069394
1059.517391
1053.750641
1049.324995
1054.041213
1055.985815
1046.30751
1037.478571
1043.021803
1052.409536
1046.44162
1035.04223
1038.663213
1045.256978
1042.060678
1034.39403
1037.098591
1041.635995
1037.009184
1026.392105
1025.654498
1034.461085
1032.874111
1024.201634
1022.502902
1030.124847
1030.527178
1018.50194
1013.942184
1018.770161
1023.620489
1017.876091
1010.701181
1013.24928
1014.880957
1006.253184
1001.112282
1007.594288
1021.541777
1020.670059
1025.028649
1047.380393
1067.429908
1063.272484
1045.011109
1035.913949
1039.020841
1037.545626
1027.912024
1030.862454
1036.472742
1029.208425
1007.951916
994.5632213
994.4738143
996.5525265
986.7848142
976.7712327
982.0685961
988.9082299
983.7226252
975.0277966
979.8557734
987.2542008
984.5943433
977.6429507
981.0180641
990.472852
985.5107648
976.3241978
973.686692
952.9889766
889.8452985
859.9163127
932.045392
1116.983726
1417.458226
1795.046245
2174.198887
2441.056364
2638.869302
2706.863309
2531.513874
2141.855912
1641.333299
1306.92885
1187.481128
1142.643528
1113.96624
1086.317132
1064.792402
1054.085917
1050.6661
1041.993623
1029.253129
1028.984908
1034.461085
1036.048059
1030.594233
1035.04223
1047.380393
1053.437716
1051.291949
1052.20837
1062.490173
1071.564981
1072.280237
1072.593161
1085.490118
1103.259755
1106.679571
1106.701923
1122.906938
1143.17997
1150.533694
1151.047784
1166.62695
1192.957305
1206.949497
1213.833834
1234.643308
1262.024195
1281.894896
1295.77533
1319.892862
1353.800458
1383.17065
1401.812005
1422.487369
1457.557256
1491.889535
1511.961402
1531.116847
1559.011824
1585.118662
1596.24983
1599.021447
1603.983534
1611.337258
1602.798891
1581.743548
1561.850496
1541.711574
1508.340419
1459.323044
1411.713828
1374.609932
1324.318507
1268.729719
1225.389686
1197.539413
1167.722186
1133.792237
1103.349162
1090.787481
1080.170403
1056.410498
1041.121905
1039.26671
1041.635995
1034.237568
1026.481512
1027.442637
1033.455257
1028.269652
1017.831387
1020.647707
1031.510655
1030.080143
1019.328954
1018.814864
1025.766257
1025.319222
1016.803207
1014.702143
1025.475684
1028.157893
1022.078219
1021.407666
1028.806094
1032.337669
1024.693373
1018.233719
1022.055867
1027.152065
1022.391143
1015.260937
1019.775989
1027.777914
1022.078219
1011.908175
1014.143349
1025.162759
1023.911062
1012.623431
1010.388256
1015.909137
1013.942184
1006.744922
1003.280402
1010.008277
1012.578727
1002.632201
1000.888765
1007.326067
1007.594288
998.8324045
992.484509
997.5360033
1004.934431
1000.553489
991.7245497
992.6856747
999.7041225
996.3960643
991.2775148
998.0053899
1010.500015
1012.310506
1015.618565
1032.337669
1051.113135
1050.15201
1031.734172
1020.066562
1021.340611
1024.581614
1018.390181
1018.680754
1020.155969
1011.08116
992.1268811
976.9500467
977.4194333
980.1016426
976.8159362
969.663378
972.4126425
977.6876542
975.1842588
967.0258721
968.9928256
975.0277966
973.4855263
967.0258721
967.2046861
976.7712327
976.8382879
965.8635814
956.6323109
925.4292757
867.2253331
861.1233069
950.1726568
1156.456906
1482.412396
1861.587389
2200.641
2435.915462
2608.806206
2613.34361
2372.302398
1946.501666
1476.690349
1239.985375
1161.553104
1116.827263
1090.228688
1068.681606
1044.698184
1033.902292
1037.925606
1034.684603
1023.620489
1019.418361
1027.308527
1031.06362
1025.922719
1026.213291
1037.053887
1047.223931
1044.407611
1045.860475
1055.829353
1067.45226
1070.492097
1072.034368
1087.255906
1105.003191
1110.300554
1109.808816
1121.588185
1142.598825
1156.009871
1160.569627
1171.477279
1194.879555
1212.738599
1220.874634
1237.459628
1266.203972
1290.388559
1303.933716
1324.251452
1358.807249
1392.044293
1412.876119
1434.28909
1467.235561
1502.551318
1525.014821
1541.91274
1564.152725
1587.465595
1597.501528
1600.250793
1604.989362
1612.052514
1604.274107
1580.178926
1557.849533
1536.771838
1499.667942
1447.811895
1400.001514
1359.477801
1316.383638
1266.82982
1222.282794
1192.733788
1164.816459
1132.093505
1104.712618
1091.92742
1084.551344
1067.899295
1050.487286
1045.212274
1048.833257
1043.915873
1034.796361
1033.410553
1037.299757
1037.433867
1030.147198
1028.604928
1035.310451
1035.690431
1027.308527
1027.152065
1037.836199
1040.607815
1032.963518
1028.783742
1034.036402
1038.037364
1032.114152
1025.118056
1031.287137
1038.998489
1034.841065
1026.794437
1030.54953
1037.567978
1034.036402
1022.637012
1023.128751
1032.270614
1032.963518
1021.698239
1018.837216
1025.989774
1025.363925
1017.138483
1014.188053
1021.519425
1027.263823
1015.752675
1008.555413
1015.238585
1016.132655
1006.20848
1001.447559
1006.72257
1011.394085
1007.951916
998.8100527
1000.665248
1009.248317
1008.108378
996.3066574
992.3503986
1001.626373
1002.565146
995.7478637
995.2561254
1001.291096
1000.844061
990.3610933
986.6060003
995.3231806
1003.615678
1000.598192
999.2794394
1022.838178
1051.157838
1053.705937
1044.00528
1041.121905
1038.394992
1025.185111
1010.879995
1016.646745
1029.744867
1021.921756
999.2570876
987.8353462
990.2493346
983.9908462
970.5574477
968.5457907
976.7265292
978.581724
967.1152791
960.387404
968.7022529
974.1337269
966.5341337
959.7392034
966.0870988
972.2338286
966.1318023
956.7440697
960.6109215
959.7615552
911.2135662
844.1583328
858.7763737
969.0375291
1176.484069
1494.705855
1871.578618
2193.175518
2401.180852
2536.610071
2504.982353
2244.673937
1806.266821
1368.932589
1191.6162
1146.666842
1103.080941
1060.232646
1035.981004
1032.918815
1030.16955
1015.350344
1003.414512
1005.202652
1012.690486
1009.494187
1000.620544
1003.839195
1014.769198
1017.719629
1012.601079
1017.049076
1031.845931
1038.864379
1039.065544
1047.782725
1062.423117
1069.262751
1066.692301
1073.464879
1092.061531
1104.35499
1102.924478
1110.993458
1132.719354
1154.266435
1163.698872
1170.47145
1194.387817
1225.5685
1242.689936
1253.843457
1279.190335
1312.494434
1336.835484
1352.615816
1380.019054
1414.820721
1443.654471
1462.720509
1487.32978
1519.963326
1545.019632
1557.827182
1569.606551
1583.554039
1590.48308
1582.14588
1570.299455
1564.488001
1551.076955
1517.325821
1476.086852
1437.373631
1396.045255
1345.485609
1290.433263
1247.428506
1218.818273
1181.781433
1140.251892
1111.798121
1095.324885
1075.387129
1052.923626
1037.120943
1032.98587
1027.487341
1014.344515
1010.81294
1016.222062
1017.585518
1010.477663
1005.515576
1011.32703
1020.111265
1016.914966
1009.628297
1011.550547
1018.993678
1017.943146
1009.762408
1011.774065
1022.324088
1022.078219
1014.255108
1014.813902
1019.999506
1020.066562
1016.467931
1015.68562
1021.385315
1024.849835
1015.082123
1010.321201
1015.372695
1020.826521
1016.043248
1008.086027
1010.500015
1016.356172
1009.248317
998.4300731
1001.894593
1008.845986
1003.928602
995.3231806
998.8324045
1006.633163
1006.253184
997.2901341
998.3406661
1004.643858
999.92764
989.9811137
984.9743229
990.7857765
991.791605
982.4485758
977.4194333
981.5321543
985.1754886
980.1016426
974.7595757
979.9898839
988.4164916
981.5098025
973.4408228
977.710006
984.4155293
983.0520729
976.7712327
978.0005786
986.2930758
987.7906427
984.9519712
987.3212561
996.2619539
996.6419335
996.0160847
1015.104474
1045.189922
1051.247245
1033.969347
1015.238585
1013.785722
1016.512634
1007.884861
1004.465044
1005.649687
1006.409646
990.1822794
974.55841
975.4524798
980.2804566
973.7984507
965.3941948
965.7518227
969.1269361
967.5176105
960.0521278
959.6497964
967.9199419
968.7022529
957.1911046
956.0288138
968.6351977
973.4855263
961.9743779
960.2085901
954.1065638
916.1756535
875.0260919
910.3418482
1052.945978
1312.427379
1653.023261
1995.161414
2261.303635
2451.852256
2505.384684
2338.707726
2002.6716
1574.747452
1273.110661
1182.563744
1147.940892
1098.945868
1066.535838
1043.87117
1033.924643
1033.857588
1030.03544
1016.803207
1010.455312
1015.350344
1022.48055
1019.105437
1013.182224
1022.279384
1034.729306
1035.981004
1034.975175
1043.178265
1056.499905
1062.154897
1056.164629
1063.183077
1083.85844
1092.754435
1093.380284
1102.477444
1118.682458
1126.751438
1132.048801
1142.710584
1166.023453
1186.385892
1193.069064
1204.490805
1229.591814
1253.552884
1266.338082
1285.672341
1316.473045
1351.051194
1376.107499
1394.257116
1427.002421
1465.536829
1491.218983
1510.642649
1539.09642
1569.673606
1584.448109
1591.220688
1603.93883
1616.187586
1616.724028
1602.754188
1587.622057
1575.820336
1548.305338
1507.267536
1461.781736
1421.012154
1374.051139
1319.468179
1271.210762
1237.034945
1207.75416
1172.594866
1135.826246
1110.993458
1101.583374
1084.059606
1062.847801
1054.979987
1057.662196
1048.587388
1035.019879
1032.494132
1034.975175
1033.343498
1025.051001
1022.99464
1033.723478
1042.842989
1035.310451
1031.108323
1040.361946
1048.721498
1042.127733
1035.2881
1043.178265
1052.498943
1047.916835
1039.26671
1039.825504
1051.828391
1049.146181
1036.383335
1039.870207
1050.554341
1048.609739
1038.059716
1041.635995
1048.699146
1048.497981
1040.786629
1029.946033
1033.142332
1036.808018
1026.548568
1020.603004
1028.560225
1032.672946
1024.067524
1019.418361
1024.112227
1026.928547
1018.546643
1004.085064
1006.431998
1015.149178
1013.785722
1001.380503
1001.380503
1011.595251
1008.64482
1000.598192
999.3464946
1006.856681
1008.376599
1000.218213
993.5573928
1002.520442
1010.94705
1009.829463
1004.867375
1014.523329
1036.964481
1050.107306
1051.068431
1052.856571
1050.353175
1037.433867
1022.838178
1024.760428
1033.589367
1026.302698
1007.080198
997.8042242
994.9655527
990.7187212
977.8441164
972.8373257
980.3922153
981.0180641
972.2785321
971.8314972
979.8334217
984.6837502
979.9451804
974.6701687
978.9840554
981.3756921
972.8373257
964.3436628
968.0764041
974.0219681
957.3475668
906.4526446
871.5392198
917.9190895
1043.267672
1279.659722
1624.457732
1998.558879
2284.929429
2465.375062
2543.337946
2411.999096
2076.119432
1614.734723
1263.87939
1160.636683
1140.475409
1088.306438
1049.950844
1043.87117
1041.680699
1029.677812
1013.785722
1012.444617
1017.473759
1014.299812
1009.40478
1017.272594
1028.962556
1027.800265
1019.843044
1024.827483
1039.065544
1042.507713
1040.272539
1043.87117
1059.830315
1070.78267
1072.235533
1079.343388
1097.135377
1109.115912
1111.082865
1114.592089
1136.496799
1155.406374
1160.703738
1169.06329
1191.325628
1215.420808
1233.793942
1247.09323
1271.389576
1300.826824
1324.09499
1341.752868
1370.027825
1407.645811
1435.339622
1454.40566
1478.545544
1513.481321
1539.141123
1550.518161
1562.990435
1582.883487
1593.321752
1587.599705
1581.430624
1582.101176
1574.59099
1543.83499
1502.283097
1466.96734
1430.82457
1380.935476
1325.883129
1283.34776
1248.479038
1206.368352
1160.435517
1130.528883
1112.826301
1090.251039
1064.300664
1048.408574
1046.374565
1038.37264
1022.726419
1014.79155
1018.904271
1018.479588
1007.706047
1000.82171
1008.488358
1016.512634
1009.695352
1001.961649
1009.15891
1015.640916
1008.600117
1000.709951
1004.129768
1015.126826
1013.919832
1005.850852
1006.096721
1014.970364
1015.238585
1005.470873
1005.69439
1016.534986
1018.993678
1008.64482
1001.916945
1009.002448
1013.584556
1008.309544
1001.604021
1008.018971
1011.304678
1000.151157
992.8644887
998.1395004
1003.101588
998.3183144
989.2211544
992.1492329
1000.397027
995.7478637
985.8460409
986.538945
991.3892736
987.8129945
978.0229304
974.5360583
981.3756921
986.8518694
980.0122356
972.9714361
979.4981455
983.5214595
975.9889216
970.9821309
976.9276949
982.8509072
974.8266309
967.472907
969.3281018
974.737224
970.4903925
963.8742761
969.2163431
982.3815206
983.5214595
984.3931776
1002.520442
1027.442637
1030.571882
1013.450445
1001.402855
999.92764
1000.329971
993.8703172
992.663323
999.1229772
995.9266777
979.3863868
963.9860349
963.449593
967.6070175
959.336872
949.7479737
952.8325144
956.8111249
949.3232905
938.4826944
941.231959
947.5575027
945.1882178
938.3262322
940.0473166
948.1833515
947.9374823
939.0861915
936.0016508
920.9812785
862.4197081
827.9980216
886.0007985
1054.823524
1342.512827
1702.644134
2063.848324
2325.207272
2515.666487
2590.813052
2445.034974
2085.261295
1601.681304
1266.338082
1153.662938
1107.663048
1073.464879
1045.592254
1019.999506
1009.561242
1012.779893
1004.532099
989.9811137
983.5885148
993.9150207
1000.95582
995.1667184
996.4407678
1008.331896
1015.238585
1014.41157
1012.578727
1025.319222
1041.18896
1043.357079
1041.367774
1051.515466
1065.977045
1069.463917
1067.96635
1079.36574
1101.717484
1113.429798
1116.112008
1128.159598
1152.79122
1170.650264
1176.864049
1194.499575
1225.210872
1250.624806
1266.852172
1285.873507
1316.562452
1348.994833
1370.251342
1391.329037
1424.141398
1458.76425
1481.451271
1498.058617
1525.215986
1552.015728
1562.141068
1565.605589
1578.346083
1587.398539
1582.972894
1566.343196
1550.339347
1535.095457
1507.58046
1461.401756
1414.820721
1374.207601
1329.414705
1276.105794
1229.547111
1196.310067
1164.928218
1126.505569
1093.424987
1077.778766
1065.731176
1045.882827
1025.363925
1018.680754
1020.223024
1011.125864
997.8936312
996.5525265
1003.302753
1001.46991
992.484509
990.83048
998.2736109
998.8100527
989.0870439
985.8683927
994.9655527
997.915983
988.3494363
985.3766543
992.0374742
995.4349393
990.651666
989.4446718
996.2172504
1003.705085
998.1618521
986.7401107
989.1540991
997.7595207
992.6186195
981.8674304
985.4213578
994.5185178
991.8586602
983.2532386
982.4932793
988.3717881
990.0034654
985.1531369
984.3037706
987.589477
987.2318491
980.7051397
976.7935844
982.9179624
987.8129945
979.7663665
973.2396571
976.8159362
980.2357531
972.2338286
964.5671802
965.6177122
972.0103111
970.445689
961.9520261
964.9024564
972.2114768
968.9481221
961.61675
960.2532935
965.2377326
966.1988576
956.4758487
949.4797527
957.0793458
963.6731104
956.8334766
956.6993662
965.9082849
976.0559769
978.581724
992.0598259
1013.718666
1024.246338
1014.188053
991.9927707
986.7624625
989.7575962
987.4777183
983.1191281
986.8518694
986.5165933
971.2950553
953.4360115
940.8966828
942.282491
944.2494445
936.7616101
934.3923252
943.7577061
947.1328195
936.3145752
928.3573542
935.286395
937.9686043
927.0162495
922.3000315
930.1454938
934.6158427
928.290299
921.1377407
914.2087
871.1815919
830.7249344
859.2681121
993.1550614
1254.066974
1606.397522
1957.632835
2227.664259
2425.521901
2515.219452
2391.659008
2054.192371
1596.227479
1250.28953
1138.95549
1095.481347
1054.845876
1028.001431
1007.080198
990.651666
984.0579014
983.6108665
977.4864885
967.8752384
974.9607414
985.6001718
984.9743229
981.4427473
983.3426456
997.6924655
1004.80032
1001.447559
1007.974268
1019.66423
1027.934376
1028.292004
1032.114152
1050.755507
1063.026615
1062.087841
1064.077147
1080.751548
1100.957525
1103.930307
1104.153824
1125.566796
1148.499685
1155.696947
1163.743575
1191.660904
1223.489788
1244.008689
1257.375033
1281.336103
1319.244661
1349.799496
1372.777089
1398.481595
1434.177331
1470.275399
1493.163585
1514.263632
1543.857341
1566.544362
1570.724138
1574.255714
1586.705635
1594.126415
1585.677455
1567.527839
1553.490943
1531.094495
1486.882745
1434.154979
1391.709017
1348.972481
1295.618867
1240.879445
1200.266326
1168.571552
1135.513322
1098.856461
1074.269542
1065.038272
1051.56017
1030.974213
1017.09378
1013.517501
1012.444617
999.0335702
990.1152241
995.9490294
1003.235698
997.4689481
991.612791
998.698294
1004.465044
1002.609849
994.9655527
993.8479655
1005.247355
1002.900422
997.2454306
1000.732303
1009.0248
1012.221099
1005.873204
1001.46991
1010.164739
1013.070466
1003.63803
997.0442649
1003.190995
1006.789626
1000.039399
993.3338753
999.5029568
1007.348419
1003.816843
993.3785788
993.7809102
1000.30762
995.6137533
990.3387416
993.3338753
1000.642896
1002.855718
994.5185178
993.1327096
998.3406661
995.1890701
989.0423404
987.0977386
998.4747766
1000.553489
987.1424421
980.0122356
985.4660613
987.1647939
979.721663
972.9937879
976.4583083
982.1803549
976.0336251
973.4408228
981.7780235
994.9655527
995.7478637
989.690541
1007.281364
1030.616585
1036.137466
1021.787646
1011.170567
1011.796416
1005.582631
993.2444684
990.8975352
1000.508785
993.2221166
973.5749332
961.259122
964.0754418
965.8188779
955.2688545
947.7363166
955.8499999
960.3427005
952.8995696
944.9647003
949.2338835
952.1172586
950.8208574
941.4778282
947.7586684
961.3932325
956.5652557
947.5127992
951.0443748
948.228055
904.3068772
861.0786034
896.3273044
1039.713745
1299.999809
1641.713278
1992.233335
2262.577684
2449.304157
2492.197155
2312.265612
1965.634759
1521.595004
1211.106922
1123.376325
1110.993458
1071.453222
1038.283233
1018.166663
1016.870262
1022.726419
1015.81973
1002.319277
997.6030585
1004.532099
1005.470873
1001.492262
1005.336762
1015.350344
1024.067524
1017.987849
1015.529158
1030.616585
1043.982928
1044.631129
1044.474667
1055.605835
1072.101423
1078.583429
1081.4221
1093.804967
1114.033295
1120.805874
1122.884586
1136.787371
1160.659034
1176.394662
1184.083663
1204.200233
1233.50337
1259.543152
1273.580047
1296.110606
1329.459408
1360.058947
1379.57202
1402.907241
1438.468866
1472.376463
1493.722378
1513.257803
1544.706708
1575.261542
1586.303304
1591.019522
1603.402389
1613.41597
1605.972839
1587.443243
1574.21101
1556.217856
1521.170321
1472.935256
1428.455285
1387.864517
1342.915159
1286.544059
1235.895006
1200.802767
1164.391776
1122.772827
1090.474557
1071.028539
1056.611664
1036.584501
1019.485416
1015.260937
1012.824597
1003.749788
992.9538957
991.702198
999.2570876
996.2619539
988.0365119
988.3047328
995.1220149
993.9820759
986.0025032
989.1317474
998.4747766
1002.162814
994.1385381
993.5797445
1002.565146
1008.577765
1001.067579
996.9772097
1003.503919
1009.203614
1001.000524
993.5126893
997.6254103
1003.90625
1000.95582
995.1667184
997.1783754
1004.085064
999.3464946
990.2269829
991.6798462
997.4689481
993.6691515
981.3756921
979.4087385
987.6341805
988.1259189
975.4524798
972.3232356
979.8110699
978.4699653
966.2435611
958.0628226
961.61675
966.2435611
960.9014941
954.8665231
960.9461976
967.8528867
961.3708808
952.3854795
957.1016976
964.1424971
958.4204505
946.8645986
948.5856829
956.1852761
956.4311452
953.7936394
956.7440697
967.7634797
983.8790874
993.1103579
1000.44173
1004.465044
996.3960643
983.2308868
972.9043809
977.8217647
985.8013375
982.7391485
973.4408228
969.1939913
963.3378343
948.6527382
935.0628775
934.5711392
941.4331247
935.6663746
925.7869036
924.7363716
932.7382961
931.8442263
923.3505634
922.7247146
932.1124473
931.7995229
921.5400721
916.5109296
924.4457989
924.2446332
906.4079412
855.9600539
808.8425766
837.6539752
950.6643952
1174.070081
1522.846701
1918.718448
2230.190007
2425.320736
2562.046356
2526.574138
2236.224978
1773.588571
1339.85297
1159.027357
1101.963353
1052.834219
1022.10057
1013.651611
1004.688562
987.7012357
977.9558752
980.3475118
979.9675322
973.6419885
969.663378
980.0122356
989.3329131
985.3766543
979.4757938
988.9976369
1004.308582
1004.219175
1001.760483
1013.986887
1030.258957
1032.047097
1029.498998
1039.110248
1056.701071
1068.99453
1073.688397
1084.663103
1107.059551
1123.264566
1129.031316
1140.810685
1164.592941
1184.664808
1196.533584
1214.482035
1244.299262
1271.724853
1289.405082
1309.275783
1342.378717
1377.962694
1400.537956
1418.933442
1448.974186
1482.971189
1507.602812
1522.265556
1541.130428
1562.632807
1571.014711
1566.231437
1561.850496
1561.582275
1549.489981
1518.957498
1485.049902
1459.323044
1420.878043
1364.015205
1313.254394
1272.97655
1232.855169
1182.966075
1136.407392
1108.020676
1086.294781
1055.158801
1025.721553
1012.243451
1008.935393
1000.30762
983.8790874
976.2571426
979.453442
978.2240961
969.7527849
966.4670785
970.8703722
969.3504535
960.2309418
957.325215
967.5399622
974.0219681
967.2046861
961.259122
967.0705756
971.4515175
966.7800029
961.1026598
965.6177122
971.9879594
967.9869971
959.0239476
962.5555232
973.8878577
973.0831949
962.0190814
965.7965262
972.7479187
971.5409245
963.7625174
961.9743779
969.1492878
968.1881628
957.3028633
953.9501016
963.1366686
966.5788372
957.1687528
948.4292207
951.5137615
961.2144186
954.44184
944.9870521
949.278587
957.504029
952.8995696
942.5730637
944.6294242
949.9491394
946.8869504
936.5157409
937.4545142
944.5847207
944.2270928
933.6100142
931.6654124
941.4778282
944.7858864
935.9345956
928.8043891
931.9783368
938.3709357
935.9122438
933.3417932
942.5507119
952.4525347
964.7012907
981.0180641
993.3338753
993.8479655
978.0229304
958.4875057
953.8383429
960.2756453
961.7061569
956.2076278
950.9773196
948.5186277
939.1755985
923.1493977
914.5663279
920.8024646
922.0318105
915.4380459
912.0852842
917.2485372
920.4671884
911.3476767
907.0784935
912.7781883
916.1756535
911.7723598
905.4244644
909.917165
918.4108279
914.7674936
894.2709439
847.5110945
809.6695911
841.3643648
957.9510639
1202.725017
1562.632807
1936.912768
2222.121027
2419.509282
2548.903531
2480.35073
2162.240703
1689.344846
1296.334123
1157.686252
1097.001266
1044.251149
1020.960631
1011.125864
992.7750817
974.5360583
971.0715379
971.585628
965.5283052
957.9734156
964.5224767
975.4524798
974.6701687
968.4116803
970.1774681
983.7226252
991.791605
986.5836485
988.6623607
1002.475739
1011.595251
1010.56707
1017.09378
1034.997527
1050.464934
1053.594178
1057.259864
1073.241362
1090.38515
1097.627115
1105.696095
1123.532787
1146.577435
1164.235313
1177.64636
1203.216756
1234.710364
1256.145687
1272.350701
1299.150443
1332.074563
1360.371871
1382.723615
1408.986915
1444.749706
1478.836117
1500.047922
1520.052733
1543.298548
1562.766917
1568.019577
1566.432603
1570.567676
1566.343196
1544.662004
1514.017762
1487.821518
1460.6865
1412.473787
1353.196961
1305.587745
1265.779289
1217.857148
1168.705662
1136.496799
1116.491987
1087.546478
1051.56017
1029.498998
1021.385315
1009.40478
991.3669218
982.2027066
984.2367153
985.8460409
976.5253635
967.8528867
968.4787355
971.8314972
966.2659128
959.426279
964.8801046
977.2406193
978.0005786
969.2610466
969.9763024
979.6099042
978.0005786
969.8868954
970.6915582
982.605038
987.6565322
978.4476135
973.6419885
983.1861834
988.7517677
980.0792909
973.8655059
980.0122356
980.6380845
973.0608431
969.484564
971.0938896
973.0831949
964.9471599
956.1852761
962.7343372
969.5292675
960.9909011
951.1114301
956.0288138
964.7012907
961.4155843
952.2066655
950.8208574
951.1561336
946.5293224
939.309709
939.9802613
948.9209591
951.4467062
943.4894852
939.0638398
944.0035753
952.2960725
944.3388515
936.0463543
944.0482788
949.3009388
940.1590753
933.1182758
935.3981537
941.6119387
940.6955171
936.2698717
944.9199968
958.0851743
967.1823343
973.418471
986.4718898
996.0384364
988.2153259
968.9481221
957.8393051
963.449593
967.1376308
960.2756453
951.9160929
949.4350492
944.0482788
930.123142
917.4273512
918.4555314
925.4069239
919.9530983
909.917165
909.5371854
920.3554297
915.5274529
903.0328277
902.7869585
912.4205604
914.7227901
905.2903539
903.4798626
913.6722581
920.3107262
908.866633
879.0270542
836.6481467
831.6860594
897.0202085
1064.904161
1363.389357
1729.153303
2054.147667
2276.525173
2436.697774
2439.156465
2210.49812
1808.099664
1375.504002
1153.618235
1103.885603
1060.344405
1014.679791
1000.553489
992.3951021
975.8324594
970.3115785
977.1959158
973.8208024
962.3767093
959.8956656
971.7420902
980.2581048
976.1900873
973.7760989
979.9451804
990.7187212
990.9869422
990.9422387
1004.845024
1019.172492
1024.089876
1021.944108
1033.589367
1049.682623
1052.677757
1056.924588
1071.363815
1089.87106
1098.342371
1100.443435
1116.78256
1144.45402
1162.894209
1173.064253
1190.409206
1219.511177
1247.048527
1264.974626
1286.611114
1323.71501
1357.510848
1380.264924
1407.668162
1443.565064
1477.003274
1497.164547
1513.34721
1541.577463
1570.858249
1584.895144
1582.749377
1588.382016
1592.986476
1579.575429
1554.161495
1530.848626
1505.725265
1466.363843
1410.082151
1357.28733
1317.724743
1272.998902
1218.505349
1170.449098
1142.330604
1114.413275
1077.175269
1048.475629
1037.500922
1028.649632
1012.466969
995.5690498
992.6856747
999.5476603
995.2784771
981.2192298
980.4592705
990.4505003
988.3047328
977.7994129
980.3922153
989.7575962
992.1939364
981.6215612
979.3640351
989.4446718
993.624448
991.0539974
988.0141602
993.2221166
999.2794394
991.8810119
983.2979421
988.818823
993.5573928
986.6060003
978.8722967
981.5992095
989.4223201
987.3883113
976.7265292
975.3854245
985.4660613
986.628352
976.5030118
971.8314972
975.3407211
970.2221716
958.6216162
953.3242528
958.8674854
962.309654
950.9996713
944.115334
946.7304881
950.8655609
944.9647003
936.158113
937.0074793
943.5565404
939.1979503
931.6430606
933.1629793
939.4885229
937.7897904
934.9958223
940.6061102
953.3466045
953.480715
958.9345406
976.2347908
994.6302765
995.5690498
974.0219681
961.4826395
964.7236424
966.0647471
957.2805115
954.9112266
958.1298778
953.1007353
935.3534502
919.193139
917.963793
921.4059617
916.3097639
904.6645051
907.1902522
916.8238541
915.0133628
905.3797609
903.9492493
911.1912145
913.2699267
903.6586766
901.3564469
908.7995778
909.3583714
901.1329295
893.913316
868.1194029
819.5490622
818.0514953
910.9453453
1126.639679
1452.505762
1813.732304
2124.153331
2344.720345
2479.724882
2407.81932
2119.213595
1695.536279
1291.506146
1109.115912
1072.749623
1035.355155
1006.58846
987.8576979
972.3902908
960.9238459
961.61675
960.7226802
949.0997731
939.2873572
946.5069707
954.6206539
951.2231888
949.2115318
958.8004302
968.8810669
968.1434593
966.8023547
974.55841
987.8353462
992.1045294
992.5962678
1006.253184
1021.83235
1027.710858
1028.470818
1039.803152
1061.327882
1075.811812
1078.270504
1091.234516
1114.770903
1134.999232
1147.225636
1162.223656
1186.475299
1213.945593
1230.955271
1248.948425
1280.822013
1314.461388
1337.327223
1360.148354
1394.547688
1430.310479
1453.332776
1471.147117
1497.723341
1525.3948
1535.654251
1534.49196
1538.448219
1547.478324
1541.868036
1518.46576
1494.77291
1473.896381
1439.094715
1384.690569
1331.560472
1289.293324
1245.662718
1194.186651
1145.571607
1115.486159
1089.334618
1056.589312
1024.872187
1014.143349
1004.621506
983.0744246
964.3436628
957.7946017
961.7508604
956.9675871
945.255273
944.6517759
954.1289156
952.9442731
943.1989125
940.1590753
949.8820841
954.1065638
944.7635346
944.0035753
956.2523313
959.9627209
952.9442731
948.9209591
954.5759505
962.8907994
957.8840086
952.6760522
959.6497964
966.8694099
962.4437645
953.9053981
955.2465028
961.9296744
961.527343
952.7878109
950.1726568
956.1405726
956.453497
950.6420434
951.0443748
958.2416365
959.4933342
949.9267876
946.6634329
955.402965
957.7275464
948.2951103
941.6789939
947.1551713
949.3009388
941.7907526
931.6877641
930.9501566
935.3534502
931.2183775
921.8977001
922.9258803
928.0667815
923.6411361
916.220357
917.6285169
927.0833048
924.959889
908.2631359
902.8987173
911.2582697
917.092075
913.5604994
914.2981069
920.6683541
937.6333282
949.4797527
953.7265842
960.7673837
959.2921685
945.434087
930.9948601
931.084267
939.5108747
941.0531451
931.7548194
924.3116885
921.9424035
912.6664296
894.3603509
888.057159
894.6062201
894.09213
884.5926386
881.7986705
888.6159526
890.1805747
880.1893449
873.8638012
879.1388129
885.866688
880.703435
873.2603041
878.1106327
884.9279147
877.3953768
839.8444462
783.4286432
779.941771
855.3565568
1025.654498
1329.168836
1707.069779
2058.349795
2286.069368
2453.886265
2503.931821
2315.350153
1912.906994
1430.601052
1165.822287
1090.228688
1033.522312
989.1317474
973.9549129
966.5341337
948.8315521
936.426334
936.1357613
936.8063136
928.4467612
920.3777814
926.5245112
937.3427555
936.3816305
935.3534502
943.9588718
957.0793458
964.9024564
960.4321075
967.4058518
983.1861834
988.9752852
987.4330148
992.1715846
1007.661344
1021.005335
1025.140408
1030.862454
1048.36387
1066.759356
1075.990626
1087.233554
1111.239327
1134.798066
1147.78443
1161.351938
1185.871802
1217.655983
1242.913454
1261.107774
1288.22044
1321.859815
1349.285406
1368.731423
1398.079264
1438.178293
1467.459079
1481.83125
1498.86328
1521.974983
1535.25192
1537.30828
1537.665908
1539.722269
1533.776705
1509.837986
1478.478489
1448.840076
1413.859596
1362.942322
1305.051304
1259.207876
1221.344021
1174.472412
1122.772827
1086.987685
1063.048966
1035.601024
1005.783797
984.4825845
976.0112734
968.1881628
951.379651
943.9588718
947.4010405
946.1940463
935.8675403
930.8607496
937.4098107
940.4049445
932.3359647
925.9657176
933.9452903
942.9530433
938.3262322
928.6926304
930.9054531
938.437991
937.298052
928.5138164
929.0949618
938.0356596
939.309709
931.1289705
930.5254734
939.3544125
942.6624707
932.6265374
928.9384996
937.2533485
938.9297293
931.5089502
924.4457989
930.6372321
937.8568456
932.2018543
924.5352059
928.1785403
935.3310985
933.5653107
927.0162495
929.3631827
936.24752
934.5711392
926.368049
924.6246129
929.4078862
929.7208106
919.193139
918.4555314
927.3068222
928.3573542
921.0930373
914.8569006
919.8860431
922.2106245
913.4710924
906.5420516
909.5595371
914.6110314
906.7879208
900.6188393
907.5478801
911.9735255
904.3515807
898.4060166
901.1776329
912.1523395
914.2757552
908.5313569
915.2815837
940.4049445
958.8004302
954.6877092
945.34468
940.1367235
930.3243077
915.7062668
915.1027697
928.1785403
934.1017525
919.014325
898.5848306
891.7451968
892.4157491
884.816156
874.4225948
874.6461123
880.9046007
877.0153972
869.2146384
872.1650686
879.8987722
877.1942111
871.8521442
875.1154989
881.843374
882.8492025
871.8968477
867.2700366
875.89781
870.6898535
819.7725796
762.6191691
786.6472944
896.0590835
1100.37638
1421.325078
1797.951972
2114.765598
2319.194653
2451.539332
2417.743494
2154.216427
1710.444893
1272.685978
1109.630002
1071.587333
1023.7546
982.8062037
965.282436
963.449593
955.1347441
937.0298311
925.9210141
932.3359647
934.057049
927.7762089
922.9258803
931.8218746
938.259177
933.4312002
934.1017525
949.2562353
962.3767093
960.4991627
958.8227819
969.1045843
984.6390467
986.628352
986.0919101
1000.866413
1018.457236
1027.509693
1031.018916
1045.882827
1069.709786
1083.366702
1085.981856
1100.197566
1124.225691
1145.236331
1158.669729
1179.300389
1213.990297
1244.008689
1260.41487
1282.5878
1314.349629
1349.955958
1374.699339
1393.318342
1424.387267
1457.892532
1474.790451
1486.815689
1508.541585
1528.568748
1531.116847
1523.897233
1519.985678
1516.856434
1500.562012
1463.413413
1424.67784
1388.80329
1344.412725
1285.694693
1230.530587
1188.308142
1150.131363
1105.718446
1064.010091
1039.713745
1020.714762
996.4631196
973.5525815
962.8237442
959.9403691
945.8587701
927.5079879
926.0774763
931.6877641
927.5079879
919.1707872
917.5614616
925.5633861
926.8821391
916.6897436
914.4322174
921.115389
923.5070257
919.8413396
921.0930373
930.0784385
937.2309968
929.7431624
921.3165547
926.1445315
931.084267
924.2222815
913.2922784
915.1251215
923.9540605
922.7247146
919.6178221
926.4574559
937.298052
931.8889298
921.2494995
923.6634879
932.4477234
934.32527
922.7023629
916.5332814
925.6974966
931.2854327
920.0872088
913.4934441
921.115389
922.8364733
912.889947
903.7033801
906.8326243
913.4040372
910.6771243
902.2952202
905.983258
912.107636
904.6868568
899.2553829
901.6470196
907.1902522
903.9492493
892.4604526
888.9735805
899.4565486
899.6353626
885.9113915
883.944438
894.1591852
898.0707405
891.7899003
885.3525979
890.0241125
896.01438
892.6392666
894.9191445
908.2631359
917.3379442
912.979354
920.5565954
940.2037788
948.5633312
940.3155375
923.7752466
921.5847756
922.4564937
918.924918
910.0512755
912.5099674
915.5721564
905.2456504
889.1523944
882.0892432
886.7831095
886.1572607
874.7802227
869.4605076
877.9988739
881.843374
871.4274611
860.7209755
865.8842285
872.8803245
869.7287285
863.0679087
866.4430221
873.5732285
868.3876238
860.2515889
865.1019174
861.9503214
819.5267105
786.7590531
839.7326874
994.67498
1260.951312
1605.123473
1936.577491
2188.504003
2367.675587
2385.758148
2182.938419
1825.109342
1391.75372
1122.348144
1065.239437
1047.872132
1004.688562
967.8975901
948.3845172
947.445744
947.5351509
940.1590753
928.2455955
927.8432641
935.5546159
937.1415898
932.3806682
933.9899938
944.2717963
946.126991
942.7071741
944.1600375
958.9792441
970.3339303
971.0491861
973.507878
987.7235875
999.5253086
1001.604021
1005.582631
1018.323126
1036.159818
1043.781763
1045.905178
1062.356062
1083.076129
1095.526051
1102.902127
1121.744647
1149.192589
1169.398566
1185.424767
1210.883404
1247.406155
1276.485774
1294.300114
1318.149426
1355.834467
1391.150223
1416.340639
1439.742916
1472.689387
1500.494957
1509.435655
1512.855472
1525.148931
1536.816542
1529.462818
1514.084818
1502.663076
1485.228716
1452.639872
1408.182252
1361.690624
1320.049324
1272.127184
1215.912547
1166.694005
1134.395735
1098.96822
1056.924588
1026.816789
1010.43296
994.1832416
970.1104128
952.6537004
950.1950085
948.406869
934.3923252
923.3952669
926.8374356
931.263081
924.4681507
916.6003366
924.5128542
935.0852293
931.5536537
924.7140199
927.9103193
937.2309968
936.6051479
929.4525897
927.2844705
936.7839619
945.3670317
939.4885229
936.7839619
944.6964794
947.9151306
943.0424503
937.4768659
942.8859881
949.5244562
942.6401189
934.5040839
935.1299328
941.1649038
938.2368253
928.6255751
928.4244094
933.7888281
932.8947583
922.8811768
920.0872088
926.7256769
924.3340402
913.2922784
912.3758569
922.1212175
924.3787437
911.6829528
906.0503132
912.9570023
915.7286186
903.3234004
893.5556881
900.3729701
904.061008
895.9920282
887.9454002
890.76172
899.6800661
898.8306998
892.862784
898.2942579
904.7762638
903.7033801
892.2592869
890.1805747
898.7412928
896.1708422
887.1630892
886.0007985
893.5780398
894.1144817
881.5751531
879.6081995
894.5615166
905.11154
900.7082463
903.6586766
928.9161478
949.6138632
946.395212
934.7723049
927.0833048
925.049296
918.142607
910.7441796
915.2815837
924.6916681
915.3039354
895.4108829
886.6489991
888.4147869
884.2797141
872.5450483
870.5780948
879.4740891
880.1222897
870.1310599
862.8220395
869.0134727
872.835621
863.3584813
855.7588882
863.4031848
873.0814902
865.8171732
856.3176818
859.6480918
850.8862079
791.8105473
739.4851136
784.0321403
932.1124473
1190.140985
1536.9283
1907.252003
2190.962695
2380.885468
2479.993103
2385.512279
2074.621865
1614.600612
1221.455779
1082.45028
1040.563111
1001.626373
966.4000233
943.1318573
933.8782351
929.2961275
915.9074325
905.4915196
907.905508
915.8403773
914.0075343
908.1066737
913.4040372
926.4798077
928.1785403
925.7198484
932.6488891
944.6741277
951.5361132
949.2562353
953.6371772
968.6575495
980.0122356
979.0511106
982.6497415
1000.777006
1018.658402
1026.146236
1032.784704
1051.56017
1074.224839
1085.311304
1094.006132
1114.301516
1140.095429
1161.24018
1175.299427
1198.969924
1231.804637
1256.816239
1273.133012
1301.340914
1337.461333
1364.752813
1382.969485
1411.155034
1446.739012
1471.102413
1481.652436
1491.531908
1510.061504
1520.276251
1513.190748
1501.746655
1494.348227
1479.216096
1445.420259
1400.71677
1362.40588
1322.239795
1269.847306
1212.559785
1168.03511
1136.653261
1097.358894
1051.806039
1020.826521
1003.526271
980.2804566
956.8111249
943.9812236
940.5614067
936.7839619
925.4963309
915.169825
916.2650605
916.7344471
911.1018075
904.061008
909.134854
914.0522378
911.8617668
903.6139731
906.2738307
914.7898453
912.5546709
903.9939528
903.7257318
911.3700284
911.6606011
907.7043423
908.1066737
916.3097639
918.9696215
908.95604
902.9434208
910.006572
915.1251215
907.5031766
903.5469179
910.9900488
914.9686593
906.9667348
900.8423568
903.9939528
909.8501098
906.5420516
899.7247696
903.7033801
910.9006418
906.2291272
897.9142783
898.3166097
906.162072
903.5692696
892.4828044
889.9123537
896.1708422
898.8530515
889.979409
883.4526996
889.4206154
890.8287753
883.2515339
876.6577693
882.9162577
886.6266473
878.691778
872.0086064
877.3283216
885.8443363
884.7714525
877.8424117
881.6869118
887.699531
884.1009002
875.7860512
876.0766239
884.0561967
883.0503682
871.2933506
868.7229
871.0698332
873.0814902
872.5450483
875.1602024
886.1796124
890.1135194
900.9764672
918.142607
927.239767
925.1163513
909.8277581
898.5624788
895.9920282
898.9201068
898.7189411
896.5061184
896.796691
895.4108829
881.1728217
861.54799
857.0552894
863.649054
860.9221412
850.9309114
852.6072922
862.866743
862.6432255
854.7083562
849.6121585
854.641301
857.8599522
850.4168213
843.8230567
847.5110945
853.6354725
852.9202167
842.6384142
807.054437
765.4578406
779.1147565
882.0668914
1110.63583
1452.170486
1809.776045
2092.816185
2295.524156
2427.712372
2366.714462
2075.895915
1639.835732
1241.997032
1092.419159
1044.653481
994.0267794
965.1930291
947.9821858
928.7596856
914.7227901
913.5157959
914.5439761
904.932726
894.8297375
903.5469179
914.5886796
912.018229
905.5585749
912.2640982
924.2222815
927.239767
925.6080896
932.9171101
948.8092004
956.542904
954.7324127
962.7790407
981.5098025
992.2162881
990.3163898
999.1006254
1016.825559
1032.404725
1036.293928
1045.212274
1064.367719
1085.758339
1101.359856
1113.429798
1137.636738
1167.275151
