 EMG Channel 
4068.64334
4069.470354
4070.386776
4069.135078
4068.978616
4072.063157
4071.571418
4067.056366
4065.379985
4059.456773
4060.775526
4075.170049
4085.273038
4079.238067
4073.739537
4070.409128
4072.331378
4067.324587
4062.697776
4059.635587
4066.207
4073.560723
4080.579171
4083.954285
4074.365386
4068.933912
4061.066098
4056.104011
4068.710395
4080.266247
4077.271113
4070.632645
4067.101069
4065.268226
4072.040805
4076.377043
4075.684139
4073.13604
4072.979578
4073.985407
4073.359558
4074.477145
4074.477145
4072.197267
4070.029148
4072.979578
4076.779375
4071.191439
4071.102032
4074.320683
4075.617084
4075.773546
4076.734671
4079.014549
4078.008721
4072.689005
4070.163258
4075.81825
4075.237104
4067.88338
4067.324587
4074.03011
4069.470354
4067.928084
4071.72788
4076.712319
4081.182668
4076.220581
4072.756061
4075.259456
4078.723976
4076.041767
4070.766755
4066.497572
4072.063157
4075.170049
4074.074814
4076.958189
4080.243895
4076.891133
4072.510192
4074.700662
4082.054386
4082.590828
4077.561686
4077.829907
4078.187535
4077.673444
4079.126308
4078.433404
4078.3887
4078.478107
4080.087433
4081.003854
4077.338168
4070.945569
4066.363462
4068.77745
4074.991235
4080.981503
4081.450889
4078.567514
4079.841564
4081.517945
4078.343997
4072.197267
4074.007758
4082.255552
4081.517945
4077.472279
4077.427575
4076.265285
4079.193363
4082.032035
4079.841564
4079.416881
4080.422709
4081.428538
4077.137003
4078.098128
4081.897924
4083.887229
4085.116575
0.0
4098.684084
4118.018343
4111.916317
4101.478052
4121.102884
4112.475111
4084.267209
4097.924125
4118.443026
4109.323515
4089.452814
4094.973695
4092.380892
4111.268116
4121.706381
4110.463454
4086.949418
4076.108822
4094.392549
4107.222451
4094.772529
4099.444044
4110.731675
4100.785148
4087.552916
4084.714244
4086.055349
4087.396453
4092.716168
4098.259401
4106.663657
4097.99118
4091.486823
4082.076738
4087.731729
4104.473186
4110.463454
4091.755043
4085.898886
4085.94359
4089.855145
4086.83766
4102.081549
4120.007648
4102.506233
4088.983427
4080.623875
4087.061177
4094.66077
4113.503291
4113.838567
4099.086416
4085.720072
4091.553878
4098.482919
4079.171011
4091.397416
4116.1855
4120.275869
4114.889099
4107.557727
4098.773491
4085.4295
4102.014494
4108.854128
4089.095186
4093.25261
4094.906639
4106.328381
4112.989201
4100.583983
4105.03198
4098.013532
4085.965942
4091.57623
4102.461529
4124.433294
4115.514948
4097.119462
4096.515965
4093.587887
4107.60243
4102.59564
4106.842471
4109.52468
4105.769587
4115.403189
4133.932785
4141.375916
4134.335117
4108.563555
4110.463454
4116.230204
4130.356506
4137.263195
4131.675259
4137.956099
4150.204855
4151.68007
4141.55473
4118.353619
4123.606279
4145.175713
4135.162131
4128.143683
4130.960003
4113.547994
4097.879421
4102.506233
4123.069837
4142.82878
4148.08144
4126.735524
4097.521794
4093.610238
4105.724884
4116.163148
4113.033904
4090.659808
4078.679273
4083.015511
4100.025189
4107.244802
4098.929953
4087.374102
4093.543183
4093.967866
4102.640343
4103.288544
4107.513023
4109.189404
4111.089302
4111.648096
4114.531471
4102.72975
4085.273038
4084.691892
4083.820174
4091.84445
4093.319666
4088.134061
4094.727825
4098.50527
4091.375064
4093.476128
4089.832793
4087.754081
4089.139889
4088.670503
4087.932895
4097.387683
4100.785148
4081.137965
4071.906694
4076.265285
4087.776433
4082.47907
4089.676331
4105.255497
4106.842471
4099.667561
4095.353674
4087.977599
4092.760872
4105.277849
4090.81627
4076.354692
4100.002837
4119.202986
4125.997916
4103.914392
4083.12727
4096.761834
4124.187425
4117.794826
4105.16609
4113.302125
4147.075611
4142.96289
4134.692745
4125.729695
4124.053314
4128.858939
4141.599434
4153.781134
4150.406021
4136.637346
4134.335117
4140.750067
4146.896797
4149.176675
4150.070745
4147.656756
4161.827762
4151.210684
4160.486658
4165.985187
4148.126143
4153.669376
4159.302015
4148.72964
4141.353564
4146.181541
4155.837495
4151.54596
4144.236939
4127.830759
4114.553823
4134.89391
4150.093097
4107.893003
4103.824985
4133.552806
4141.197102
4127.160207
4115.917279
4097.790014
4078.276942
4114.084436
4127.0708
4108.697666
4106.06016
4114.933802
4110.150529
4097.298276
4096.493613
4080.17684
4078.232238
4109.457625
4119.359448
4109.77055
4097.499442
4102.126253
4091.732692
4080.109785
4096.560669
4103.199137
4095.644247
4091.106843
4084.91541
4090.972732
4085.250686
4078.791032
4098.617029
4113.860919
4110.485805
4090.726863
4076.779375
4094.951343
4099.77932
4088.536392
4082.99316
4094.973695
4115.313782
4117.168977
4093.543183
4079.081604
4076.600561
4086.547087
4093.25261
4094.593715
4091.799747
4103.914392
4096.761834
4088.648151
4101.433349
4105.814291
4102.640343
4092.626762
4092.135023
4083.976636
4079.66275
4113.324477
4127.674297
4114.732637
4087.463509
4081.853221
4093.7667
4088.849317
4102.34977
4109.122349
4100.919259
4114.218547
4102.103901
4072.018453
4079.215715
4109.748198
4100.025189
4065.938779
4077.025244
4114.710285
4119.00182
4101.031017
4085.94359
4085.183631
4097.320628
4107.378913
4093.386721
4086.815308
4118.733599
4118.375971
4108.384741
4105.300201
4096.225392
4092.403244
4069.649168
4082.188497
4107.870651
4101.008666
4084.177802
4083.753119
4087.150584
4103.914392
4114.531471
4101.723922
4097.946477
4101.790977
4109.748198
4119.627669
4123.695686
4121.214643
4121.751085
4105.926049
4100.226355
4094.549012
4092.045616
4094.481956
4108.36239
4124.947384
4115.447893
4106.283677
4083.909581
4070.6997
4100.159299
4125.483826
4120.097055
4099.39934
4099.756968
4089.966904
4079.461584
4106.082512
4080.109785
4084.15545
4116.721942
4121.147587
4096.538317
4078.209886
4114.509119
4120.119407
4097.119462
4098.214698
4109.278811
4121.795788
4125.707343
4089.721035
4079.327474
4111.178709
4121.639326
4124.500349
4127.160207
4119.448855
4121.862843
4121.080532
4115.738465
4102.193308
4084.580134
4089.452814
4103.668523
4129.238919
4128.903643
4102.372122
4076.824078
4075.527677
4090.928029
4097.678256
4092.805575
4102.953267
4094.750177
4083.484898
4089.005779
4084.066043
4093.654942
4097.387683
4082.121442
4086.927067
4082.09909
4089.072834
4087.172936
4084.803651
4084.848354
4085.04952
4077.449927
4073.940703
4091.732692
4093.140852
4086.83766
4074.879476
4070.073851
4073.180744
4085.876535
4084.088395
4070.900866
4069.336244
4076.153526
4075.550029
4073.65013
4079.28277
4078.187535
4077.561686
4081.07091
4072.756061
4062.451906
4069.80563
4091.173898
4085.787128
4075.773546
4073.806593
4077.87461
4074.678311
4085.720072
4095.800709
4081.473241
4069.090375
4064.195343
4075.102994
4093.677294
4098.661733
4072.353729
4074.298331
4091.777395
4075.035939
4079.66275
4092.067968
4074.231276
4094.817232
4111.759855
4069.984444
4054.852313
4067.190476
4094.549012
4095.666599
4071.437308
4079.729805
4100.762796
4090.324532
4092.760872
4096.337151
4083.753119
4075.885305
4084.714244
4085.317741
4067.212828
4075.95236
4084.088395
4082.926104
4113.547994
4094.973695
4064.888247
4070.587941
4092.023264
4109.949363
4101.723922
4067.704566
4083.462546
4091.464471
4107.356561
4116.878404
4103.221488
4079.059253
4063.122459
4074.5442
4081.003854
4082.970808
4097.767663
4100.583983
4103.62382
4100.159299
4088.782261
4088.268171
4081.674407
4074.141869
4086.055349
4101.366294
4095.93482
4087.172936
4091.173898
4091.218602
4089.564573
4096.828889
4097.119462
4075.170049
4073.203096
4080.892096
4092.403244
4100.204003
4106.529547
4102.841509
4093.699645
4087.150584
4085.541259
4087.016474
4095.666599
4105.54607
4093.364369
4086.614142
4090.950381
4103.132081
4119.828835
4113.525643
4098.147642
4095.756006
4103.959096
4101.053369
4104.607297
4093.364369
4090.480994
4101.679218
4095.666599
4099.064064
4108.317686
4098.214698
4058.13802
4074.186572
4105.858994
4110.105826
4096.270096
4071.21379
4081.339131
4096.337151
4105.501366
4097.275924
4094.14668
4113.637401
4112.363352
4093.967866
4091.509174
4092.425596
4097.678256
4110.463454
4102.550936
4092.73852
4080.400357
4061.513133
4100.204003
4122.756913
4100.94161
4072.465488
4087.441157
4115.179672
4113.36918
4083.574305
4065.759965
4081.137965
4092.515003
4064.03888
4070.945569
4101.455701
4100.606334
4091.240953
4088.201116
4083.954285
4075.43827
4089.944552
4090.436291
4102.148605
4093.520831
4078.343997
4085.585962
4082.210849
4080.422709
4082.412014
4074.723014
4074.879476
4077.807555
4073.270151
4087.374102
4102.819157
4097.812366
4092.716168
4080.109785
4079.394529
4088.89402
4088.290523
4085.921238
4092.380892
4087.932895
4096.158337
4091.419767
4075.930008
4076.555857
4094.459605
4092.760872
4082.61318
4090.391587
4081.875572
4073.806593
4081.629703
4088.648151
4094.996046
4086.524735
4080.82504
4093.453776
4104.160262
4105.881346
4080.065081
4068.486877
4083.440195
4091.218602
4096.784186
4103.713227
4082.523773
4088.290523
4095.063102
4110.821081
4124.299183
4107.736541
4082.300256
4075.974712
4089.743386
4097.275924
4093.073796
4097.186517
4111.424579
4115.850224
4101.969791
4087.955247
4100.852203
4102.461529
4087.821136
4097.700608
4100.002837
4099.891078
4103.065026
4096.135985
4092.783224
4081.786165
4066.966959
4092.067968
4101.32159
4100.181651
4100.449872
4075.415918
4066.519924
4088.916372
4119.828835
4104.093206
4069.29154
4075.997064
4094.906639
4095.979523
4085.56361
4094.750177
4107.222451
4093.140852
4089.318703
4097.074759
4097.432387
4090.548049
4070.0515
4068.553933
4093.654942
4100.628686
4101.433349
4086.122404
4087.48586
4103.10973
4103.489709
4073.806593
4073.404261
4101.366294
4097.030055
4082.74729
4080.199192
4077.315817
4076.399395
4104.51789
4119.851186
4105.791939
4071.638473
4064.530619
4094.772529
4102.796805
4100.67339
4098.795843
4061.759002
4068.039843
4087.821136
4084.937761
4100.986314
4100.449872
4080.512116
4069.827982
4074.588904
4089.184593
4094.750177
4121.706381
4117.59366
4110.619916
4110.977544
4092.179727
4069.716223
4075.415918
4112.318648
4118.465378
4110.351695
4116.610183
4116.654887
4114.978506
4115.649058
4104.093206
4123.203948
4139.051335
4142.314689
4136.994974
4141.442971
4136.838512
4132.07759
4142.627614
4155.032832
4160.665472
4151.992995
4142.091172
4138.581948
4149.735469
4140.794771
4138.157265
4133.441047
4141.286509
4146.986204
4141.152399
4130.647079
4123.539224
4136.056201
4130.960003
4116.230204
4103.422654
4107.110692
4103.62382
4094.973695
4100.29341
4105.702532
4102.662695
4104.540241
4107.893003
4115.269079
4107.937706
4081.830869
4079.707453
4098.840546
4112.095131
4110.575212
4098.728788
4097.722959
4079.528639
4085.4295
4104.719055
4120.588794
4112.899794
4092.917334
4099.846375
4110.776378
4105.009628
4088.558744
4091.687988
4110.28464
4115.403189
4108.250631
4089.899849
4071.638473
4076.019415
4090.346884
4099.332285
4110.441102
4109.278811
4103.422654
4080.109785
4085.317741
4085.250686
4098.348808
4120.566442
4116.833701
4092.671465
4066.072889
4066.765793
4095.55484
4102.238012
4115.939631
4102.327419
4087.239991
4100.181651
4101.679218
4089.78809
4084.513078
4098.572326
4099.444044
4093.63259
4096.135985
4103.310895
4095.711302
4092.649113
4104.026151
4107.624782
4102.282715
4078.433404
4070.409128
4107.803596
4112.85509
4107.535375
4118.510082
4087.709378
4080.109785
4092.939686
4094.996046
4105.03198
4102.238012
4077.271113
4095.688951
4120.007648
4114.084436
4106.730712
4097.208869
4083.350788
4067.995139
4080.109785
4110.150529
4112.341
4102.21566
4099.01936
4101.031017
4088.446985
4081.07091
4085.273038
4089.430462
4097.722959
4097.499442
4088.491689
4085.4295
4093.654942
4105.054331
4094.14668
4083.12727
4081.920276
4093.990218
4097.208869
4091.643285
4081.137965
4059.613235
4067.816325
4082.61318
4083.037863
4082.903753
4084.91541
4078.76868
4075.639436
4086.882363
4085.630665
4081.585
4078.343997
4097.767663
4087.731729
4066.564627
4064.776488
4069.492706
4078.075776
4092.693817
4068.419822
4057.802744
4075.930008
4071.97375
4081.964979
4090.190421
4076.958189
4074.857125
4078.008721
4065.715261
4081.07091
4086.435328
4071.772584
4067.637511
4062.407203
4084.378968
4099.645209
4100.025189
4085.988293
4056.662805
4076.600561
4090.391587
4079.79686
4076.175878
4083.954285
4078.612218
4065.31293
4061.781354
4062.563665
4070.543238
4069.917389
4077.069947
4082.814346
4059.836752
4031.114761
4043.810552
4076.757023
4085.273038
4085.228334
4075.30416
4063.144811
4069.380947
4070.163258
4067.726918
4085.161279
4082.702587
4060.619063
4072.577247
4081.249724
4081.674407
4075.125346
4068.017491
4063.971825
4072.174915
4079.372177
4083.551953
4091.285657
4080.802689
4082.009683
4082.456718
4069.246837
4058.160372
4072.130212
4080.065081
4072.241971
4090.704511
4086.904715
4060.172029
4063.703604
4085.653017
4094.370198
4085.809479
4076.131174
4069.760927
4084.490727
4096.001875
4091.173898
4086.211811
4080.959151
4065.82702
4056.752212
4072.912523
4103.087378
4097.901773
4075.415918
4089.609276
4084.758947
4075.415918
4073.672482
4086.994122
4086.994122
4097.611201
4100.740445
4094.191384
4110.306991
4098.907602
4093.587887
4094.52666
4087.575267
4088.178764
4096.739482
4116.230204
4101.209831
4099.26523
4087.150584
4087.016474
4087.217639
4079.886267
4081.897924
4077.606389
4069.269189
4084.423671
4082.166145
4084.580134
4067.950436
4059.68029
4064.575322
4076.488802
4061.446078
4071.280846
4093.654942
4068.375119
4052.103049
4052.50538
4075.170049
4085.317741
4049.666709
4039.675479
4059.769697
4086.256514
4085.809479
4101.969791
4086.83766
4072.800764
4062.764831
4047.6327
4041.105991
4080.55682
4079.595694
4067.212828
4058.115668
4073.627779
4076.086471
4076.578209
4082.590828
4076.958189
4052.170104
4040.658956
4057.534523
4075.661787
4088.75991
4080.17684
4082.032035
4092.202078
4081.249724
4060.082622
4042.961185
4054.114706
4089.899849
4088.916372
4077.941665
4070.073851
4085.921238
4087.463509
4069.023319
4065.290578
4069.224485
4078.858087
4083.462546
4079.618046
4091.978561
4090.436291
4085.027168
4074.186572
4078.791032
4080.445061
4075.728843
4072.241971
4108.451797
4116.252555
4076.019415
4071.861991
4093.274962
4114.77734
4113.413884
4096.381855
4090.726863
4100.740445
4093.699645
4101.410997
4104.093206
4089.028131
4116.006686
4117.168977
4116.856053
4104.249669
4109.077645
4096.091282
4087.709378
4111.871613
4106.306029
4090.995084
4087.35175
4086.390625
4097.611201
4115.716114
4109.725846
4085.496555
4092.425596
4082.344959
4079.841564
4084.043692
4103.936744
4089.341055
4082.635532
4110.28464
4067.101069
4069.626816
4115.67141
4105.344904
4098.639381
4105.702532
4090.525698
4059.948511
4094.549012
4126.31084
4114.978506
4099.376988
4068.509229
4074.41009
4084.91541
4102.886212
4094.861936
4092.850279
4106.44014
4088.692854
4072.130212
4086.32357
4104.026151
4093.967866
4097.074759
4096.58302
4089.184593
4084.043692
4108.4965
4125.237957
4099.421692
4093.386721
4084.15545
4066.944607
4059.523828
4085.273038
4125.729695
4117.124273
4090.570401
4104.27202
4114.26325
4109.167052
4087.374102
4076.086471
4090.212773
4112.430407
4083.686064
4077.785203
4102.930916
4090.190421
4095.532488
4092.09032
4107.445968
4107.580079
4101.299238
4083.686064
4082.635532
4066.47522
4066.654034
4119.761779
4115.358486
4095.197212
4093.677294
4085.250686
4100.226355
4094.973695
4090.838622
4094.414901
4089.877497
4091.799747
4107.781244
4100.651038
4096.314799
4105.099035
4089.028131
4071.549066
4090.369235
4095.219564
4095.644247
4115.313782
4131.675259
4105.367256
4082.590828
4060.015566
4070.118555
4094.817232
4125.237957
4104.964924
4090.346884
4090.033959
4108.11652
4111.849262
4090.68216
4080.288599
4078.679273
4081.294427
4075.81825
4110.530509
4137.464361
4125.684992
4111.6928
4078.858087
4045.799857
4043.631738
4117.571308
4130.043582
4108.205927
4091.822099
4084.66954
4090.972732
4080.042729
4084.043692
4116.69959
4126.444951
4111.759855
4085.518907
4088.223468
4105.501366
4089.452814
4079.14866
4101.209831
4108.675314
4123.181596
4109.792901
4112.564518
4125.28266
4118.398323
4125.953212
4124.410942
4128.054276
4143.275814
4149.579006
4134.916262
4135.229186
4177.675149
4167.683919
4148.059088
4147.097963
4153.311748
4164.219399
4168.980321
4187.599324
4202.731455
4188.001655
4179.35153
4187.241696
4202.999676
4227.586595
4241.064696
4236.259071
4221.931603
4229.330031
4237.153141
4229.866472
4249.31249
4255.481572
4269.473764
4295.871174
4288.942133
4262.343557
4265.942188
4276.425156
4296.653485
4300.810909
4269.29495
4268.53499
4316.613593
4316.479482
4277.453336
4266.47863
4290.529107
4269.607874
4262.63413
4300.43093
4323.185006
4309.282221
4249.066621
4239.723592
4290.283238
4284.494136
4226.290193
4223.652688
4244.708031
4255.347461
4233.845083
4212.767388
4187.286399
4155.792791
4160.978396
4190.169774
4220.903423
4197.67996
4160.374899
4143.633442
4122.667506
4122.131064
4121.549919
4106.797767
4089.341055
4120.611146
4106.283677
4113.704457
4107.781244
4078.589866
4076.198229
4089.676331
4079.394529
4074.231276
4105.501366
4107.267154
4080.892096
4071.750232
4064.307101
4065.044709
4099.667561
4118.308916
4099.220526
4065.335282
4072.62195
4100.181651
4095.599544
4084.289561
4071.057328
4042.089467
4081.786165
4124.612108
4119.359448
4089.139889
4066.117593
4064.865895
4080.467413
4089.832793
4103.936744
4078.835735
4068.039843
4096.270096
4096.44891
4039.451961
4063.90477
4116.453721
4118.219509
4085.340093
4072.644302
4079.595694
4077.896962
4082.590828
4104.227317
4084.714244
4071.616122
4105.143738
4087.307046
4086.435328
4084.580134
4065.670558
4082.814346
4119.359448
4103.534413
4077.22641
4079.528639
4089.586924
4089.072834
4079.729805
4088.670503
4075.102994
4078.679273
4096.650076
4098.035884
4095.666599
4098.348808
4076.46645
4063.100107
4063.793011
4097.745311
4110.597564
4088.782261
4077.204058
4075.974712
4056.439287
4045.531636
4082.546125
4134.223358
4108.630611
4061.334319
4101.723922
4119.448855
4130.669431
4114.196195
4092.291485
4075.237104
4083.596657
4097.745311
4099.846375
4094.124328
4097.722959
4109.52468
4105.121387
4097.432387
4083.12727
4103.042674
4096.605372
4123.293355
4109.591736
4098.393512
4094.772529
4093.63259
4102.841509
4118.823006
4098.304105
4097.566497
4099.376988
4082.814346
4085.921238
4104.204965
4135.162131
4130.311803
4094.705474
4090.324532
4093.587887
4093.163203
4081.964979
4085.608314
4109.189404
4109.144701
4099.108767
4088.491689
4081.406186
4131.876425
4126.735524
4093.967866
4071.504363
4095.778357
4088.715206
4088.290523
4117.750122
4123.159244
4088.424634
4087.932895
4081.853221
4080.266247
4121.684029
4112.363352
4103.802634
4112.609221
4103.132081
4111.6928
4131.965832
4129.842416
4114.330305
4100.516927
4085.94359
4093.520831
4107.937706
4094.437253
4112.184538
4116.096093
4084.848354
4094.861936
4121.30405
4116.610183
4099.689913
4084.110747
4077.539334
4116.006686
4130.602375
4114.464416
4111.31282
4111.96102
4117.191329
4127.853111
4126.891986
4125.349715
4133.262233
4128.590718
4153.423506
4167.840382
4144.706326
4129.864768
4141.867655
4147.299128
4150.584835
4146.80739
4141.912358
4141.152399
4140.548902
4122.064009
4129.820064
4127.674297
4124.567404
4117.101922
4091.084491
4110.776378
4124.857977
4116.118445
4119.359448
4104.361427
4107.557727
4113.74916
4104.830814
4127.719
4153.870541
4104.763759
4080.288599
4089.072834
4107.848299
4138.112561
4126.512006
4107.893003
4087.172936
4071.437308
4109.479977
4143.722849
4117.303087
4101.634515
4095.577192
4108.965887
4125.930861
4131.652907
4106.663657
4080.17684
4103.802634
4130.937652
4109.792901
4077.427575
4078.634569
4097.566497
4127.20491
4130.602375
4136.860864
4123.583928
4090.793918
4081.853221
4096.940648
4100.271058
4103.042674
4106.395436
4101.634515
4099.220526
4100.740445
4116.453721
4135.27389
4091.822099
4099.39934
4098.438215
4103.668523
4079.774508
4111.804558
4152.931768
4116.274907
4106.171919
4102.707398
4096.113634
4095.376026
4094.370198
4124.098018
4124.500349
4099.041712
4107.669486
4084.66954
4066.832848
4112.363352
4144.996899
4145.555692
4106.887174
4102.975619
4083.820174
4112.698628
4135.542111
4109.234108
4104.607297
4099.086416
4101.343942
4108.11652
4094.817232
4093.721997
4120.566442
4126.623765
4093.297314
4074.767718
4082.367311
4095.845413
4091.687988
4104.763759
4112.922145
4099.824023
4087.552916
4064.41886
4089.274
4118.398323
4096.337151
4073.091337
4088.201116
4105.434311
4113.302125
4095.085453
4086.010645
4081.339131
4095.063102
4091.397416
4082.054386
4116.900756
4101.276887
4101.589811
4089.206945
4061.960168
4097.052407
4109.278811
4073.806593
4094.481956
4107.647134
4097.946477
4079.841564
4088.849317
4085.608314
4084.714244
4081.71911
4101.142776
4102.796805
4090.592753
4070.967921
4086.055349
4095.912468
4101.165128
4131.630556
4093.945514
4075.661787
4086.502384
4076.824078
4078.008721
4078.343997
4110.374047
4127.249614
4087.530564
4069.783279
4071.370253
4104.987276
4096.940648
4105.456663
4099.600506
4095.599544
4105.456663
4099.086416
4080.981503
4074.097165
4087.955247
4107.445968
4099.846375
4080.266247
4095.308971
4087.932895
4078.008721
4081.294427
4104.27202
4113.838567
4069.15743
4046.157485
4063.39068
4086.480032
4100.516927
4120.879367
4096.337151
4072.130212
4085.295389
4091.620933
4075.05829
4075.192401
4083.909581
4107.60243
4114.12914
4104.27202
4068.218657
4068.039843
4079.327474
4093.1185
4096.650076
4085.004817
4094.884288
4082.99316
4069.045671
4073.940703
4092.425596
4106.842471
4091.173898
4079.349825
4105.322552
4088.983427
4082.143793
4094.325494
4090.972732
4080.422709
4077.919314
4066.788145
4071.616122
4095.04075
4103.467358
4093.409073
4096.359503
4102.662695
4104.003799
4079.215715
4076.667616
4075.840601
4075.482974
4093.878459
4095.487785
4093.63259
4093.967866
4074.208924
4059.277959
4093.923163
4098.728788
4073.091337
4080.467413
4112.877442
4106.618954
4098.50527
4082.635532
4071.951398
4078.232238
4073.918351
4067.324587
4106.328381
4092.582058
4079.908619
4098.773491
4084.870706
4080.82504
4080.668578
4088.044654
4091.062139
4087.396453
4077.785203
4087.575267
4083.306084
4095.599544
4107.647134
4125.908509
4120.901718
4070.923218
4066.765793
4091.665636
4093.207907
4080.243895
4105.501366
4117.772474
4123.36041
4116.833701
4098.862898
4087.843488
4088.37993
4100.449872
4099.511099
4116.721942
4121.147587
4110.731675
4102.86386
4089.139889
4085.94359
4096.44891
4106.775416
4091.911506
4094.303142
4085.94359
4085.697721
4090.145718
4112.430407
4117.616012
4101.522756
4093.051445
4115.380837
4107.714189
4093.923163
4091.620933
4101.276887
4112.363352
4097.119462
4096.806538
4082.076738
4054.29352
4096.493613
4137.687878
4112.117483
4099.108767
4118.241861
4107.736541
4101.567459
4095.219564
4093.721997
4110.463454
4134.89391
4128.747181
4090.235125
4080.914447
4112.85509
4120.477035
4129.50714
4134.268061
4114.084436
4086.100052
4086.480032
4112.765683
4113.033904
4106.596602
4076.309988
4098.88525
4122.622803
4118.152454
4114.799692
4108.004762
4089.251648
4071.660825
4095.17486
4123.919204
4126.668468
4110.239936
4112.877442
4110.172881
4121.81814
4101.634515
4095.197212
4104.964924
4117.258384
4106.708361
4100.181651
4083.864878
4057.914502
4082.121442
4154.339928
4166.745146
4125.483826
4111.804558
4101.858032
4106.238974
4106.037808
4131.027058
4166.02989
4122.153416
4096.203041
4119.471207
4128.09898
4136.659698
4140.52655
4151.814181
4144.259291
4138.313727
4153.132934
4169.919094
4185.63237
4165.046414
4122.287526
4145.175713
4172.467193
4183.263085
4180.714986
4164.845248
4173.093042
4194.908344
4200.161004
4181.094966
4173.763594
4175.238809
4174.121222
4162.922998
4180.536172
4195.064806
4202.41853
4181.966684
4188.515745
4190.482699
4199.713969
4189.968609
4164.018233
4196.897649
4231.900481
4213.281478
4189.85685
4192.919039
4201.77033
4207.648838
4211.38158
4224.859682
4220.121112
4206.12892
4186.615847
4200.719798
4248.865455
4244.462162
4242.741077
4245.199769
4226.714876
4217.14833
4232.638089
4240.885882
4232.101647
4221.328106
4241.645842
4259.102554
4251.502961
4242.159932
4234.493284
4234.381525
4245.199769
4269.719633
4257.090897
4235.208539
4226.848987
4234.694449
4250.988871
4272.223028
4282.683645
4276.380453
4244.417458
4234.0686
4266.009243
4269.42906
4243.299871
4230.157045
4268.557342
4279.107366
4265.405746
4252.173513
4241.668194
4272.021863
4274.368796
4259.773107
4277.743909
4275.531086
4270.658406
4250.363022
4241.310566
4264.1764
4292.406653
4293.77011
4262.589426
4257.828505
4255.638034
4263.237627
4288.65156
4295.513546
4260.823639
4274.30174
4285.611723
4264.55638
4270.770165
4287.48927
4257.582636
4253.425211
4261.896522
4284.628246
4297.011113
4296.72054
4256.755621
4259.102554
4273.944113
4272.915932
4276.22399
4264.846953
4231.565205
4218.377676
4270.747813
4294.083034
4292.451357
4292.697226
4270.345482
4267.596217
4253.469915
4245.289176
4264.288159
4276.067528
4262.611778
4243.836313
4278.950903
4288.718616
4255.481572
4223.496225
4215.047266
4251.033574
4270.45724
4261.158915
4246.295005
4267.931493
4270.568999
4242.763429
4235.096781
4238.047211
4272.960636
4286.148165
4261.449487
4223.04919
4234.292118
4273.050043
4271.172496
4228.771237
4258.186133
4297.502851
4269.205543
4252.888769
4253.805191
4262.522371
4244.618624
4222.512749
4220.143464
4260.018976
4277.028653
4262.097688
4263.28233
4230.067638
4208.989943
4229.419438
4252.844066
4235.409705
4224.390295
4256.822676
4252.106458
4234.493284
4257.672043
4247.636109
4224.859682
4226.826635
4233.286289
4239.70124
4209.906365
4228.011278
4238.091914
4247.591406
4239.70124
4211.985077
4211.336876
4236.817865
4234.403877
4244.752734
4274.122926
4263.081165
4200.406873
4178.278646
4204.966629
4221.261051
4210.465158
4215.583708
4217.79653
4198.417568
4178.412757
4182.458422
4184.894763
4174.188277
4160.866637
4159.838457
4161.894818
4165.761669
4162.788887
4138.581948
4104.070855
4143.722849
4167.393347
4136.771457
4138.22432
4121.393457
4112.586869
4091.263305
4087.463509
4093.096148
4116.006686
4122.376933
4103.199137
4092.515003
4052.058345
4058.830924
4103.646172
4134.7598
4137.665527
4122.153416
4071.72788
4057.646281
4097.790014
4096.650076
4101.031017
4114.330305
4081.763814
4080.601523
4113.011552
4126.802579
4117.571308
4097.186517
4054.584092
4061.334319
4110.754026
4131.764666
4124.366239
4115.269079
4108.384741
4104.495538
4096.784186
4081.517945
4068.26336
4064.351805
4109.614087
4129.395381
4125.66264
4098.862898
4080.132136
4075.415918
4104.607297
4105.970753
4104.182613
4106.395436
4089.676331
4046.023374
4082.054386
4121.81814
4117.45955
4105.657829
4089.452814
4060.686119
4071.861991
4102.372122
4096.225392
4089.475166
4096.135985
4092.112671
4092.872631
4088.268171
4095.197212
4107.937706
4108.764721
4102.170956
4076.064119
4067.279883
4087.530564
4102.483881
4107.267154
4127.406076
4117.727771
4082.456718
4076.019415
4080.378006
4096.605372
4100.785148
4097.432387
4115.783169
4101.142776
4075.661787
4071.638473
4089.475166
4130.691782
4132.524625
4100.405169
4079.349825
4102.483881
4101.142776
4071.012625
4079.774508
4125.14855
4134.7598
4116.900756
4089.676331
4094.213735
4094.839584
4097.34298
4118.10775
4123.203948
4097.164166
4081.629703
4101.410997
4117.414846
4108.429445
4088.290523
4094.839584
4122.421637
4110.374047
4087.508212
4083.261381
4088.603448
4089.810442
4137.799637
4139.297204
4081.473241
4066.363462
4131.764666
4141.510027
4100.181651
4084.803651
4072.800764
4089.296352
4123.583928
4099.242878
4099.175823
4096.627724
4092.60441
4097.611201
4113.905622
4117.236032
4096.270096
4085.653017
4083.842526
4101.142776
4098.50527
4109.971715
4113.436236
4103.288544
4097.208869
4096.314799
4088.37993
4087.888192
4107.356561
4110.619916
4101.70157
4095.04075
4104.160262
4108.384741
4106.171919
4115.5373
4098.617029
4090.793918
4091.57623
4107.580079
4110.79873
4094.705474
4080.579171
4081.540296
4093.7667
4107.893003
4112.877442
4102.819157
4110.955192
4110.642268
4102.081549
4086.83766
4101.723922
4086.010645
4066.117593
4089.430462
4133.664564
4125.215605
4113.570346
4114.665582
4129.618899
4130.758838
4108.161224
4088.178764
4065.536447
4082.47907
4141.733544
4114.442064
4084.893058
4096.940648
4098.460567
4088.715206
4052.058345
4084.244857
4136.011497
4140.615957
4124.142721
4096.158337
4085.317741
4089.363407
4124.925032
4144.438105
4135.877387
4130.40121
4128.188387
4103.824985
4104.316724
4104.696704
4114.77734
4121.728733
4118.62184
4106.104863
4117.392494
4134.983317
4133.530454
4128.836588
4098.862898
4105.143738
4108.675314
4118.666544
4153.825838
4139.2525
4083.596657
4082.702587
4153.155285
4148.908454
4111.424579
4097.946477
4085.451852
4120.566442
4132.681088
4131.5635
4136.793809
4103.601468
4111.581041
4101.478052
4108.898831
4139.051335
4145.980376
4134.223358
4113.950326
4102.997971
4135.78798
4123.986259
4108.36239
4125.975564
4135.944442
4129.529492
4125.774399
4108.541204
4112.184538
4137.464361
4155.926902
4104.249669
4083.619008
4113.592698
4112.653925
4110.686971
4106.730712
4117.146625
4149.914283
4170.76846
4122.868672
4089.676331
4074.074814
4103.087378
4141.510027
4127.964869
4111.536337
4117.012515
4123.427465
4119.225337
4107.445968
4085.161279
4102.573288
4131.518797
4125.550881
4108.764721
4073.627779
4119.940593
4129.50714
4137.442009
4130.870596
4102.796805
4092.023264
4085.787128
4120.298221
4146.270948
4123.047486
4092.984389
4091.553878
4114.553823
4122.578099
4119.582965
4110.754026
4099.891078
4097.544145
4102.662695
4132.546977
4126.087323
4099.958134
4105.68018
4114.375009
4123.8745
4103.489709
4089.050482
4115.470244
4120.499387
4112.676276
4123.427465
4110.351695
4077.628741
4085.921238
4123.382762
4145.734506
4151.054222
4113.927974
4098.572326
4096.203041
4090.726863
4106.328381
4139.699535
4120.92407
4100.539279
4103.020323
4119.00182
4105.702532
4109.055294
4117.906584
4125.260308
4095.308971
4103.512061
4152.529437
4123.718038
4082.188497
4084.311913
4117.07957
4116.163148
4105.233145
4136.145608
4125.640288
4086.144756
4087.463509
4112.139834
4130.512968
4128.054276
4110.686971
4120.365276
4108.742369
4112.586869
4118.554785
4096.873593
4074.611255
4077.092299
4118.800654
4160.687823
4135.877387
4100.248706
4088.581096
4100.338113
4098.572326
4099.354637
4108.988238
4137.821989
4135.095076
4122.868672
4126.489654
4119.761779
4097.275924
4113.592698
4140.638309
4145.600396
4149.355489
4160.017271
4140.370088
4128.188387
4111.871613
4099.064064
4139.923053
4158.497352
4144.594567
4124.723867
4114.64323
4118.554785
4128.858939
4126.243785
4108.563555
4087.508212
4099.086416
4118.174805
4131.831721
4137.285547
4134.201006
4122.041657
4103.914392
4091.777395
4089.721035
4139.364259
4147.500294
4115.939631
4090.235125
4114.017381
4106.730712
4112.095131
4110.441102
4104.294372
4135.497407
4118.644192
4095.152509
4143.052297
4124.76857
4092.045616
4073.046633
4101.254535
4122.868672
4133.843378
4110.642268
4097.186517
4093.207907
4097.700608
4111.6928
4111.335172
4110.061122
4111.6928
4119.851186
4123.203948
4130.647079
4117.884233
4083.306084
4083.373139
4094.638419
4095.398378
4123.516872
4121.30405
4113.033904
4110.41875
4122.511044
4117.168977
4106.887174
4103.869689
4101.790977
4094.213735
4125.28266
4121.81814
4088.916372
4075.482974
4094.571363
4095.487785
4129.551843
4122.868672
4122.153416
4113.547994
4101.992142
4085.854183
4095.152509
4103.735579
4082.143793
4072.845468
4110.754026
4121.013477
4125.103846
4129.842416
4097.611201
4096.44891
4105.970753
4109.412922
4087.776433
4099.39934
4096.225392
4086.927067
4105.479015
4115.15732
4109.90466
4111.625744
4102.34977
4104.316724
4105.255497
4075.43827
4101.075721
4133.73162
4101.70157
4066.162296
4116.431369
4161.514838
4140.280681
4099.801671
4090.346884
4089.989256
4078.76868
4104.562593
4110.351695
4116.766646
4108.831776
4123.673335
4146.025079
4102.774453
4090.16807
4096.515965
4085.608314
4079.14866
4107.513023
4129.708306
4113.905622
4120.722904
4110.128177
4100.852203
4081.137965
4094.817232
4123.852149
4132.211701
4104.920221
4105.702532
4109.211756
4125.349715
4128.501311
4093.453776
4069.939741
4074.231276
4122.913375
4135.430352
4083.708415
4087.172936
4112.765683
4147.790867
4130.177692
4105.993105
4079.998026
4052.661842
4107.803596
4154.205817
4143.99107
4117.839529
4096.717131
4087.217639
4134.223358
4120.387628
4079.28277
4100.963962
4125.729695
4128.277794
4115.827872
4102.014494
4105.322552
4118.10775
4090.905677
4082.300256
4113.547994
4135.095076
4072.353729
4086.167107
4148.506123
4145.890969
4087.843488
4055.70168
4094.057273
4149.75782
4132.725791
4081.741462
4108.161224
4158.586759
4111.737503
4062.675424
4057.869799
4105.993105
4161.358376
4149.310785
4129.328326
4140.079515
4108.652962
4073.896
4082.859049
4104.584945
4116.677239
4140.593605
4128.076628
4102.014494
4105.993105
4119.828835
4086.502384
4064.083584
4082.523773
4105.948401
4118.912413
4133.016364
4094.996046
4105.300201
4107.513023
4086.167107
4086.100052
4115.716114
4112.944497
4112.296297
4108.965887
4076.645264
4105.389608
4121.080532
4108.943535
4083.216677
4112.028076
4104.987276
4102.796805
4111.424579
4100.136948
4098.237049
4110.619916
4110.083474
4102.036846
4119.00182
4101.790977
4102.483881
4111.759855
4105.479015
4090.078663
4095.778357
4131.965832
4119.068875
4093.342017
4083.417843
4104.607297
4139.140742
4122.376933
4092.939686
4101.902735
4097.767663
4070.677348
4101.925087
4143.029945
4123.271003
4110.642268
4109.815253
4106.373084
4106.328381
4119.985297
4105.993105
4083.484898
4131.541149
4194.237792
4189.722739
4158.251483
4138.447838
4102.528584
4088.782261
4145.756858
4205.167795
4163.45944
4087.239991
4092.179727
4168.756803
4204.877222
4123.986259
4126.333192
4155.993957
4141.644137
4119.851186
4121.996954
4145.26512
4135.765628
4132.032887
4154.429335
4125.394419
4125.774399
4162.878294
4158.117373
4161.760707
4117.906584
4119.694724
4152.708251
4143.812256
4122.354582
4098.684084
4159.704347
4207.224155
4168.265065
4087.48586
4080.020378
4140.794771
4170.656701
4175.998768
4122.309878
4091.240953
4141.912358
4180.267952
4150.070745
4149.400192
4124.612108
4127.607242
4152.842361
4129.462436
4141.42062
4123.807445
4117.45955
4137.687878
4160.464306
4157.178599
4119.605317
4110.061122
4149.579006
4144.639271
4126.489654
4095.93482
4080.69093
4172.04251
4208.252336
4194.550716
4138.358431
4115.246727
4113.972677
4122.578099
4131.876425
4150.406021
4139.49837
4141.42062
4131.183521
4146.159189
4139.766591
4133.083419
4145.846265
4181.184373
4154.049355
4136.994974
4106.753064
4106.328381
4124.723867
4195.824766
4174.724719
4107.133044
4129.216567
4150.741297
4148.08144
4160.12903
4125.506178
4130.647079
4139.543073
4146.181541
4143.320518
4136.525588
4125.059143
4150.316614
4143.968719
4144.952195
4146.941501
4170.321425
4154.831666
4142.649966
4093.319666
4104.808462
4167.974492
4196.182394
4157.737393
4115.067913
4099.444044
4175.663492
4169.025024
4164.308806
4177.138707
4169.941446
4189.588629
4192.963742
4141.979413
4134.603338
4178.144536
4153.892893
4131.295279
4160.978396
4174.09887
4153.445858
4132.07759
4112.698628
4152.104754
4167.30394
4158.229131
4160.106678
4147.723812
4174.09887
4173.607132
4158.005614
4136.726753
4114.307954
4117.347791
4152.462381
4182.883106
4182.391367
4182.011388
4125.28266
4118.890061
4167.125126
4160.061975
4168.130954
4190.728568
4143.924015
4142.560559
4149.310785
4138.626652
4142.985242
4153.222341
4194.573068
4186.213516
4158.34089
4146.025079
4162.587722
4143.253463
4135.27389
4132.07759
4169.516762
4189.007484
4184.246562
4169.919094
4142.06882
4126.780227
4119.918241
4154.094059
4175.462326
4163.59355
4157.133896
4138.112561
4150.316614
4162.543018
4187.04053
4178.010425
4157.916207
4123.494521
4134.871559
4166.074594
4184.179507
4142.091172
4112.810387
4142.940538
4150.718945
4141.152399
4138.09021
4162.69948
4186.548792
4123.718038
4101.634515
4173.383614
4186.839364
4174.61296
4191.242658
4159.570236
4086.435328
4106.931878
4144.438105
4176.825783
4165.962835
4154.384631
4180.469117
4218.198862
4176.892838
4144.773381
4147.589701
4124.835625
4144.460457
4148.483771
4184.961818
4172.109565
4144.527512
4132.926957
4173.763594
4198.283458
4163.660605
4127.383724
4155.323405
4146.449762
4161.0231
4157.893855
4157.916207
4160.978396
4183.441899
4185.63237
4171.751937
4181.094966
4154.697556
4170.857867
4154.943425
4175.328216
4234.850911
4178.189239
4141.688841
4184.179507
4201.367998
4179.463289
4171.439012
4191.019141
4223.987964
4242.405801
4152.44003
4120.186462
4185.721777
4213.840272
4185.565315
4138.112561
4181.005559
4175.976417
4146.67328
4180.513821
4169.494411
4154.004652
4174.881181
4161.939521
4190.125071
4168.801507
4137.732582
4108.049465
4163.906475
4172.891876
4167.974492
4146.941501
4165.739318
4207.224155
4184.783004
4147.343832
4105.881346
4130.490617
4150.808352
4198.529327
4206.799472
4148.416716
4159.23496
4167.080422
4146.494466
4174.188277
4130.960003
4113.480939
4145.332175
4137.799637
4160.509009
4155.569274
4170.410832
4171.908399
4199.356341
4159.257312
4106.529547
4118.599489
4185.230039
4210.375751
4149.824876
4136.570291
4173.495373
4132.479922
4166.901608
4196.785891
4217.014219
4218.444731
4104.853166
4066.005834
4185.855888
4165.404041
4120.92407
4234.44858
4201.233888
4125.483826
4150.964815
4159.279663
4161.939521
4168.19801
4133.418695
4127.249614
4154.630501
4178.368053
4175.059995
4137.419657
4114.822044
4182.659588
4167.236885
4183.173678
4171.103736
4140.705364
4125.550881
4177.29517
4163.839419
4174.411794
4142.135875
4087.239991
4165.560504
4214.175548
4177.473983
4193.790757
4141.353564
4082.300256
4169.248542
4216.030743
4174.300036
4136.235015
4136.324422
4136.570291
4168.130954
4171.66253
4199.155176
4173.651835
4148.72964
4161.224265
4156.150419
4164.711137
4180.916152
4165.940483
4113.905622
4151.858884
4205.883051
4151.478905
4168.555637
4176.266989
4153.244692
4163.347681
4170.589646
4138.492541
4130.781189
4175.238809
4212.990905
4168.935617
4113.480939
4155.77044
4204.988981
4178.256295
4148.640233
4114.375009
4122.578099
4223.652688
4181.162021
4115.380837
4088.603448
4186.101757
4231.542853
4160.374899
4105.456663
4135.944442
4202.954972
4176.356396
4140.973585
4140.258329
4158.676166
4153.557617
4169.628521
4146.852094
4105.277849
4149.735469
4185.654722
4159.458477
4133.217529
4132.591681
4142.82878
4196.696484
4175.462326
4083.775471
4100.494576
4149.131971
4163.034757
4180.357358
4180.536172
4113.168015
4084.446023
4186.01235
4182.726643
4129.931823
4155.613977
4162.341852
4103.467358
4071.996101
4178.390405
4185.073577
4180.044434
4178.45746
4107.803596
4077.047596
4140.481846
4199.177527
4215.918984
4190.549754
4122.421637
4106.551898
4146.382707
4170.187315
4170.366129
4195.534193
4191.890859
4158.027966
4168.667396
4208.766426
4151.143628
4127.160207
4146.181541
4168.756803
4170.187315
4201.189184
4202.396179
4202.217365
4155.792791
4079.908619
4104.249669
4198.015237
4204.631353
4198.171699
4188.247524
4142.404096
4110.731675
4104.316724
4175.618789
4213.169719
4140.459495
4113.860919
4162.766536
4151.836533
4130.691782
4155.077536
4144.952195
4141.42062
4154.608149
4156.552751
4134.558634
4086.882363
4080.445061
4168.555637
4200.093949
4170.880219
4180.200896
4166.275759
4147.679108
4177.965722
4154.339928
4161.090155
4212.387408
4162.252445
4109.52468
4110.28464
4156.373937
4117.258384
4128.47896
4190.773271
4183.777175
4131.116465
4082.456718
4154.541094
4201.032722
4193.656646
4105.233145
4072.48784
4161.201914
4218.489435
4128.791884
4118.890061
4145.645099
4128.769532
4167.30394
4202.910269
4163.191219
4147.790867
4137.754934
4175.462326
4201.949144
4212.946202
4190.75092
4159.413774
4170.075556
4232.90631
4217.483606
4206.017161
4165.269931
4159.480829
4216.790702
4232.794551
4221.37281
4214.890804
4238.024859
4239.477723
4188.180469
4183.240734
4201.658571
4237.421362
4238.874225
4226.670173
4201.166833
4180.156193
4210.10753
4278.213296
4234.739153
4167.549809
4198.082292
4217.975344
4193.164908
4192.650818
4166.231056
4172.266027
4231.609909
4195.087158
4149.176675
4128.680125
4200.317466
4208.229984
4163.414736
4125.260308
4133.709268
4128.523663
4161.648948
4103.869689
4107.043637
4150.249559
4134.715096
4093.409073
4081.182668
4151.076573
4186.079405
4134.983317
4076.265285
4087.105881
4097.231221
4142.359393
4168.108603
4143.566387
4085.56361
4106.820119
4091.84445
4120.566442
4137.240843
4098.862898
4124.612108
4124.410942
4130.177692
4121.415808
4134.223358
4160.307844
4096.828889
4086.524735
4128.501311
4136.458532
4092.716168
4133.105771
4128.635422
4126.243785
4087.239991
4048.14679
4102.528584
4180.625579
4192.561411
4097.454738
4105.590773
4093.900811
4102.081549
4159.503181
4156.016309
4120.074704
4171.550771
4144.840437
4118.800654
4115.045561
4183.844231
4172.802469
4141.93471
4146.069783
4192.762577
4191.712045
4210.979248
4215.762522
4210.778083
4125.819102
4135.542111
4223.272708
4233.800379
4201.882088
4192.695521
4224.122074
4214.577879
4256.822676
4203.290248
4232.503978
4254.363984
4216.008391
4248.708993
4213.460292
4209.97342
4242.674022
4240.841179
4254.408688
4230.648784
4198.462272
4218.310621
4252.061755
4253.000528
4245.46799
4209.414626
4176.110527
4227.765408
4231.587557
4268.40088
4267.327996
4221.819844
4199.490452
4234.783856
4238.985984
4215.270783
4203.938449
4199.512803
4205.346609
4241.265862
4211.538042
4195.958876
4263.818772
4239.723592
4237.220196
4247.032612
4186.369978
4161.447783
4189.320408
4172.511896
4171.640178
4152.104754
4158.922036
4249.133676
4213.057961
4155.457515
4201.077426
4142.627614
4085.116575
4103.467358
4125.28266
4179.306827
4161.917169
4179.798565
4185.006521
4145.689803
4091.620933
4023.001078
4151.970643
4218.534138
4117.683067
4053.310043
4095.93482
4186.101757
4172.5566
4081.339131
4037.328546
4091.620933
4151.233035
4122.242823
4052.304215
4069.202133
4167.728623
4155.457515
4135.832684
4077.964017
4064.485915
4107.557727
4094.884288
4124.545053
4090.860974
4101.142776
4098.907602
4068.956264
4099.846375
4106.44014
4105.054331
4124.857977
4115.090265
4078.656921
4098.684084
4098.013532
4087.955247
4080.981503
4094.571363
4102.081549
4121.393457
4091.464471
4092.425596
4100.405169
4082.188497
4074.320683
4093.856107
4105.501366
4114.576175
4089.855145
4116.744294
4131.787018
4105.188442
4082.903753
4107.065988
4136.525588
4128.791884
4111.31282
4122.041657
4132.524625
4141.264157
4086.055349
4127.786056
4177.831611
4173.160097
4152.596492
4170.701405
4156.262178
4135.743277
4143.879312
4142.873483
4121.460512
4125.260308
4156.172771
4148.662585
4171.371957
4167.505105
4175.439975
4158.027966
4130.289451
4143.588739
4146.42741
4139.453666
4122.399285
4126.668468
4126.221433
4139.453666
4154.786963
4136.503236
4134.580986
4099.555802
4095.890116
4138.626652
4167.95214
4149.735469
4092.358541
4057.355709
4116.856053
4159.793754
4121.259346
4115.447893
4093.476128
4070.789107
4144.102829
4156.910379
4119.13593
4085.585962
4122.086361
4130.803541
4118.912413
4089.9222
4106.596602
4096.538317
4090.615105
4137.397306
4151.367146
4136.525588
4104.450834
4092.60441
4122.645154
4127.696649
4136.905567
4134.312765
4107.043637
4098.169994
4106.015456
4106.037808
4116.766646
4137.598471
4102.483881
4083.686064
4102.975619
4116.610183
4122.376933
4103.445006
4102.372122
4104.987276
4141.197102
4139.788942
4111.6928
4124.321535
4132.502274
4132.211701
4136.905567
4141.085343
4119.158282
4123.762742
4181.40789
4209.839309
4165.00171
4152.775306
4158.027966
4156.910379
4175.797603
4199.378693
4190.549754
4173.785946
4193.18726
4192.449652
4194.349551
4186.995827
4163.995882
4152.417678
4151.121277
4193.008446
4221.909251
4206.620658
4183.106623
4174.702367
4145.466285
4121.795788
4153.937597
4223.384467
4236.37083
4201.591516
4150.629538
4131.496445
4135.050372
4170.187315
4179.977379
4212.78974
4212.253298
4177.205763
4128.948346
4110.128177
4144.393402
4190.661513
4213.460292
4186.459385
4132.122294
4120.074704
4140.370088
4158.810277
4167.594512
4156.820972
4125.28266
4122.309878
4134.960966
4125.506178
4111.245765
4128.009573
4124.790922
4148.34966
4134.536282
4080.065081
4097.566497
4121.929898
4136.436181
4136.391477
4148.304957
4147.83557
4128.791884
4090.972732
4088.75991
4132.770495
4163.302977
4145.39923
4105.434311
4114.531471
4126.132026
4135.005669
4140.14657
4138.805466
4154.205817
4126.757875
4097.722959
4109.435273
4110.977544
4133.105771
4142.96289
4139.140742
4111.625744
4075.482974
4100.181651
4132.010535
4134.24571
4131.04941
4128.23309
4158.184428
4136.950271
4091.620933
4122.868672
4111.335172
4147.924977
4182.056091
4157.379765
4122.242823
4091.285657
4080.065081
4128.076628
4139.386611
4147.83557
4156.329233
4148.908454
4132.368163
4139.565425
4155.52457
4141.130047
4159.257312
4169.539114
4162.587722
4159.525533
4175.261161
4185.408853
4178.524515
4168.756803
4175.797603
4184.201859
4170.500239
4163.615902
4177.898667
4174.456498
4189.186298
4192.270838
4194.72953
4197.635257
4182.257257
4176.334044
4205.279554
4204.609001
4210.956897
4175.037643
4174.165925
4192.114376
4191.600286
4212.454464
4220.657554
4203.379655
4196.025931
4146.226245
4132.97166
4199.781024
4203.513766
4185.900591
4199.33399
4195.668303
4178.368053
4172.109565
4175.305864
4145.131009
4153.892893
4162.610073
4139.811294
4140.459495
4125.774399
4134.424524
4137.509064
4114.531471
4136.056201
4143.141704
4115.202023
4109.882308
4100.069892
4115.5373
4125.215605
4106.708361
4100.29341
4120.857015
4115.738465
4094.750177
4093.811404
4099.600506
4119.962945
4124.656811
4115.202023
4104.294372
4098.37116
4092.336189
4105.03198
4110.016419
4113.637401
4097.119462
4083.50725
4087.374102
4087.061177
4131.42939
4152.216512
4131.161169
4116.409018
4115.582003
4126.422599
4102.170956
4095.152509
4097.566497
4089.676331
4085.697721
4095.957171
4098.281753
4084.378968
4101.634515
4111.849262
4109.949363
4108.340038
4094.616067
4089.519869
4082.032035
4086.368273
4090.078663
4109.971715
4115.716114
4104.987276
4083.104918
4071.325549
4087.35175
4096.091282
4102.752102
4097.007703
4080.802689
4115.313782
4118.219509
4106.507195
4091.173898
4098.326456
4102.327419
4088.916372
4053.578264
4084.937761
4117.347791
4134.648041
4130.53532
4067.88338
4090.056311
4115.716114
4120.007648
4082.791994
4083.998988
4119.113579
4115.134968
4156.753916
4116.788997
4070.207962
4094.101977
4079.774508
4093.006741
4130.647079
4113.927974
4103.959096
4103.579116
4087.597619
4109.90466
4123.248651
4087.776433
4126.154378
4091.419767
4119.761779
4161.313672
4131.228224
4162.498315
4154.317576
4131.496445
4136.324422
4134.7598
4181.340835
4192.136728
4167.706271
4179.507992
4173.696539
4183.173678
4214.667286
4206.240679
4173.987111
4182.950161
4214.622583
4224.412647
4215.248432
4227.854815
4207.850004
4213.683809
4234.649746
4258.208484
4238.538949
4221.730437
4222.713914
4200.675094
4190.437995
4230.112342
4244.283348
4233.666269
4227.698353
4211.89567
4201.323295
4230.380563
4255.861551
4238.606005
4224.189129
4256.4874
4224.300888
4215.762522
4270.054909
4291.177308
4242.785781
4216.008391
4204.184318
4235.744981
4248.172551
4193.299019
4226.960746
4243.143409
4224.97144
4220.031705
4257.783801
4251.637072
4236.817865
4192.941391
4192.047321
4262.343557
4252.397031
4249.670118
4265.673967
4211.493339
4189.432167
4225.597289
4250.363022
4251.413554
4231.945185
4213.683809
4221.037533
4254.922778
4262.075336
4252.955824
4227.430132
4197.814071
4227.318374
4252.218217
4246.853798
4240.975289
4263.259979
4221.618679
4229.799417
4240.617662
4245.959728
4235.163836
4232.280461
4233.845083
4268.557342
4263.327034
4251.23474
4251.279444
4237.533121
4222.602156
4221.685734
4200.585687
4186.034702
4204.988981
4238.717763
4247.546702
4237.600176
4232.995717
4193.991923
4180.692635
4204.72076
4238.091914
4220.814016
4222.043362
4251.480609
4225.396124
4203.469062
4196.562373
4166.40987
4162.543018
4181.162021
4166.052242
4170.477887
4147.70146
4151.188332
4182.592533
4179.977379
4151.210684
4122.399285
4112.832738
4131.697611
4143.611091
4120.588794
4130.647079
4129.238919
4115.760817
4117.414846
4156.195123
4157.424469
4123.986259
4112.475111
4117.951288
4135.340945
4153.490562
4143.745201
4113.88327
4117.683067
4127.450779
4122.71221
4131.742314
4111.983372
4120.834663
4135.229186
4139.453666
4127.294317
4132.815198
4143.298166
4143.320518
4128.702477
4113.726808
4113.324477
4111.178709
4115.716114
4119.00182
4127.942518
4147.209721
4116.274907
4091.978561
4112.363352
4133.552806
4123.628631
4119.717076
4125.774399
4127.406076
4126.266137
4135.966794
4138.403134
4118.554785
4101.075721
4105.635477
4118.353619
4143.052297
4151.814181
4158.072669
4122.891024
4096.895945
4119.359448
4158.139725
4151.613015
4151.322442
4165.716966
4160.732527
4142.940538
4170.097908
4182.078443
4171.66253
4194.438958
4197.657609
4194.394254
4172.04251
4211.470987
4235.47676
4223.80915
4207.514728
4221.328106
4217.573013
4213.214423
4194.684827
4196.51767
4226.200786
4228.771237
4242.048173
4224.993792
4229.106513
4237.443714
4223.518577
4213.795568
4201.502109
4220.456388
4242.942243
4238.226025
4244.193941
4265.405746
4242.472856
4231.341688
4255.906255
4266.299816
4239.991813
4245.08801
4265.852781
4264.355214
4237.421362
4251.994699
4244.976252
4277.051005
4259.773107
4267.327996
4284.918819
4265.361043
4233.509807
4258.253188
4282.147203
4322.134474
4281.633113
4254.43104
4285.32115
4289.880906
4256.241531
4259.30372
4265.271636
4290.05972
4283.667121
4279.5544
4270.32313
4275.374624
4265.875133
4265.58456
4279.710863
4269.227894
4270.546647
4267.707976
4243.009298
4242.00347
4267.395051
4268.043252
4261.471839
4246.652633
4244.05983
4275.016996
4260.510714
4231.989888
4203.446711
4220.568147
4233.666269
4214.600231
4216.455426
4213.795568
4187.264048
4202.150309
4188.359283
4200.853908
4221.439865
4192.829632
4166.096946
4149.62371
4144.706326
4151.657719
4134.737448
4132.524625
4131.295279
4133.016364
4134.603338
4148.550826
4145.019251
4137.084381
4125.930861
4124.053314
4134.066896
4134.871559
4131.518797
4130.490617
4113.74916
4132.256404
4155.971605
4146.941501
4128.23309
4126.064971
4135.117428
4132.792846
4139.967756
4159.302015
4124.790922
4110.306991
4125.841454
4115.336134
4120.231166
4158.698518
4162.69948
4147.209721
4132.144646
4131.787018
4148.997861
4143.253463
4125.170901
4127.719
4133.888082
4108.36239
4120.633497
4162.610073
4161.939521
4151.590663
4150.808352
4129.730657
4120.722904
4151.970643
4157.133896
4144.840437
4152.037698
4141.510027
4130.825893
4144.661623
4144.840437
4165.158172
4172.891876
4184.626542
4206.352437
4185.610018
4196.808242
4217.729475
4214.242603
4226.75958
4221.842196
4222.982135
4214.466121
4203.111434
4217.014219
4246.809095
4232.749848
4249.558359
4276.46986
4248.93251
4216.656591
4217.863586
4231.542853
4225.083199
4205.815995
4230.112342
4243.433981
4236.661403
4222.624507
4225.86551
4220.434036
4205.346609
4212.78974
4216.343667
4210.934545
4191.510879
4184.179507
4192.203783
4186.682902
4157.8268
4171.774289
4217.640068
4206.64301
4197.16587
4197.210574
4190.080367
4191.019141
4187.42051
4188.202821
4198.216402
4197.836423
4202.619696
4199.758673
4191.712045
4191.868507
4201.837385
4205.301905
4198.909306
4180.513821
4186.928771
4201.658571
4208.140577
4198.57403
4184.760652
4194.148385
4195.10951
4186.168812
4186.772309
4185.475908
4197.478795
4213.884975
4216.589536
4215.963687
4182.033739
4162.095983
4196.115338
4229.128865
4214.756693
4196.562373
4194.997751
4201.591516
4187.889896
4184.000693
4202.954972
4193.500184
4174.076518
4174.61296
4213.929679
4180.826745
4182.346664
4208.878184
4205.838347
4205.570126
4213.907327
4205.61483
4172.668358
4179.530344
4213.683809
4214.779045
4179.977379
4181.452594
4207.470025
4221.37281
4227.988926
4211.202766
4187.174641
4188.82867
4181.921981
4174.165925
4178.256295
4181.251428
4171.260199
4144.974547
4172.422489
4182.436071
4148.796695
4130.714134
4163.437088
4169.047376
4142.359393
4159.167905
4195.221269
4184.850059
4167.013367
4134.133951
4143.566387
4171.081385
4155.323405
4172.534248
4172.266027
4172.31073
4168.823858
4161.179562
4138.649003
4136.614995
4149.601358
4177.362225
4189.208649
4199.98219
4183.263085
4155.211646
4138.179617
4144.661623
4172.288379
4184.201859
4176.557562
4158.005614
4142.337041
4155.859847
4176.959893
4193.075501
4190.527402
4149.668413
4141.487675
4177.451632
4162.922998
4177.183411
4178.703329
4171.014329
4163.325329
4169.963797
4166.342815
4164.174696
4162.788887
4183.464251
4193.053149
4164.420565
4155.658681
4201.77033
4204.832519
4202.262068
4209.526385
4192.047321
4186.615847
4189.543925
4163.414736
4200.429225
4221.976307
4211.649801
4220.61285
4216.388371
4195.131862
4185.587667
4186.951123
4200.585687
4226.580766
4207.425321
4197.076463
4199.021065
4182.257257
4176.669321
4204.743112
4217.371847
4203.022027
4181.877277
4174.389443
4177.630446
4176.065824
4165.851076
4143.365221
4191.756748
4218.020048
4185.967646
4159.033794
4144.818085
4130.132989
4139.766591
4161.693652
4179.038606
4177.250466
4165.180524
4136.592643
4142.784076
4177.630446
4192.15908
4176.043472
4175.059995
4169.539114
4156.41864
4141.599434
4164.398213
4193.634295
4195.221269
4167.236885
4151.389498
4174.165925
4173.763594
4161.15721
4148.908454
4160.106678
4174.165925
4150.964815
4160.754879
4174.590608
4169.762632
4160.821934
4161.514838
4173.629483
4179.21742
4158.698518
4157.960911
4154.742259
4137.397306
4160.307844
4179.753861
4193.880164
4173.2048
4162.319501
4162.408908
4139.207797
4140.638309
4165.493448
4160.084326
4136.659698
4147.880274
4177.406928
4200.764501
4193.433129
4180.089138
4182.30196
4172.377786
4181.430242
4198.261106
4181.340835
4181.050263
4187.912248
4212.007429
4219.338801
4201.412702
4190.192126
4188.471042
4175.909361
4158.027966
4156.731565
4155.837495
4169.069728
4153.512913
4163.839419
4173.048338
4174.61296
4149.24373
4129.194215
4156.820972
4162.744184
4149.802524
4163.280626
4162.341852
4149.288434
4143.052297
4134.580986
4128.143683
4126.489654
4172.467193
4182.123146
4163.437088
4150.204855
4150.629538
4154.228169
4133.619861
4130.02123
4145.823913
4162.69948
4176.669321
4159.436126
4132.815198
4114.911451
4149.333137
4163.280626
4156.530399
4162.654777
4152.216512
4154.049355
4159.838457
4141.979413
4125.975564
4150.450724
4153.691727
4162.543018
4170.880219
4152.104754
4157.178599
4154.608149
4162.319501
4155.435163
4124.589756
4139.028983
4163.705309
4162.386556
4152.305919
4147.030908
4148.908454
4140.817123
4143.745201
4172.422489
4183.106623
4178.524515
4158.273835
4146.338003
4162.721832
4153.60232
4160.665472
4167.974492
4152.976472
4164.957007
4154.541094
4154.138762
4184.000693
4179.932675
4175.059995
4167.326291
4165.493448
4174.031815
4152.775306
4116.788997
4112.430407
4157.402117
4174.054167
4168.868562
4146.226245
4135.944442
4161.693652
4156.016309
4128.61307
4140.370088
4145.488637
4138.470189
4143.946367
4152.551788
4148.282605
4135.609166
4114.106788
4110.03877
4142.851131
4170.656701
4163.97353
4156.999786
4146.42741
4120.454683
4129.708306
4150.718945
4138.671355
4129.12716
4141.778248
4138.134913
4146.136838
4135.989146
4138.850169
4140.258329
4114.397361
4109.01059
4142.046469
4148.304957
4130.848245
4124.992087
4133.038715
4143.655794
4159.10085
4158.519704
4137.687878
4135.855035
4130.982355
4113.100959
4122.488692
4151.188332
4160.330195
4154.205817
4134.692745
4134.446875
4139.520721
4107.803596
4107.893003
4149.266082
4159.972568
4137.151436
4112.877442
4120.141759
4142.538207
4121.236994
4148.506123
4184.335969
4170.746108
4146.226245
4116.207852
4102.081549
4108.004762
4147.120314
4164.554675
4125.372067
4117.884233
4156.776268
4182.123146
4150.853056
4132.97166
4162.677129
4155.949254
4138.98428
4132.345811
4114.665582
4114.77734
4154.719908
4179.48564
4152.775306
4132.256404
4126.668468
4125.774399
4155.613977
4151.657719
4147.075611
4167.95214
4160.12903
4137.57612
4113.525643
4117.101922
4143.633442
4153.892893
4148.126143
4136.078553
4129.060105
4108.027113
4089.40811
4138.716059
4133.262233
4116.610183
4131.518797
4153.490562
4151.344794
4125.081494
4133.195178
4144.616919
4139.140742
4116.878404
4105.03198
4105.814291
4127.339021
4148.751992
4144.058126
4145.823913
4138.98428
4094.951343
4121.30405
4144.102829
4125.595585
4139.744239
4129.015401
4109.278811
4090.749215
4124.545053
4174.434146
4132.144646
4086.949418
4119.13593
4140.370088
4159.212608
4153.624672
4102.238012
4103.646172
4144.840437
4150.584835
4141.264157
4136.994974
4115.559651
4097.164166
4114.375009
4139.520721
4127.339021
4142.806428
4132.859902
4120.186462
4116.654887
4112.519814
4105.881346
4121.147587
4134.424524
4150.584835
4137.19614
4122.399285
4118.934765
4128.411904
4118.890061
4122.488692
4161.358376
4153.803486
4123.2263
4103.467358
4108.720018
4101.947439
4129.529492
4150.808352
4145.063954
4132.256404
4118.353619
4128.523663
4143.454628
4144.37105
4135.206835
4119.582965
4100.963962
4104.249669
4133.105771
4146.539169
4141.286509
4139.453666
4134.89391
4122.98043
4107.289506
4119.985297
4160.307844
4141.912358
4132.97166
4122.086361
4147.008556
4163.682957
4134.648041
4092.112671
4128.61307
4123.047486
4128.344849
4135.609166
4118.241861
4133.776323
4152.037698
4150.160152
4135.072724
4106.95423
4106.082512
4119.806483
4135.340945
4113.972677
4115.134968
4117.280736
4118.778303
4146.67328
4149.847227
4120.320573
4118.554785
4119.359448
4126.042619
4131.116465
4103.579116
4106.551898
4148.34966
4167.840382
4145.376878
4115.313782
4099.578154
4121.773436
4115.984334
4132.301108
4151.188332
4156.061012
4133.552806
4089.117538
4093.878459
4134.983317
4161.961873
4169.673225
4134.983317
4089.832793
4078.3887
4121.192291
4173.763594
4165.89578
4141.085343
4143.275814
4121.95225
4104.13791
4166.365166
4178.546867
4168.175658
4147.097963
4121.505215
4145.019251
4148.550826
4141.711192
4119.225337
4113.726808
4120.812311
4146.606224
4144.706326
4138.000803
4150.964815
4127.696649
4111.581041
4133.99984
4152.350623
4140.90653
4138.112561
4126.266137
4126.713172
4171.863696
4146.069783
4122.578099
4115.939631
4128.411904
4147.768515
4137.464361
4136.346774
4135.340945
4102.148605
4101.813328
4111.558689
4139.833646
4143.275814
4126.020268
4102.081549
4096.515965
4104.696704
4113.145663
4141.599434
4143.85696
4125.684992
4060.350843
4063.681252
4140.861826
4140.638309
4105.635477
4116.140797
4110.754026
4121.594622
4138.626652
4103.534413
4086.167107
4107.736541
4133.977489
4094.325494
4087.932895
4115.090265
4117.928936
4121.460512
4137.933748
4134.089247
4107.200099
4091.151546
4112.095131
4130.356506
4113.436236
4060.440249
4070.677348
4119.51591
4123.494521
4115.492596
4116.520776
4125.416771
4097.365331
4089.072834
4101.455701
4120.901718
4108.138872
4094.213735
4083.574305
4094.996046
4101.813328
4112.139834
4121.192291
4110.754026
4107.60243
4105.769587
4116.163148
4123.695686
4119.560614
4116.453721
4100.516927
4099.712265
4092.716168
4087.195288
4113.682105
4125.126198
4138.492541
4134.849207
4121.929898
4108.563555
4090.637456
4081.294427
4112.765683
4139.297204
4116.766646
4081.20502
4098.192346
4124.098018
4127.517835
4137.732582
4118.86771
4094.280791
4127.651945
4122.376933
4078.835735
4086.83766
4080.467413
4148.796695
4177.473983
4100.963962
4073.292503
4084.870706
4110.239936
4129.976526
4127.048448
4098.840546
4084.580134
4096.046578
4127.741352
4126.377896
4112.676276
4106.596602
4064.754136
4068.64334
4139.520721
4146.740335
4133.418695
4113.592698
4117.683067
4105.54607
4080.243895
4094.034921
4137.19614
4141.688841
4112.005724
4075.192401
4084.91541
4131.451742
4131.339983
4093.476128
4094.884288
4108.340038
4095.443081
4105.501366
4104.51789
4115.872576
4116.945459
4125.774399
4083.350788
4081.115613
4102.573288
4085.809479
4093.140852
4121.505215
4139.386611
4115.693762
4085.965942
4091.978561
4105.322552
4103.646172
4124.612108
4096.806538
4103.467358
4128.970698
4138.336079
4123.181596
4099.376988
4055.18759
4102.483881
4166.387518
4163.101812
4127.719
4084.490727
4066.654034
4094.057273
4127.920166
4116.990163
4113.659753
4100.271058
4099.667561
4115.984334
4087.083529
4070.498535
4111.916317
4150.607187
4117.191329
4093.811404
4089.430462
4102.461529
4101.634515
4093.677294
4114.710285
4114.12914
4126.400247
4112.184538
4082.47907
4075.415918
4078.679273
4119.650021
4144.683974
4115.246727
4099.354637
4107.736541
4102.416826
4075.840601
4094.750177
4127.674297
4121.348753
4095.376026
4087.038825
4115.984334
4113.190366
4104.719055
4102.081549
4119.806483
4108.630611
4116.654887
4117.750122
4096.650076
4096.426558
4107.445968
4115.939631
4101.343942
4104.27202
4122.198119
4120.253518
4116.118445
4102.930916
4080.512116
4110.709323
4119.538262
4105.16609
4096.717131
4105.948401
4102.662695
4115.760817
4114.665582
4096.225392
4118.979468
4119.404151
4083.753119
4063.569494
4069.827982
4112.564518
4139.297204
4132.882253
4129.618899
4074.477145
4038.200264
4098.304105
4165.806373
4129.529492
4077.606389
4072.309026
4097.09711
4085.921238
4096.270096
4105.993105
4112.117483
4098.348808
4073.471317
4086.569439
4097.275924
4088.156413
4061.759002
4067.168125
4084.580134
4095.331323
4091.017436
4071.750232
4064.687081
4054.94172
4086.390625
4084.691892
4078.455756
4091.464471
4101.232183
4095.42073
4055.209941
4035.495703
4035.898034
4073.337206
4115.470244
4126.31084
4108.384741
4061.334319
4065.201171
4063.413032
4062.898941
4077.181706
4081.674407
4097.34298
4101.969791
4066.899904
4049.219674
4095.152509
4110.061122
4099.555802
4083.753119
4065.134116
4085.608314
4095.130157
4088.067006
4073.292503
4102.617991
4114.352657
4116.520776
4118.711247
4089.944552
4095.800709
4124.925032
4134.536282
4113.592698
4110.396398
4073.694834
4067.525752
4120.007648
4140.861826
4135.117428
4122.488692
4111.759855
4114.64323
4115.716114
4119.918241
4147.232073
4118.532433
4091.755043
4118.264212
4149.735469
4140.839474
4124.545053
4108.787073
4092.09032
4085.451852
4124.857977
4141.644137
4117.794826
4119.068875
4147.299128
4138.336079
4092.582058
4081.741462
4083.529602
4105.948401
4140.370088
4131.742314
4087.86584
4094.169032
4093.610238
4081.361482
4082.2332
4106.216622
4123.829797
4135.877387
4091.375064
4075.125346
4124.857977
4124.880329
4098.125291
4104.070855
4087.463509
4073.51602
4071.861991
4053.153581
4118.420675
4127.450779
4109.301163
4097.454738
4072.711357
4034.422819
4096.985352
4117.884233
4110.016419
4079.215715
4075.035939
4068.330415
4090.525698
4110.396398
4101.567459
4073.247799
4116.520776
4122.309878
4084.691892
4104.383779
4104.964924
4068.486877
4034.780447
4061.736651
4119.404151
4145.26512
4108.697666
4088.156413
4064.195343
4066.8552
4094.213735
4104.607297
4103.914392
4126.288489
4106.507195
4062.183686
4038.781409
4066.989311
4112.832738
4104.875517
4112.385704
4132.122294
4112.408055
4055.746383
4054.360575
4083.194325
4098.013532
4127.182558
4122.019305
4094.571363
4060.775526
4087.262343
4121.05818
4112.050427
4101.500404
4080.936799
4076.98054
4093.699645
4133.575157
4103.959096
4049.487895
4078.858087
4106.797767
4122.041657
4133.306936
4103.579116
4062.831886
4068.509229
4096.873593
4098.281753
4091.620933
4094.034921
4102.282715
4085.138927
4084.177802
4109.189404
4123.315707
4103.422654
4072.510192
4090.279828
4067.23518
4087.105881
4115.649058
4080.936799
4072.063157
4097.164166
4120.812311
4097.722959
4077.22641
4101.969791
4101.522756
4085.04952
4096.225392
4099.466395
4107.311858
4086.502384
4087.463509
4092.693817
4096.292448
4094.034921
4092.067968
4086.100052
4090.972732
4097.745311
4098.259401
4097.34298
4112.072779
4133.239881
4110.865785
4069.29154
4060.462601
4066.251703
4072.957226
4083.708415
4121.415808
4122.98043
4097.611201
4077.7405
4093.744349
4094.638419
4113.525643
4128.456608
4123.315707
4085.273038
4092.157375
4119.270041
4134.201006
4138.693707
4124.25448
4092.09032
4090.190421
4108.451797
4077.36052
4093.833756
4150.540131
4135.408
4098.907602
4102.036846
4094.437253
4111.983372
4120.834663
4125.819102
4111.469282
4063.480087
4089.117538
4124.813274
4147.612053
4126.444951
4091.643285
4088.938724
4093.409073
4105.769587
4129.484788
4112.542166
4106.037808
4110.128177
4110.575212
4087.821136
4086.658846
4108.071817
4113.704457
4119.784131
4114.039733
4107.60243
4105.054331
4127.897814
4112.296297
4079.327474
4072.957226
4113.346829
4116.766646
4129.50714
4132.032887
4092.649113
4090.413939
4119.180634
4145.756858
4125.305012
4091.33036
4048.839694
4074.767718
4138.112561
4141.93471
4107.043637
4089.743386
4106.328381
4125.103846
4113.860919
4082.143793
4087.552916
4110.508157
4122.086361
4097.320628
4082.188497
4086.994122
4097.678256
4103.24384
4113.547994
4095.487785
4091.732692
4106.06016
4122.354582
4092.537355
4100.159299
4115.336134
4108.340038
4080.55682
4064.910598
4095.42073
4100.069892
4111.6928
4103.310895
4107.378913
4138.112561
4122.958079
4087.172936
4086.703549
4093.967866
4087.664674
4068.039843
4096.828889
4145.175713
4135.318593
4123.986259
4113.995029
4056.886322
4052.013642
4083.12727
4110.41875
4137.665527
4116.431369
4096.314799
4134.201006
4121.080532
4110.28464
4106.686009
4108.161224
4110.396398
4080.82504
4060.909636
4103.512061
4110.150529
4095.308971
4083.708415
4087.441157
4102.86386
4127.227262
4128.434256
4091.755043
4074.253628
4087.798785
4112.542166
4094.347846
4088.804613
4087.955247
4087.195288
4102.930916
4116.364314
4103.065026
4098.102939
4075.43827
4082.99316
4109.077645
4131.250576
4110.396398
4093.386721
4092.73852
4091.240953
4075.751194
4091.598581
4092.112671
4109.815253
4134.580986
4108.295334
4083.12727
4085.027168
4088.37993
4078.634569
4107.445968
4127.450779
4111.268116
4089.385759
4098.88525
4094.280791
4095.55484
4111.201061
4097.611201
4090.637456
4096.873593
4063.122459
4073.247799
4133.642213
4122.421637
4106.015456
4093.230259
4082.2332
4084.982465
4113.659753
4118.957116
4098.415863
4110.485805
4118.577137
4128.009573
4138.73841
4127.830759
4107.691837
4102.238012
4109.658791
4100.695741
4128.121332
4144.88514
4112.229241
4119.202986
4121.43816
4127.227262
4100.695741
4099.578154
4130.267099
4118.510082
4100.516927
4112.966849
4120.03
4129.015401
4101.388645
4104.204965
4073.359558
4067.972787
4105.970753
4124.656811
4097.633552
4081.137965
4093.878459
4110.977544
4103.400302
4124.142721
4128.166035
4110.306991
4088.826965
4081.741462
4074.253628
4116.05139
4151.255387
4105.300201
4055.254645
4082.635532
4113.905622
4123.606279
4118.331268
4083.239029
4093.274962
4076.421747
4134.513931
4167.080422
4127.830759
4102.59564
4111.782207
4088.134061
4069.559761
4108.720018
4121.371105
4105.613125
4089.274
4086.591791
4087.463509
4101.478052
4095.241916
4077.695796
4104.13791
4122.756913
4113.257422
4132.926957
4116.05139
4111.066951
4085.585962
4085.764776
4085.138927
4086.45768
4100.628686
4120.991125
4114.375009
4105.188442
4104.204965
4112.698628
4125.103846
4123.829797
4102.573288
4083.12727
4103.914392
4113.995029
4175.439975
4172.266027
4125.305012
4127.137855
4151.322442
4176.91519
4169.941446
4173.853001
4169.986149
4178.368053
4185.855888
4180.37971
4169.650873
4191.175603
4196.920001
4203.983152
4178.725681
4202.865565
4241.265862
4222.289231
4201.949144
4203.111434
4227.743057
4239.83535
4246.987909
4228.659478
4214.354362
4213.125016
4211.135711
4243.858664
4251.167685
4254.252226
4251.793534
4245.289176
4228.614775
4239.18715
4263.416441
4251.547665
4228.972403
4230.067638
4261.874171
4281.454299
4271.284255
4254.095763
4257.113249
4252.799362
4248.708993
4245.803266
4248.887807
4289.009188
4267.327996
4243.255167
4226.491359
4268.825563
4302.464938
4263.081165
4276.402804
4273.340615
4248.41842
4249.290138
4309.841014
4311.629154
4270.524296
4260.175438
4233.576862
4267.819735
4299.447453
4292.36195
4296.541726
4271.016034
4259.147258
4286.148165
4278.436813
4266.545685
4276.067528
4273.720595
4281.677816
4271.954807
4266.47863
4277.87802
4256.554455
4220.702257
4216.63424
4280.113194
4301.950848
4259.169609
4237.153141
4256.979138
4235.320298
4232.325164
4229.531196
4213.125016
4174.232981
4203.111434
4231.319336
4222.982135
4197.523498
4191.488527
4190.437995
4172.668358
4181.542001
4174.881181
4142.649966
4130.758838
4154.272873
4166.722794
4134.268061
4108.563555
4126.17673
4123.919204
4117.683067
4125.327364
4074.365386
4058.227427
4088.536392
4095.800709
4074.298331
4087.217639
4149.802524
4105.881346
4068.12925
4071.660825
4113.391532
4109.39057
4127.495483
4105.411959
4069.135078
4062.384851
4110.508157
4138.73841
4102.193308
4089.229296
4063.52479
4071.07968
4098.415863
4116.073741
4089.430462
4064.128287
4087.061177
4099.086416
4112.743332
4120.92407
4113.905622
4094.303142
4092.358541
4070.900866
4082.009683
4098.169994
4087.731729
4079.215715
4106.931878
4133.530454
4113.36918
4098.751139
4076.757023
4082.859049
4115.403189
4078.746328
4061.043747
4077.271113
4087.687026
4090.190421
4095.867764
4079.550991
4075.840601
4096.44891
4098.326456
4087.709378
4095.510137
4086.122404
4083.820174
4098.348808
4095.800709
4083.998988
4079.886267
4088.536392
4076.265285
4092.358541
4102.126253
4078.232238
4091.732692
4082.076738
4081.182668
4077.941665
4087.664674
4108.384741
4121.996954
4077.315817
4091.419767
4106.976581
4098.058235
4096.135985
4125.506178
4128.076628
4135.028021
4133.530454
4131.317631
4127.763704
4148.08144
4168.399175
4175.88701
4173.115393
4168.220361
4173.316559
4212.901498
4208.229984
4175.372919
4180.737338
4216.455426
4230.917004
4226.178435
4208.073522
4215.136673
4202.552641
4188.82867
4182.905457
4230.559377
4253.961653
4258.364947
4222.132769
4194.528364
4214.779045
4269.227894
4270.770165
4246.317356
4244.350403
4256.085069
4248.306662
4223.362115
4250.497133
4273.295912
4281.744871
4273.921761
4270.390185
4274.257037
4277.274522
4255.503923
4258.543761
4292.451357
4315.987744
4320.905128
4297.838127
4304.297782
4285.790537
4299.872136
4295.82647
4289.188002
4325.263718
4325.487235
4303.962505
4295.82647
4299.179232
4332.908014
4356.310291
4344.083887
4331.432799
4300.922668
4288.405691
4278.593275
4297.659313
4304.633058
4325.509587
4340.217035
4322.201529
4295.69236
4310.466863
4328.437666
4319.005229
4313.461997
4321.106293
4329.532901
4320.011058
4299.447453
4283.510659
4291.557287
4310.533918
4304.990686
4318.692305
4339.188855
4319.742837
4302.979029
4292.920744
4289.120947
4298.240459
4319.161692
4310.489215
4294.306552
4284.270618
4307.270564
4307.114101
4290.998494
4332.416276
4321.687439
4296.921706
4296.117043
4298.50868
4300.900316
4303.046084
4298.687494
4262.298854
4286.416386
4311.919726
4295.222973
4278.369758
4283.935342
4304.968334
4294.239496
4283.488307
4276.492211
4263.081165
4282.840107
4287.086938
4264.019938
4219.338801
4220.210519
4253.559322
4250.832409
4238.80717
4224.747923
4206.754769
4165.873428
4187.107585
4216.857757
4179.239771
4161.045451
4176.736376
4172.266027
4142.649966
4171.930751
4165.202876
4135.072724
4141.755896
4136.503236
4099.466395
4064.977654
4112.095131
4149.288434
4111.022247
4086.32357
4108.049465
4140.01246
4137.084381
4109.725846
4081.406186
4109.099997
4108.854128
4103.981448
4115.090265
4124.813274
4122.019305
4108.295334
4103.914392
4103.556765
4124.075666
4121.527567
4076.891133
4102.081549
4119.471207
4106.283677
4109.301163
4105.814291
4129.618899
4079.305122
4089.385759
4089.072834
4089.40811
4123.159244
4090.637456
4091.822099
4116.766646
4127.562538
4105.099035
4085.362445
4077.829907
4079.103956
4104.160262
4106.373084
4091.620933
4108.295334
4116.006686
4123.807445
4096.404206
4084.356616
4083.082567
4067.034014
4131.854073
4126.489654
4072.309026
4107.356561
4097.790014
4090.190421
4101.343942
4124.142721
4082.702587
4046.492761
4097.186517
4139.476018
4109.211756
4084.267209
4078.276942
4112.184538
4126.400247
4119.918241
4149.176675
4109.90466
4116.386666
4158.743222
4147.83557
4123.919204
4117.325439
4125.997916
4155.122239
4169.427355
4159.324367
4128.970698
4140.168922
4161.6713
4230.380563
4230.268804
4179.396233
4144.929844
4097.924125
4167.460402
4218.534138
4225.664345
4213.30383
4188.716911
4138.023154
4124.38859
4154.094059
4217.930641
4241.131752
4200.831556
4178.859792
4192.896687
4160.754879
4183.955989
4221.439865
4229.330031
4188.046359
4153.021175
4161.939521
4177.94337
4204.653705
4190.862678
4209.012295
4212.767388
4195.467138
4191.443824
4184.268914
4191.443824
4147.947329
4143.119352
4173.562428
4197.367036
4191.332065
4211.828615
4222.512749
4189.096891
4191.957914
4171.617826
4188.851021
4194.885992
4181.877277
4162.543018
4125.126198
4167.907437
4182.793699
4173.495373
4167.393347
4161.492486
4171.66253
4158.184428
4157.8268
4138.693707
4145.443934
4152.06005
4141.688841
4129.462436
4130.222396
4131.474093
4135.475056
4124.433294
4092.045616
4091.062139
4121.773436
4143.432277
4143.320518
4098.415863
4077.829907
4055.366404
4061.960168
4067.034014
4082.568477
4108.161224
4082.74729
4055.70168
4095.241916
4092.760872
4092.693817
4114.419712
4112.85509
4103.668523
4099.354637
4063.234218
4060.909636
4067.659863
4084.267209
4081.137965
4087.821136
4077.494631
4078.366349
4071.884343
4083.082567
4088.938724
4066.542276
4092.358541
4088.111709
4072.800764
4065.089412
4066.318758
4078.746328
4094.683122
4096.515965
4093.185555
4069.224485
4054.651148
4061.714299
4099.533451
4100.762796
4086.591791
4079.506288
4062.183686
4067.659863
4060.663767
4061.893113
4094.325494
4113.61505
4109.636439
4082.61318
4066.318758
4064.172991
4084.870706
4115.425541
4097.499442
4091.464471
4066.139944
4066.899904
4061.915465
4063.703604
4072.063157
4088.044654
4113.995029
4092.537355
4057.601578
4063.167162
4102.908564
4107.937706
4084.423671
4075.885305
4087.441157
4079.260418
4048.817342
4047.945624
4068.822154
4105.702532
4106.820119
4082.412014
4056.439287
4060.619063
4067.74927
4077.427575
4080.378006
4085.362445
4089.519869
4089.40811
4090.346884
4056.931026
4034.869854
4072.532543
4076.868782
4086.122404
4075.997064
4054.181761
4080.847392
4121.929898
4108.787073
4091.598581
4047.945624
4020.698848
4066.676386
4098.281753
4067.950436
4091.620933
4108.295334
4086.927067
4081.763814
4082.456718
4060.529656
4077.047596
4082.791994
4080.221543
4090.011607
4087.374102
4069.179782
4071.638473
4066.877552
4080.400357
4121.348753
4090.570401
4076.935837
4123.382762
4157.223303
4139.2525
4097.678256
4107.781244
4152.596492
4145.108657
4134.335117
4146.561521
4145.376878
4138.380782
4143.298166
4126.780227
4136.771457
4150.182503
4125.059143
4090.101014
4094.124328
4119.493558
4127.942518
4126.735524
4105.389608
4086.278866
4131.138817
4151.970643
4120.097055
4118.130102
4137.039678
4116.341962
4103.847337
4108.4965
4130.311803
4136.391477
4136.056201
4139.610128
4126.109675
4120.655849
4119.962945
4134.022192
4130.669431
4113.302125
4094.414901
4121.795788
4131.518797
4133.508102
4146.829742
4124.165073
4103.355599
4108.608259
4100.29341
4121.102884
4179.955027
4145.332175
4116.654887
4122.98043
4148.997861
4152.484733
4145.734506
4137.844341
4097.946477
4095.510137
4112.832738
4164.331158
4154.675204
4128.009573
4095.018398
4136.123256
4143.029945
4137.129085
4171.327254
4137.732582
4090.011607
4093.677294
4139.766591
4149.981338
4115.269079
4125.327364
4168.980321
4167.728623
4146.002727
4129.060105
4125.707343
4138.000803
4118.040695
4117.325439
4164.778193
4170.142611
4115.470244
4115.403189
4130.02123
4154.87637
4174.568257
4165.560504
4131.831721
4129.104808
4111.648096
4149.221378
4132.97166
4168.533286
4186.101757
4120.678201
4150.070745
4186.973475
4141.018288
4129.238919
4203.357304
4159.391422
4112.430407
4161.358376
4158.34089
4181.921981
4167.505105
4134.536282
4153.289396
4169.986149
4207.492376
4106.775416
4123.606279
4167.125126
4173.07069
4161.760707
4147.969681
4182.883106
4126.467303
4103.422654
4138.514893
4173.316559
4167.30394
4181.072614
4143.029945
4098.013532
4133.105771
4180.849097
4203.849042
4126.355544
4088.715206
4116.073741
4176.244638
4147.500294
4143.588739
4165.5158
4131.876425
4084.803651
4102.528584
4192.270838
4136.436181
4125.953212
4150.607187
4161.626597
4194.707178
4124.969736
4113.302125
4128.791884
4186.168812
4125.595585
4101.679218
4179.262123
4218.914118
4133.888082
4086.994122
4166.298111
4161.53719
4097.432387
4072.309026
4127.137855
4182.68194
4125.372067
4161.090155
4158.922036
4103.534413
4128.09898
4179.463289
4130.065933
4059.389718
4084.088395
4139.833646
4138.201968
4094.817232
4175.954065
4182.570181
4065.335282
4091.240953
4152.663547
4115.470244
4081.003854
4126.713172
4121.594622
4129.820064
4146.628576
4068.285712
4080.467413
4160.978396
4105.948401
4056.796915
4125.573233
4119.00182
4107.177747
4089.385759
4088.402282
4082.076738
4094.549012
4085.653017
4091.062139
4086.368273
4117.034866
4165.292283
4080.467413
4083.417843
4137.71023
4146.650928
4071.07968
4084.758947
4106.306029
4116.05139
4124.880329
4101.768625
4095.04075
4157.603283
4130.15534
4071.616122
4065.916427
4093.163203
4127.271965
4106.283677
4060.775526
4102.282715
4087.418805
4051.834828
4107.781244
4143.946367
4117.906584
4086.547087
4084.423671
4113.413884
4117.861881
4057.512171
4046.157485
4078.880439
4122.913375
4119.202986
4055.679328
4059.099145
4045.978671
4101.18748
4164.420565
4166.745146
4107.736541
4084.982465
4084.356616
4094.14668
4087.038825
4089.385759
4141.17475
4108.943535
4068.12925
4077.762851
4134.983317
4121.43816
4065.648206
4072.018453
4081.495593
4136.592643
4189.409815
4075.326511
4028.991345
4087.932895
4108.36239
4104.160262
4120.78996
4061.803706
4108.809424
4142.046469
4122.46634
4129.305974
4125.66264
4038.53554
4059.345014
4154.094059
4177.004597
4047.6327
4055.299348
4113.212718
4105.143738
4125.059143
4155.345756
4082.546125
4092.984389
4111.737503
4116.654887
4121.840492
4070.722052
4063.703604
4081.137965
4107.513023
4131.317631
4099.39934
4097.454738
4084.066043
4068.933912
4111.245765
4096.918296
4043.095296
4065.424689
4149.824876
4081.964979
4061.759002
4108.898831
4138.425486
4048.258549
4012.78633
4055.70168
4093.230259
4103.824985
4080.400357
4044.615214
4114.352657
4113.168015
4021.995249
4042.89413
4053.511209
4065.759965
4132.479922
4094.727825
4029.997174
4054.449982
4079.685101
4073.717186
4100.338113
4144.88514
4095.688951
4008.539499
4020.095351
4031.271223
4113.212718
4078.545163
4043.072944
4091.643285
4086.368273
4072.510192
4065.670558
4070.409128
4085.161279
4053.734726
4021.771732
4085.720072
4123.8745
4052.460677
4037.105028
4050.58313
4046.135133
4092.783224
4078.791032
4053.153581
4047.051555
4075.415918
4048.102087
4053.108877
4084.602485
4115.403189
4047.789162
4060.529656
4062.11663
4052.348918
4062.295444
4091.57623
4094.996046
4034.534578
4060.686119
4049.711412
4072.018453
4100.226355
4068.330415
4079.327474
4067.726918
4049.979633
4057.780392
4105.16609
4091.911506
4026.890281
4084.289561
4101.992142
4079.573343
4068.598636
4047.655052
4070.856162
4107.46832
4088.75991
4045.643395
4043.139999
4044.861084
4083.484898
4093.073796
4092.403244
4094.973695
4062.518962
4043.810552
4035.138075
4077.427575
4103.042674
4145.935672
4187.867545
4094.951343
4007.936002
4016.362609
4084.133099
4101.679218
4090.81627
4101.522756
4038.557892
4063.480087
4131.742314
4110.619916
4045.598691
4059.881456
4042.156523
4041.776543
4063.211866
4099.555802
4116.721942
4103.176785
4072.420785
4054.29352
4038.02145
4019.134226
4017.927232
4144.438105
4133.061067
4018.575432
4025.996211
4067.592808
4057.936854
4057.869799
4029.863063
4040.569549
4133.888082
4144.281643
4026.599708
4009.679438
4065.916427
4066.519924
4079.685101
4108.161224
4017.547252
4031.315926
4117.280736
4109.748198
4048.504418
4055.254645
4073.65013
4113.436236
4041.463618
4046.828037
4064.016529
4076.287636
4084.691892
4052.997119
4049.130267
4085.921238
4120.879367
4062.004872
4016.608479
4060.06027
4032.008831
4056.148715
4102.975619
4101.500404
4071.839639
4051.924235
4075.035939
4116.364314
4057.355709
4034.244005
4068.531581
4082.523773
4083.194325
4070.543238
4098.549974
4052.058345
4100.561631
4103.132081
4063.725956
4073.985407
4060.529656
4081.897924
4083.373139
4073.471317
4087.977599
4135.720925
4051.61131
4034.378115
4116.878404
4153.043527
4095.55484
4062.451906
4040.703659
4022.129359
4049.622005
4141.442971
4108.161224
4135.542111
4075.885305
4045.19636
4057.713337
4095.17486
4162.431259
4120.119407
4069.269189
4040.949528
4005.387903
4084.803651
4131.094114
4096.493613
4068.330415
4088.983427
4068.486877
4072.197267
4091.19625
4089.274
4167.840382
4065.379985
4015.893223
4040.904825
4040.144866
4072.733709
4142.359393
4166.186353
4137.844341
4053.354747
3982.767938
4042.223578
4108.384741
4088.446985
4049.309081
4104.830814
4139.788942
4097.790014
4030.488912
4027.605537
4065.804668
4068.352767
4108.094169
4116.006686
4080.020378
4065.022357
4071.772584
4124.142721
4100.449872
3982.9244
3987.752377
4060.999043
4056.595749
4061.244912
4089.609276
4108.697666
4102.506233
4054.360575
4020.7212
4041.038935
4056.528694
4032.478217
4083.820174
4109.77055
4071.638473
4002.1469
4018.776598
4115.850224
4107.848299
4069.045671
4095.331323
4067.816325
4031.003002
4022.196415
4025.348011
4023.962203
4014.95445
4139.677184
4137.509064
4068.241008
4037.328546
4048.035031
4064.910598
4054.248816
4016.139092
4060.462601
4106.06016
4079.461584
4068.151601
4063.547142
4021.190586
4030.46656
4126.489654
4074.052462
4067.838677
4047.967976
3984.444318
4057.892151
4085.653017
4083.373139
4060.820229
4056.439287
4090.860974
4111.715151
4044.034069
4007.824243
4026.689115
4099.801671
4082.791994
4026.689115
4037.663822
4100.919259
4069.604465
4067.324587
4034.288708
4054.070002
4061.334319
4102.148605
4052.304215
4015.647354
4026.24208
4058.830924
4057.489819
4091.956209
4098.281753
4060.775526
4049.55495
4039.362554
4046.269244
4052.952415
4050.739592
4076.555857
4069.068023
4059.903808
4043.251758
4076.757023
4119.89589
4062.004872
3964.171286
4008.695961
4052.572435
4077.114651
4078.634569
4059.836752
3988.601743
3998.9506
4046.984499
4016.139092
3981.158612
4045.576339
4075.795898
4022.732857
4035.808627
4042.938834
4029.885415
4063.614197
4036.546235
4008.070112
3998.212993
4000.001132
4051.588959
4050.06904
3997.341275
4012.78633
4063.748308
4069.917389
4030.444208
4036.635642
4032.008831
4057.735688
4053.086526
4027.89611
4028.320793
4021.838787
3997.207164
4003.756226
4036.635642
4089.028131
4043.139999
4010.86408
3996.916592
4024.789217
4044.548159
4070.632645
4071.97375
4019.558909
3998.190641
3988.579391
4047.096258
4094.392549
4122.891024
4112.095131
4029.505435
3990.144013
4059.277959
4130.669431
4109.703494
4092.962038
4079.126308
4098.617029
4130.40121
4106.596602
4059.210904
4064.687081
4167.862733
4180.424414
4161.358376
4140.593605
4094.213735
4131.339983
4151.03187
4154.183466
4167.236885
4181.586704
4162.811239
4072.666654
4120.633497
4162.252445
4177.071652
4168.488582
4166.298111
4176.691672
4193.83546
4138.693707
4159.033794
4154.898722
4176.468155
4209.325219
4203.424359
4190.303885
4205.458368
4165.314634
4129.574195
4143.365221
4207.000638
4219.763484
4206.173623
4239.164798
4201.367998
4177.183411
4193.500184
4182.033739
4188.426338
4159.838457
4175.596437
4196.785891
4170.522591
4155.658681
4193.008446
4189.588629
4147.477942
4165.493448
4204.184318
4174.054167
4128.188387
4145.600396
4133.664564
4060.06027
4060.462601
4119.180634
4128.635422
4149.310785
4123.047486
4100.874555
4103.489709
4026.24208
4007.936002
4002.549231
4024.968031
4041.217749
4043.654089
4053.310043
4019.670668
3996.938943
3982.879696
4022.062304
4051.231331
4064.575322
4035.428647
3956.079955
3979.750452
4044.458752
4053.91354
4033.908729
4005.365551
4009.232403
4067.905732
4039.764886
3960.796173
3984.533725
4022.710505
4030.175988
4024.588051
3991.596877
3988.82526
3991.574525
4033.372287
4057.132191
3999.688208
3994.033217
4011.62404
4017.815473
4005.790234
4010.953487
4018.731894
4036.166255
4034.758095
4011.869909
3996.246039
3989.384054
3988.378225
4011.400522
4046.783334
4035.853331
4025.929156
4013.412179
4016.206147
3988.713502
3959.969158
4003.17508
4051.365441
4063.144811
4025.660935
3988.266467
4023.716333
4030.757133
4009.120644
3988.244115
4013.769807
4022.889319
4036.479179
4027.873758
4020.050647
4043.967014
4022.509339
3994.413196
3986.00894
4011.154653
4035.965089
4014.976801
3992.960333
4006.572545
3998.749435
4037.596767
4055.478162
4026.420894
4001.431644
4015.423836
4024.588051
3989.696978
4005.253792
4022.107008
4027.426723
4011.62404
3994.815528
4012.182833
4019.894185
4010.752322
4058.607406
4039.384906
4006.840766
4007.287801
4004.58324
4015.848519
3998.034179
4030.511264
4073.046633
4073.38191
4074.678311
4043.944662
4041.016584
4084.177802
4036.143903
4002.66099
4063.658901
4137.173788
4129.283622
4135.65387
4140.370088
4109.815253
4124.276832
4128.903643
4085.988293
4129.618899
4175.082347
4155.435163
4173.003635
4173.271856
4175.64114
4160.933693
4182.659588
4164.085289
4133.664564
4161.0231
4201.300943
4212.745036
4197.67996
4182.346664
4213.326182
4141.532378
4169.673225
4228.54772
4232.727496
4206.732417
4152.44003
4192.092024
4270.747813
4215.181376
4189.767443
4189.566277
4192.67317
4221.8869
4253.358156
4237.689583
4210.86749
4170.656701
4153.84819
4200.898612
4217.684772
4200.697446
4213.907327
4195.511841
4198.238754
4186.057053
4142.269986
4136.324422
4147.522646
4228.324202
4259.169609
4207.67119
4167.505105
4149.333137
4154.116411
4175.551733
4199.825728
4224.367943
4192.896687
4190.080367
4177.786908
4164.331158
4199.557507
4191.980266
4164.711137
4173.473021
4162.654777
4181.765518
4174.680015
4165.694614
4164.331158
4161.268969
4162.028928
4182.190202
4178.792736
4149.75782
4121.348753
4130.624727
4179.798565
4200.049245
4148.126143
4103.601468
4131.697611
4152.44003
4136.659698
4102.617991
4121.840492
4102.617991
4114.062084
4155.166942
4150.361317
4089.430462
4036.702697
4018.664839
4046.157485
4077.87461
4122.175768
4104.115558
4054.80761
4027.985517
4029.81836
4024.588051
4016.340258
4018.642487
4045.039898
4055.858142
4012.562813
3968.395766
3993.18385
4032.634679
4032.411162
4017.413141
4014.082731
3990.658103
4010.685266
4003.68917
4017.323734
4036.769752
4053.175933
4029.304269
3975.950655
3972.620246
3998.727083
4020.430627
4022.330525
4013.725104
3981.51624
3996.00017
4019.871833
4014.283897
4014.842691
4030.511264
4032.075886
3981.695054
3971.592065
3974.743661
3989.495813
4009.053589
4046.760982
4030.935947
4030.287746
3998.190641
3975.838897
3972.262618
4001.11872
4025.325659
4019.424798
4024.118665
3972.441432
3960.974987
3997.207164
3997.631848
4012.27224
4001.453996
3991.172193
3992.133318
4014.395656
4021.101179
3999.151766
3996.111929
4018.195452
4011.020543
3948.994452
3922.217062
3958.248074
4047.096258
4084.714244
4013.814511
3960.974987
3969.915684
3985.070167
3995.530784
4017.949583
4047.967976
4011.668743
3985.718368
3978.431699
3972.664949
3945.328766
4033.66286
4064.105936
4037.194435
4001.833976
3999.531746
4023.716333
4035.540406
4027.13615
3981.538592
3977.358815
4017.435493
4025.571528
4054.695851
4033.685211
4008.584202
4022.710505
4019.782426
4032.142941
4038.803761
4035.696868
4046.73863
4042.290633
4046.045726
4043.676441
4039.720182
4031.785313
4048.884398
4059.389718
4070.945569
4040.681307
3987.908839
4041.798895
4073.068985
4070.498535
4055.433459
4063.323625
4061.110802
4060.127325
4027.605537
4017.413141
4071.280846
4070.677348
3989.652275
3969.870981
4039.966052
4057.914502
4047.006851
4004.784406
4008.248926
4025.638583
4041.463618
4033.260528
4008.405388
4038.088505
4017.770769
4014.306249
3988.065301
4005.723179
4040.726011
4050.918406
4025.795046
4022.844615
4024.632755
4020.452979
4042.335336
4040.569549
4005.633772
3993.541478
4016.809644
4045.866912
4048.347956
4008.584202
3992.334484
4009.120644
4039.094334
4046.35865
4030.913595
4011.869909
4015.245022
4051.253683
4034.623985
4010.148824
3995.597839
4024.073961
4025.124493
3986.25481
3979.370472
4030.399505
4063.502438
4073.583075
3996.357798
3950.313205
3947.899216
4019.536557
4098.438215
4041.038935
4016.787293
4002.169252
4021.056476
4015.915575
3988.512336
4011.467577
4041.195398
4053.354747
4031.517092
4017.279031
4030.600671
4017.167272
3989.741682
4002.079845
4031.49474
4016.317906
4015.60265
4046.425706
4025.035086
4028.812531
4049.04086
4071.146735
4055.969901
3992.133318
3970.094498
4045.799857
4146.2933
4100.963962
4028.92429
4052.639491
4064.41886
4087.552916
4092.73852
4064.016529
4045.285767
4056.327529
4067.659863
4094.392549
4128.367201
4089.810442
4087.083529
4075.43827
4051.231331
4074.521849
4087.329398
4082.322607
4098.259401
4111.402227
4068.933912
4092.582058
4125.975564
4073.247799
4022.978726
4070.096203
4117.280736
4095.465433
4047.25272
4024.811569
4062.451906
4073.426613
4052.907712
4077.427575
4068.732747
4043.676441
4048.593825
4032.075886
4006.907822
3956.549341
3976.688263
4019.491854
4055.433459
4035.875682
4002.437473
4020.385923
3971.614417
3988.937019
4032.120589
4006.192566
3981.158612
3984.511374
4028.54431
4005.432606
3936.67864
3988.82526
4059.099145
4027.873758
3998.347103
3937.639765
3988.333522
4057.042784
4056.059308
4019.044819
4000.828147
4007.354856
3980.666874
3986.165403
4016.921403
4021.034124
3963.053699
3945.798152
3997.542441
4048.325604
4056.752212
4017.457845
3968.306359
4015.133263
4016.586127
3982.902048
3973.894295
4018.351915
4032.411162
3946.848684
3957.108135
3993.04974
4005.253792
4018.642487
3989.451109
3972.374376
3999.308228
4023.649278
3999.71056
3978.051719
3998.43651
3999.419987
4046.492761
3986.165403
3976.464746
4028.097275
3984.556077
3977.716443
3976.867077
3967.278179
4027.203205
4064.910598
3987.573563
3937.237434
4015.46854
4014.619173
3985.807775
4009.478272
3964.506562
3992.245077
4020.385923
3978.409347
4015.401484
4039.04963
4005.298496
3983.5726
3973.380205
4004.024446
4012.339295
3989.495813
4041.35186
4025.59388
4034.467522
4010.86408
3955.208237
3977.29176
4015.200319
4017.636659
4026.48795
4017.14492
3974.788365
3969.08867
4059.210904
4063.256569
3981.493888
4021.458807
4047.833866
4043.072944
4006.147862
3981.940923
3999.107063
4046.537464
4022.129359
4019.268336
4028.387848
4011.936964
4040.278976
4046.828037
4053.600616
4039.384906
3987.372397
4000.537574
4052.88536
4061.334319
4037.887339
4016.899051
4049.890226
4051.566607
4100.382817
4061.826058
3947.675699
4035.026316
4096.538317
4038.110857
3994.189679
4025.795046
4094.705474
4071.414956
4044.81638
4009.947659
4029.57249
4070.722052
4057.825095
4028.812531
4017.591955
4019.178929
4066.586979
4111.111654
4073.605427
4021.391752
4007.91365
3995.419025
4045.598691
4110.28464
4011.109949
4003.17508
4076.153526
4095.510137
4084.870706
4093.029093
4050.203151
3957.577522
3950.916702
4079.28277
4075.371215
4062.675424
4038.446133
4059.501476
4043.989366
4003.286839
4045.464581
4082.836697
4093.63259
4043.587034
4032.701735
4041.888302
4067.793973
4046.470409
4031.003002
4053.757078
4049.711412
4031.628851
4080.020378
4094.034921
4028.812531
3998.704731
4063.90477
4111.201061
4048.839694
4050.493723
4048.169142
4072.845468
4110.396398
4082.903753
4053.846485
4011.713447
4036.657993
4077.785203
4072.711357
4049.599653
4049.107915
4101.70157
4088.111709
4016.519072
4069.112726
4074.275979
4064.93295
4029.259566
4048.996156
4075.974712
4037.596767
4042.402392
4038.803761
4021.637621
4016.541423
4068.084546
4093.409073
4102.170956
4098.035884
4055.768735
4000.157595
4019.089522
4006.729008
4045.285767
4095.55484
4106.95423
4112.117483
4050.44902
4023.269298
4047.811514
4060.686119
4089.586924
4056.528694
4027.940813
4050.851351
4060.239084
4033.79697
4036.725049
4076.555857
4065.581151
4056.104011
4056.126363
4017.502548
4051.208979
4079.841564
4079.908619
3992.334484
3944.725268
4056.998081
4125.483826
4082.277904
4013.121606
4079.863915
4092.403244
4093.63259
4038.759057
4018.441322
4028.589014
4066.452869
4061.46843
4073.828944
4081.07091
4071.012625
4050.896055
3992.043911
4055.858142
4106.171919
4103.310895
4070.520886
4046.582168
4043.318813
4053.466505
4081.808517
4100.360465
4055.612273
4053.310043
4047.029203
4058.830924
4107.937706
4114.285602
4044.749325
4033.528749
4085.697721
4074.723014
4044.257587
3973.246094
4028.521958
4082.076738
4113.436236
4082.255552
4063.144811
4082.300256
4018.195452
3982.767938
4004.471481
4056.260473
4083.887229
4063.0107
4021.145883
4028.276089
3987.014769
4029.773656
4064.620026
4065.134116
4046.73863
4083.283732
4044.905787
4011.109949
4022.174063
4055.746383
4078.90279
4021.056476
4014.619173
4037.060325
4064.821191
4055.120534
4005.499662
3979.683397
4001.029313
4085.898886
4119.560614
4087.977599
4009.165348
4004.046798
4000.671685
4052.348918
4064.262398
4013.903918
4023.045781
4026.510301
4033.685211
4058.965034
4077.36052
4047.386831
4055.768735
4046.783334
4024.18572
4004.382074
4010.908784
4051.544255
4101.098073
4083.797822
4028.03022
4019.514205
4032.232348
4015.557947
4047.923273
4095.733654
4059.970863
4000.537574
3997.609496
4064.709433
4080.355654
4042.022412
4047.208017
4060.887284
4059.881456
4061.155505
4044.525807
4063.167162
4070.766755
4035.20513
4035.406296
4043.519979
4044.011717
4095.331323
4103.042674
4087.128232
4072.823116
4072.845468
4073.404261
4065.715261
4124.500349
4117.392494
4062.317796
4086.32357
4080.489764
4085.742424
4093.945514
4073.292503
4115.604355
4108.988238
4085.295389
4098.684084
4121.81814
4096.560669
4080.512116
4089.966904
4071.057328
4033.081714
4127.964869
4160.106678
4127.786056
4077.159354
4032.657031
4050.203151
4060.440249
4093.610238
4107.893003
4118.800654
4066.050537
4068.151601
4117.21368
4112.877442
4106.753064
4100.472224
4099.891078
4097.164166
4086.100052
4075.840601
4100.002837
4120.141759
4103.936744
4065.268226
4071.146735
4099.175823
4058.875627
4047.431534
4104.853166
4099.801671
4073.985407
4040.45779
4052.706546
4069.67152
4093.990218
4078.925142
4035.361592
4039.675479
4050.381964
4076.220581
4060.328491
4017.659011
4031.785313
4032.165293
4026.689115
4052.952415
4064.217694
4051.834828
4023.068133
4021.391752
4061.401375
4043.676441
4013.121606
3989.540516
4007.153691
4075.997064
4092.872631
4009.411217
3959.969158
4039.56372
4061.222561
4045.308118
4054.42763
4049.107915
4066.385814
4053.01947
3982.700882
3970.429775
4035.383944
4069.738575
4065.916427
4049.510246
4021.23529
3995.597839
4037.417953
4081.115613
4054.472334
4039.675479
4035.808627
3991.820394
3995.463728
4058.450944
4052.237159
4045.553988
4028.54431
4043.855255
4043.207055
4024.923328
4038.647299
4033.215825
4040.100162
4030.198339
4026.309136
4053.980595
4034.042839
4009.254755
3994.748473
4024.275127
4070.453831
4042.24593
4079.461584
4057.154543
4024.453941
4020.788255
4016.697886
4045.576339
4062.407203
4058.115668
4043.519979
4039.898996
4000.336409
3986.232458
4007.77954
4098.438215
4096.895945
4043.005889
4031.807665
4025.169197
3992.53565
3991.015731
4067.324587
4045.71045
4052.639491
4074.164221
4044.749325
4024.141017
4048.280901
4054.494685
4035.316889
3997.475385
4031.49474
4056.998081
4073.761889
4085.742424
4064.79884
4025.236252
4009.545327
4028.611365
4035.540406
4081.920276
4079.729805
4050.024337
4022.218766
4053.108877
4112.095131
4043.452924
3991.842746
4012.607516
4032.76879
4066.385814
4072.867819
4100.315762
4021.771732
3978.141126
3990.300475
4052.88536
4049.107915
4037.864988
4047.610348
4037.999098
4011.646391
4024.476293
4080.243895
4047.923273
4023.224595
4027.65024
4052.572435
4083.775471
4076.801726
4024.789217
4007.176042
4016.764941
4043.676441
4040.949528
4032.925252
4044.011717
4018.888357
4013.523938
4053.53356
4049.443191
4025.705639
4048.772639
4035.875682
4028.767828
4028.141979
4004.471481
4007.734836
4034.758095
4052.058345
4013.903918
3990.322827
4062.943645
4095.599544
4104.51789
4051.34309
3993.295609
3980.376301
4018.486025
4025.415066
4015.60265
4059.613235
4068.062194
4084.043692
4087.441157
4041.910653
4033.774618
4047.006851
4044.704621
4020.676496
4000.649333
4009.32181
4070.56559
4057.869799
4015.692057
4043.989366
4006.751359
4021.078828
4081.964979
4102.036846
4046.559816
3968.753394
4038.759057
4074.052462
4017.457845
4017.971935
4037.932043
4046.313947
4050.694889
4054.405278
4053.690023
4001.789272
4025.012735
4050.426668
4051.4772
4076.712319
4066.497572
4005.119682
4005.365551
4077.181706
4069.045671
4079.953322
4062.474258
3998.168289
3972.799059
4026.331487
4090.279828
4069.738575
4059.255607
4026.309136
3971.770879
3971.323844
4073.13604
4070.789107
4029.371325
3999.665856
3997.989475
4002.906859
4046.246892
4031.807665
3988.020597
4024.632755
4033.886377
4007.041932
3992.803871
3998.101234
4051.387793
4060.082622
4040.904825
4053.91354
4006.304324
3953.688318
3996.804833
4020.117702
4011.981668
4025.951508
4023.939851
4005.164385
4018.173101
4042.178874
4055.299348
3985.114871
3956.772859
3993.854403
4039.764886
4026.443246
4001.11872
4013.479234
3998.43651
4004.180909
4026.152674
4024.141017
4012.741627
4012.518109
4004.627944
4011.065246
3984.064339
3972.799059
4037.485008
4038.110857
4002.057493
3999.799967
4009.545327
4036.278014
4010.551156
3992.937981
4009.478272
3984.287856
3978.029368
3981.404481
4049.622005
4084.356616
4040.122514
4008.494795
4004.516185
3983.147917
3975.727138
3985.025464
4040.435438
4073.739537
4057.10984
3984.936057
3965.62415
4014.95445
4043.475275
4049.353784
4021.458807
4008.919479
4045.039898
4055.612273
3988.154708
4009.031237
4026.264432
4059.523828
4054.718203
4031.87472
4030.712429
4045.486932
4046.649223
4063.927122
4055.075831
4078.522811
4096.940648
4047.163313
4022.956374
4038.446133
4031.561796
4033.528749
4083.462546
4072.532543
4051.834828
4025.526825
3984.46667
4016.63083
4104.540241
4104.540241
4055.3217
4007.310153
3993.362664
4046.112781
4058.65211
4021.011772
4013.635697
4004.426778
4012.607516
4035.898034
4060.663767
4047.029203
4041.910653
4004.762054
3995.307266
4021.347048
4043.944662
4057.668633
4043.721145
4015.245022
4031.897072
4019.245984
3996.737778
3989.920496
4017.323734
4026.644412
4018.03899
4048.258549
4077.204058
4042.156523
4033.707563
4003.957391
4004.046798
4027.046743
4022.621098
4014.909746
4041.463618
4056.640453
4059.613235
4054.137058
4022.77756
4018.150749
4014.507415
4024.5657
4010.774673
4021.548214
4066.542276
4066.363462
4036.188607
3997.92242
3992.781519
3975.525972
3996.178984
4060.127325
4064.93295
4033.484046
4064.843543
4046.671575
4027.046743
4032.411162
4005.499662
4010.72997
4048.035031
4069.403299
4065.31293
4029.192511
4017.457845
4022.062304
4050.940758
4072.197267
4053.980595
4048.772639
4044.011717
3998.883545
3971.189734
3978.56581
4032.008831
4057.713337
4062.653072
4038.066153
4024.409237
4019.536557
3984.511374
4036.032145
4051.790124
4038.91552
4038.379078
4034.69104
4014.529766
4012.719275
4042.603557
4060.239084
3971.502658
3988.042949
4041.620081
4050.113744
4023.693982
4041.530674
4043.519979
4019.648316
4015.423836
4001.006961
4015.245022
4014.753284
4016.094388
4006.438435
4030.220691
4018.821301
3987.640618
4041.262453
4065.871723
4009.947659
3992.110967
3999.799967
4006.594897
4008.517147
4011.333467
4016.608479
4021.101179
4015.803816
4030.377153
4033.931081
4008.94183
3986.7689
4000.850499
4045.106953
4023.693982
4035.003964
4038.870816
4024.297479
3991.596877
3990.591048
4019.715371
4018.329563
4009.500624
4034.936909
4006.661952
3972.93317
4022.285822
4075.214753
4057.601578
4017.077865
4005.276144
4011.24406
4018.508377
4024.878624
4063.100107
4059.233255
4060.239084
4069.470354
4073.940703
4089.184593
4073.068985
4070.409128
4072.845468
4064.262398
4111.82691
4119.962945
4123.762742
4129.462436
4105.54607
4097.633552
4101.053369
4134.424524
4152.730602
4167.30394
4159.905512
4118.957116
4098.169994
4086.278866
4138.447838
4185.274742
4206.374789
4180.714986
4151.568312
4091.598581
4103.959096
4171.215495
4208.095873
4178.189239
4156.820972
4158.027966
4146.494466
4150.428373
4153.959948
4169.852039
4139.744239
4150.227207
4190.594457
4173.450669
4148.841399
4150.584835
4168.779155
4175.954065
4180.536172
4165.739318
4179.060957
4187.867545
4156.172771
4170.097908
4179.86562
4173.808297
4159.681995
4174.523553
4222.602156
4205.011333
4191.667341
4212.588574
4187.576972
4166.052242
4171.439012
4245.758563
4237.622528
4184.783004
4182.190202
4201.680923
4199.423397
4195.936524
4168.086251
4214.175548
4234.359173
4176.624617
4166.231056
4175.618789
4184.872411
4213.348533
4201.815033
4170.880219
4160.464306
4191.734396
4185.63237
4192.67317
4233.219234
4207.760597
4171.304902
4169.87439
4143.834608
4182.324312
4251.74883
4201.90444
4159.346719
4175.931713
4231.587557
4221.149292
4175.50703
4166.946312
4155.725736
4136.056201
4199.4681
4242.897539
4220.881071
4171.483716
4140.52655
4143.320518
4158.475001
4197.791719
4197.232926
4180.044434
4163.526495
4169.203838
4167.370995
4173.271856
4174.389443
4161.53719
4154.429335
4157.156248
4152.149457
4136.279718
4175.998768
4165.940483
4106.618954
4128.210739
4157.424469
4157.402117
4127.540186
4117.392494
4114.889099
4088.201116
4075.639436
4091.240953
4099.354637
4083.931933
4050.739592
4034.869854
4043.609386
4030.153636
4046.448057
4090.011607
4073.024282
4039.496665
4011.735798
4023.224595
4022.844615
4022.956374
4019.111874
4025.571528
4025.2139
4051.968938
4019.648316
4008.718313
4027.426723
4040.167217
4058.65211
4052.863008
4010.86408
4001.543403
3985.338388
4038.513188
4068.486877
4038.759057
3999.665856
4000.60463
3988.378225
4049.443191
4096.851241
4048.929101
3970.765051
3964.663025
4009.70179
4042.804723
4038.66965
4044.615214
4014.306249
3972.307321
3999.174118
4038.53554
4041.664784
4009.008886
3994.346141
4050.113744
4035.048668
4040.949528
4015.647354
4020.877662
4041.508322
4003.979743
3971.972045
4047.811514
4053.824133
4028.790179
3999.464691
4010.372342
4048.727935
4067.056366
4009.858252
3987.260638
4019.849482
4022.352877
4027.270261
4041.664784
4010.86408
4033.327583
4067.771622
4047.878569
3998.3024
4003.867984
4057.914502
4048.415011
4004.560888
4024.386886
4031.293575
3973.06728
4012.227537
4058.897979
4099.667561
4067.928084
3994.234382
3971.3909
4001.096368
4030.265394
4028.611365
4021.525862
4047.833866
4032.545272
3992.66976
4018.03899
4035.361592
4036.322717
4062.921293
4055.746383
4035.227482
4026.644412
4006.863118
3963.344272
4032.142941
4069.80563
4044.257587
4001.76692
4000.850499
4044.235235
4041.396563
4028.209034
3983.43849
4029.170159
4080.959151
4057.311005
4032.031182
4030.690078
4046.22454
4016.295554
4044.145828
4058.696813
4018.888357
3996.402502
4014.641525
4042.89413
4040.5919
4028.387848
4022.665801
4001.230478
3990.523993
4033.41699
4042.402392
4028.052572
3994.100272
4001.386941
4041.687136
4043.385868
4001.342237
3970.161554
3984.84665
4024.230423
4040.100162
4011.087598
3974.006054
3993.317961
4017.435493
4019.648316
4016.340258
4023.559871
4020.162406
4022.531691
4027.89611
4014.328601
3960.863228
3973.044929
4016.921403
4021.771732
4017.748418
3998.838842
3992.289781
4004.270316
3982.946751
3999.151766
4006.706656
4034.936909
4030.175988
4035.026316
4017.01081
4013.255717
4025.660935
3995.955467
3967.769917
3987.506507
4019.089522
4045.419877
4077.405224
4046.582168
4025.97386
4047.140962
4040.882473
4006.237269
3997.564792
4039.317851
4081.562648
4082.926104
4065.759965
4054.762906
4054.42763
4050.046688
4046.73863
4087.776433
4140.459495
4127.428428
4076.84643
4035.674517
4072.733709
4085.228334
4086.636494
4080.623875
4110.754026
4120.678201
4102.260363
4098.572326
4108.004762
4098.617029
4087.105881
4089.251648
4091.285657
4124.433294
4117.884233
4116.69959
4147.522646
4103.355599
4101.969791
4131.94348
4134.223358
4157.200951
4134.178654
4110.172881
4118.10775
4136.637346
4168.265065
4135.095076
4127.227262
4123.494521
4146.136838
4160.017271
4155.90455
4165.180524
4165.38169
4131.317631
4126.132026
4129.305974
4148.372012
4162.230094
4185.185335
4169.181486
4139.207797
4128.456608
4144.393402
4144.840437
4140.66066
4144.348698
4116.721942
4099.555802
4098.840546
4127.271965
4127.897814
4116.453721
4115.470244
4078.25459
4004.06915
4053.555912
4093.364369
4071.526715
4074.92418
4079.819212
4067.726918
4049.353784
4025.59388
3983.81847
4005.276144
4031.137113
4038.133209
4058.987386
4040.189569
4043.139999
4050.58313
4001.945734
4001.163423
4036.926214
4023.470464
4010.327638
4014.440359
4022.330525
4023.448112
4028.320793
4011.668743
3989.831089
3987.081824
4038.826113
4061.669595
4033.841674
4004.717351
3997.520089
4013.859214
4026.62206
4009.053589
4000.179946
4025.258604
4002.795101
4010.774673
4035.450999
4035.741572
4018.664839
4018.821301
4006.88547
4014.95445
4023.001078
4047.76681
4050.046688
4007.53367
3982.119737
4021.950546
4035.808627
4035.741572
4039.407258
4038.356726
4014.932098
4001.699865
3991.64158
3989.138185
4007.556022
4026.756171
4032.008831
4025.325659
4009.075941
4009.053589
4010.506452
4029.483083
4041.798895
4009.277106
4006.572545
4028.700772
4011.780502
4024.811569
4016.742589
4008.517147
4001.409292
4004.404426
4040.167217
4042.268281
4027.560833
4007.690133
3976.509449
3998.548269
4056.975729
4025.348011
4014.306249
4019.223633
4039.787238
4082.121442
4110.195233
4079.081604
4069.939741
4066.989311
4054.29352
4071.482011
4069.827982
4039.027278
4071.07968
4075.527677
4049.04086
4044.078773
4063.234218
4059.233255
4074.566552
4071.504363
4066.944607
4048.705584
4026.689115
4037.239139
4048.66088
4048.213845
4034.422819
4015.669705
3994.994342
4006.304324
4034.646336
4048.079735
4042.804723
4011.020543
3994.882583
3978.811679
4009.992362
4030.33245
4056.975729
4052.617139
4030.891243
4018.575432
3993.407368
4006.192566
4020.296516
4026.711467
4035.741572
4026.711467
4014.395656
4014.619173
4004.024446
4009.098292
4036.657993
4031.561796
4018.597784
4009.925307
4021.928194
4016.63083
4022.084656
4015.625002
4025.862101
4016.764941
4015.759112
4008.070112
3976.442394
3982.723234
4058.920331
4067.123421
4020.162406
4014.730932
4030.600671
4028.052572
4020.318868
3996.849537
3968.038138
4020.363572
4033.28288
4026.577357
4023.80574
4024.230423
4048.750287
4068.956264
4062.250741
4033.886377
4045.598691
4059.143848
4067.034014
4075.102994
4054.561741
4028.54431
4010.148824
4024.878624
4041.128342
4044.190531
4026.085618
4053.846485
4049.398488
4035.741572
4044.011717
4033.349935
3989.875792
4018.530729
4062.027223
4062.742479
4030.958299
4005.410255
4050.940758
4080.936799
4040.726011
3996.648371
4018.575432
4060.552008
4058.473296
4041.195398
4028.566662
4025.236252
4017.480197
4035.20513
4014.283897
4034.847502
4039.451961
4021.659973
4015.714409
4029.505435
4044.592863
4024.520996
4001.006961
4028.946642
4065.894075
4061.356671
4039.273147
4009.165348
4037.417953
4056.260473
4035.629813
4041.977709
4044.235235
4010.081769
4017.435493
4048.459714
4057.154543
4022.062304
4017.726066
4052.415973
4071.191439
4049.93493
4034.355764
4041.776543
4032.209996
4033.126418
4043.251758
4024.744514
4012.227537
4024.163368
4018.620136
4012.406351
4010.372342
4026.443246
4042.290633
4075.706491
4070.967921
4061.379023
4019.31304
3984.220801
4009.433569
4028.387848
4047.096258
4067.23518
4058.965034
4079.79686
4050.694889
4018.128397
4020.631793
4041.016584
4023.738685
3997.721255
4021.168234
4038.110857
4033.931081
4036.903863
4021.3694
3999.867022
3983.05851
4014.306249
4026.666764
4033.953432
4031.181816
4021.861139
3992.759167
4003.68917
4007.600726
4011.892261
4035.33924
4007.01958
4022.576394
4043.430572
4023.470464
3997.363627
3994.122624
4030.019525
4041.798895
4046.35865
4027.382019
3978.252885
3998.570621
4043.743496
4014.462711
4001.297534
4023.515168
4045.241063
4008.271278
3938.98087
3953.621263
4041.575377
4048.616177
4020.922365
3988.624095
3975.190696
3989.58522
4038.401429
4049.912578
4034.735743
3988.244115
3956.906969
3991.306304
4028.343144
4007.578374
3980.890391
3995.016693
3982.097385
3985.181926
4029.594842
4043.028241
4034.020488
4011.154653
3989.294647
3971.413251
3958.516295
3989.182888
4049.622005
4050.627834
4028.656069
4003.376246
3969.580408
3979.191658
4025.07979
4025.526825
4028.857235
4033.171121
3997.385978
3972.955522
3971.368548
4008.673609
4031.405333
4022.39758
4028.4102
4012.518109
3997.363627
4015.513243
4017.368438
4011.936964
4017.5249
3980.532763
3988.132356
4021.771732
4010.327638
3989.428757
4016.183795
4015.98263
3993.787348
3990.881621
4011.780502
4016.407313
4039.295499
4050.560778
4024.409237
4000.515223
4031.114761
4026.130322
3989.831089
4002.571583
4020.788255
4018.754246
4043.430572
4039.161389
4013.412179
4018.217804
4003.309191
4037.909691
4033.752267
4025.683287
4013.725104
4033.349935
4048.616177
4059.523828
4074.387738
4040.234273
4006.952525
4016.988458
4006.37138
4044.458752
4071.236142
4081.652055
4077.494631
4085.496555
4036.970918
4004.136205
4020.676496
4025.862101
4021.838787
4066.117593
4079.595694
4073.270151
4055.746383
4034.69104
4004.225612
4048.839694
4099.332285
4059.54618
4027.918461
4017.301383
3993.742644
4008.181871
4084.781299
4064.664729
4020.944717
4005.924345
4012.182833
4007.91365
3969.513353
3972.128507
4047.476238
4070.498535
4027.694944
4007.39956
4024.073961
4018.284859
4038.66965
4030.734781
3965.847667
3944.211178
4025.2139
4034.422819
4046.984499
4048.370307
4019.111874
4002.437473
3996.089577
4017.077865
4015.870871
4012.898089
3999.688208
3997.02835
4004.694999
4031.450037
4045.263415
4026.689115
4018.374266
4014.641525
4013.389827
4011.109949
4004.225612
3999.017656
4015.625002
4024.409237
4027.426723
4009.411217
4016.8767
4036.166255
4033.305232
3990.211068
3965.422984
3979.370472
4033.975784
4043.944662
4022.531691
4003.465653
3992.937981
4034.288708
4035.920386
4022.889319
4010.931136
4022.442284
4013.16631
3990.591048
4020.184758
4038.177912
3997.40833
3985.785423
4006.147862
4007.667781
4032.791142
4039.340203
4004.493833
4014.283897
4025.348011
4031.74061
4011.400522
4008.383037
4016.675534
4002.102196
3988.244115
4009.187699
4041.329508
4032.2547
3994.59201
3970.966216
4011.892261
4029.281918
4012.607516
4034.132246
4065.603502
4015.177967
3981.292722
4005.410255
4050.739592
4038.647299
4009.70179
4001.76692
4003.130377
4002.102196
4015.200319
4033.528749
4038.759057
4041.620081
4008.092464
4002.012789
4007.868947
4048.705584
4033.238176
3965.847667
3970.228609
4018.955412
4027.784351
4039.653127
4057.355709
4023.135188
3976.241228
3982.343254
4039.608424
4050.314909
4029.706601
4013.322772
4009.970011
3984.712539
3997.296571
4054.29352
4048.839694
4044.279938
4052.773601
4017.659011
3988.110004
4008.204223
4032.075886
4022.64345
4019.178929
4044.034069
4036.479179
4023.224595
3998.347103
4001.185775
4052.393621
4063.189514
4020.408275
3993.273257
4020.832958
4058.719165
4059.501476
4036.210959
4014.395656
4020.363572
4036.054496
4042.51415
4059.277959
4023.179891
4060.507305
4078.634569
4040.524845
3988.802909
3994.569659
4027.985517
4062.898941
4056.416935
4048.929101
4069.179782
4060.797877
4028.633717
4000.22465
4059.68029
4087.821136
4098.773491
4073.560723
4047.140962
4066.296407
4098.639381
4088.558744
4067.928084
4074.41009
4084.714244
4086.994122
4098.415863
4113.078608
4080.757985
4058.473296
4092.135023
4101.522756
4101.276887
4075.57238
4050.784296
4070.856162
4073.51602
4076.354692
4059.054441
4040.524845
4065.625854
4070.900866
4039.004927
4028.54431
4048.929101
4062.809534
4071.280846
4068.531581
4029.639546
4026.130322
4048.996156
4058.808572
4037.485008
4026.286784
4026.018563
4047.163313
4057.311005
4049.55495
4045.84456
4034.244005
4032.232348
4058.965034
4044.615214
4034.31106
4046.805685
4042.782371
4055.545217
4048.213845
4036.0992
4028.812531
4017.435493
4010.953487
4048.794991
4041.731839
4038.759057
4045.665746
4048.035031
4047.990328
4025.012735
4003.957391
4029.393676
4063.413032
4069.917389
4067.74927
4069.29154
4063.033052
4041.843598
4000.135243
4016.295554
4069.336244
4056.104011
4048.236197
4063.547142
4071.97375
4053.77943
4035.07102
4022.218766
4001.364589
4008.070112
4056.86397
4055.276997
4028.454903
4046.626871
4065.245875
4056.21577
4027.024392
4024.744514
4025.571528
4041.35186
4069.135078
4060.552008
4048.057383
4023.515168
3986.679493
4008.092464
4048.616177
4051.924235
4045.576339
4045.218712
4023.559871
4032.947604
4077.785203
4063.144811
4027.717296
4019.581261
4023.850444
4033.081714
4011.691095
4005.454958
4040.167217
4065.469392
4061.490781
4035.942738
4020.497682
4033.953432
4078.813383
4065.938779
4036.009793
4028.052572
4021.950546
4018.776598
4038.379078
4058.875627
4033.528749
4032.455865
4035.026316
4041.463618
4036.859159
4013.54629
4029.170159
4048.325604
4064.55297
4069.448003
4012.562813
3973.44726
4001.744569
4060.641415
4096.806538
4071.325549
4013.16631
4029.304269
4047.275072
4027.13615
4024.900976
4054.919369
4066.251703
4039.228444
4046.917444
4034.959261
4023.716333
4025.884453
4037.708525
4030.46656
4049.756116
4059.277959
4039.675479
4018.03899
4053.108877
4054.874665
4017.547252
4054.762906
4068.866857
4067.771622
4061.98252
4081.808517
4065.670558
4025.057438
4066.184648
4119.337096
4123.092189
4088.24582
4056.036956
4060.596712
4092.984389
4101.813328
4091.084491
4077.673444
4090.503346
4114.106788
4115.827872
4092.582058
4084.714244
4073.024282
4078.925142
4093.699645
4094.996046
4065.983482
4057.266302
4068.084546
4109.412922
4115.760817
4106.618954
4080.17684
4075.862953
4082.300256
4093.051445
4111.849262
4137.084381
4114.486768
4072.286674
4063.748308
4079.752157
4097.164166
4062.720127
4089.832793
4119.00182
4105.926049
4068.106898
4053.153581
4063.0107
4068.442174
4080.445061
4094.258439
4106.283677
4095.286619
4084.356616
4064.977654
4056.104011
4068.330415
4092.492651
4087.172936
4062.250741
4056.483991
4091.509174
4108.183576
4088.446985
4098.304105
4089.206945
4089.363407
4077.829907
4079.550991
4053.935892
4028.54431
4080.065081
4086.770604
4099.91343
4101.522756
4088.335227
4106.864823
4079.081604
4058.540351
4068.933912
4097.119462
4114.687933
4058.741517
4042.335336
4090.346884
4106.44014
4083.194325
4066.877552
4066.274055
4060.239084
4084.624837
4097.99118
4093.677294
4105.613125
4090.324532
4071.750232
4072.063157
4062.407203
4051.231331
4064.083584
4072.331378
4095.823061
4120.946422
4119.717076
4069.380947
4039.56372
4050.314909
4067.279883
4076.064119
4102.34977
4101.567459
4090.995084
4079.349825
4077.427575
4086.770604
4084.602485
4068.889209
4060.753174
4090.704511
4102.372122
4093.476128
4087.955247
4084.826003
4065.178819
4076.399395
4102.305067
4084.177802
4048.459714
4043.028241
4083.820174
4112.385704
4110.195233
4112.832738
4083.261381
4069.470354
4044.592863
4038.714354
4085.608314
4090.324532
4083.015511
4101.500404
4091.240953
4086.32357
4078.656921
4044.794028
4056.908674
4075.57238
4061.401375
4057.892151
4083.194325
4099.578154
4081.786165
4066.654034
4032.791142
3981.00215
3970.049795
4014.038028
4027.359668
4035.808627
4053.26534
3994.212031
3986.321865
4051.4772
4058.316834
4044.481104
4028.656069
3980.868039
3976.755318
4045.151656
4068.419822
4042.24593
4023.403409
4003.130377
3968.149897
4010.819377
4055.589921
4046.135133
4041.418915
4040.278976
4045.799857
4026.10797
4022.732857
3997.207164
3986.858307
4004.694999
4027.985517
4018.709543
4044.30229
4061.781354
4055.768735
4044.950491
4037.328546
4035.093371
4006.483138
3995.396673
4007.421912
4006.751359
4022.442284
4032.344107
4041.061287
4051.141924
4037.552063
4008.695961
4023.269298
4019.268336
4038.110857
4039.653127
4021.436455
4015.46854
4035.294537
4060.19438
4037.753229
4012.518109
4003.130377
4035.249833
4056.238122
4019.31304
4013.635697
4019.603612
4016.943755
4013.725104
4006.080807
4051.119572
4072.823116
4059.568531
4034.065191
3993.519127
4004.315019
4038.446133
4028.611365
3989.361702
4007.131339
4042.625909
4039.42961
4020.810607
4010.260583
4007.868947
4013.6804
4036.143903
4036.0992
4025.012735
4011.199356
3999.263525
4001.521051
3986.701845
3997.207164
4039.228444
4025.795046
4015.177967
4003.55506
4039.071982
4057.422764
4037.060325
4017.323734
4016.049685
4022.26347
4017.234327
4009.388865
4025.750342
4038.267319
4022.218766
4030.153636
4025.191548
4012.607516
4010.595859
4024.744514
4022.419932
4014.19449
4001.409292
4025.325659
4053.734726
4040.614252
4041.575377
4021.212938
4007.868947
4018.441322
4022.174063
4014.57447
4033.886377
4061.98252
4033.238176
3993.116795
3972.463783
3999.956429
4047.744459
4068.375119
4047.319776
4022.419932
4001.990438
4003.108025
4016.027333
4035.182778
4001.610458
3972.732004
3987.305342
4042.983537
4039.094334
4017.860176
4028.097275
3999.84467
3969.200429
3993.675589
4046.962148
4061.200209
4044.950491
4023.962203
3994.4579
3970.720347
3989.696978
4042.424743
4024.163368
4002.258659
3990.434586
3981.940923
3987.461804
3998.503566
4007.53367
4030.108932
4033.841674
4023.895147
3991.239249
3997.341275
4043.296461
4026.599708
3978.766975
3975.973007
4017.189624
4047.163313
4042.156523
4018.821301
4004.694999
4012.182833
4032.433514
4024.476293
4021.659973
3996.536612
3968.462821
4000.783444
4018.173101
4019.424798
4024.252775
3991.976856
3971.435603
4020.005944
4031.628851
4017.837825
4027.024392
4035.272185
4017.591955
3985.807775
3984.421967
3997.475385
4027.046743
4015.759112
4017.591955
4049.510246
4047.610348
4012.249888
3990.367531
4001.453996
4009.679438
4014.686229
4040.368383
4009.299458
3970.094498
3983.885525
4015.513243
4047.543293
4052.840656
4029.661897
4009.366513
3988.82526
3993.072092
4018.642487
4011.177005
4033.640508
4035.160427
4023.850444
3998.995304
3985.025464
4016.407313
4053.757078
4031.695906
3980.689225
3974.542496
4020.765903
4038.602595
4029.617194
4023.895147
4004.471481
3996.089577
4019.715371
4037.105028
4045.799857
4039.630775
4029.617194
3997.073054
4012.227537
4035.920386
4033.841674
4023.626926
4020.609441
4029.371325
4023.448112
4003.465653
4041.240101
4070.945569
4051.588959
4027.583185
4024.006906
4041.329508
4012.495758
4032.232348
4098.281753
4081.696758
4073.963055
4076.33234
4068.844505
4038.66965
4046.470409
4047.878569
4031.517092
4011.825205
4035.294537
4059.903808
4053.332395
4039.831941
4056.416935
4064.41886
4057.445116
4038.602595
4031.49474
4026.934985
4028.365496
4014.619173
4029.013697
4059.210904
4043.7882
4032.344107
4025.97386
4026.286784
4037.552063
4038.647299
4031.785313
4023.783389
4039.161389
4041.150694
4031.718258
4036.590938
4073.694834
4063.055404
4017.703714
4004.560888
4045.71045
4030.511264
4030.779485
4034.244005
4053.220636
4056.506342
4044.928139
4024.409237
4028.857235
4025.057438
4020.7212
4009.768845
4037.239139
4045.799857
4050.292558
4061.893113
4049.957281
4023.001078
4047.140962
4035.495703
4021.503511
4025.750342
4038.200264
4074.700662
4075.885305
4053.511209
4014.57447
4004.739702
4035.629813
4039.094334
4023.448112
4044.145828
4064.150639
4048.437363
4043.698793
4031.584147
4031.785313
4025.862101
4040.569549
4061.513133
4062.206037
4053.131229
4063.971825
4047.409182
4030.377153
4020.698848
4029.863063
4033.238176
4048.14679
4060.328491
4051.276034
4081.003854
4098.438215
4056.908674
4006.438435
4027.024392
4073.896
4070.967921
4025.59388
4023.537519
4044.011717
4070.453831
4081.026206
4085.764776
4069.045671
4047.051555
4045.799857
4055.299348
4024.476293
4012.294592
4067.503401
4065.871723
4066.095241
4061.043747
4072.62195
4070.029148
4060.239084
4054.584092
4050.650185
4064.262398
4058.048613
4043.452924
4038.133209
4057.936854
4049.309081
4046.783334
4037.619118
4042.871778
4076.488802
4071.906694
4070.18561
4072.890171
4070.610293
4050.627834
4041.620081
4039.898996
4055.075831
4069.693872
4052.125401
4043.654089
4051.007813
4052.192456
4077.986369
4087.687026
4068.397471
4046.537464
4020.609441
4024.520996
4055.366404
4058.897979
4043.989366
4041.597729
4069.358596
4074.588904
4072.48784
4041.955357
4015.490891
4022.866967
4040.793066
4072.376081
4065.134116
4075.482974
4074.633607
4053.26534
4031.807665
4019.380095
4028.03022
4065.156468
4075.259456
4059.881456
4064.262398
4074.253628
4045.755153
4003.018618
3989.808737
4032.969956
4068.889209
4065.938779
4062.541313
4047.498589
4016.653182
4053.064174
4066.452869
4044.68227
4050.247854
4064.374157
4074.566552
4063.748308
4027.940813
4000.269353
4006.147862
4037.462656
4101.075721
4103.914392
4062.384851
4049.778467
4045.643395
4037.350897
4046.60452
4042.804723
4033.081714
4019.31304
4022.062304
4035.540406
4026.666764
4010.707618
4007.936002
4003.130377
3991.105138
3994.681417
4002.28101
3984.623132
3987.774728
4029.237214
4028.857235
3998.972952
3971.14503
3988.869964
4031.830017
4052.661842
4043.7882
4005.700827
3998.592973
4001.565755
3980.309246
3977.984664
4000.939906
4015.267374
4032.791142
4004.426778
4018.41897
4044.503456
4011.37817
3988.199411
3995.597839
4010.327638
4025.482121
4011.601688
3997.184813
3990.479289
4009.679438
4027.426723
4020.922365
4001.655162
