 ECG Channel 
-2771.370443
-2771.213981
-2770.744594
-2771.236333
-2772.666844
-2774.119708
-2771.482202
-2776.131365
-2778.008911
-2771.236333
-2768.017682
-2765.894266
-2759.233446
-2762.452097
-2764.28494
-2766.497763
-2767.123612
-2762.317987
-2766.430708
-2767.458888
-2763.659091
-2759.836943
-2764.195533
-2774.052653
-2779.193554
-2776.623103
-2767.905923
-2758.652301
-2758.697004
-2760.239275
-2764.15083
-2767.458888
-2774.343225
-2768.062385
-2753.332585
-2755.70187
-2767.503591
-2779.14885
-2776.846621
-2773.337397
-2777.427766
-2789.587115
-2804.316915
-2808.653153
-2824.880519
-2840.079706
-2874.367282
-2877.496526
-2865.359529
-2854.787154
-2847.276967
-2842.31488
-2826.355735
-2806.6862
-2799.6454
-2797.432577
-2788.648342
-2769.02351
-2763.346167
-2759.635777
-2757.311196
-2758.607597
-2763.055594
-2756.662995
-2753.26553
-2758.607597
-2763.592036
-2762.161525
-2761.8486
-2758.831115
-2757.735879
-2753.377289
-2747.387021
-2748.996347
-2749.577492
-2747.655242
-2749.398678
-2785.452042
-2890.259372
-3048.040336
-3093.034398
-3041.535979
-2935.096971
-2630.934433
-2313.316144
-2139.151351
-2061.859019
-1842.096668
-1449.465924
-1061.730213
-714.2723458
-827.9980216
-1210.078741
-1659.348805
-2072.990188
-2370.626017
-2595.104586
-2712.406541
-2742.11201
-2760.127516
-2774.454984
-2787.106071
-2807.557918
-2830.91549
-2847.969872
-2857.737584
-2866.365357
-2883.933828
-2896.741378
-2900.384712
-2907.827843
-2920.322468
-2932.347707
-2945.088201
-2956.867571
-2963.036652
-2960.600312
-2950.877303
-2956.264073
-2971.038576
-2984.650789
-2995.156109
-3008.947135
0
-3200.389826
-3178.194544
-3161.363681
-3143.169361
-3129.534796
-3119.632974
-3113.910927
-3107.093645
-3102.310372
-3098.465872
-3092.207383
-3091.447424
-3090.151023
-3093.950819
-3101.282191
-3104.769064
-3101.326895
-3102.310372
-3109.105302
-3114.447369
-3117.576613
-3119.387104
-3120.236471
-3126.137331
-3131.904081
-3131.546453
-3131.88173
-3133.468703
-3138.654308
-3139.05664
-3137.939052
-3141.783552
-3138.095515
-3134.988622
-3132.887558
-3133.222834
-3132.686392
-3128.484264
-3125.936166
-3127.031401
-3129.266575
-3123.745695
-3119.051828
-3119.655325
-3120.169415
-3116.034343
-3112.323953
-3114.804997
-3113.598003
-3110.826386
-3110.044075
-3111.38518
-3112.323953
-3111.295773
-3106.825424
-3107.1607
-3108.099473
-3107.1607
-3104.076159
-3103.427959
-3103.226793
-3104.21027
-3107.183052
-3106.378389
-3106.892479
-3103.785587
-3101.528061
-3101.77393
-3105.059636
-3102.735055
-3098.868203
-3097.236526
-3103.159738
-3104.970229
-3101.885689
-3097.683561
-3103.070331
-3106.378389
-3104.657305
-3102.824462
-3100.164604
-3097.571802
-3100.74575
-3108.881785
-3119.096532
-3127.769009
-3128.55132
-3123.075142
-3123.142198
-3137.804942
-3159.888465
-3183.022521
-3196.657085
-3194.2878
-3199.093425
-3186.934076
-3175.177059
-3172.561904
-3163.978835
-3150.612491
-3133.021669
-3126.584366
-3124.952689
-3109.239412
-3101.326895
-3101.662171
-3104.120863
-3102.511537
-3101.505709
-3100.477529
-3102.533889
-3105.417264
-3105.484319
-3107.093645
-3111.38518
-3111.921622
-3110.334648
-3108.412398
-3110.044075
-3115.676715
-3144.689279
-3233.760981
-3332.712154
-3383.629427
-3374.621674
-3350.526494
-3199.048722
-2900.988209
-2695.262753
-2555.564351
-2253.279359
-1892.075168
-1602.26245
-1369.670197
-1379.773185
-1643.300252
-1996.480166
-2312.600888
-2593.897592
-2823.628822
-2996.117234
-3084.60779
-3121.018782
-3142.096477
-3160.894294
-3175.937018
-3187.11289
-3202.87087
-3217.891242
-3227.949527
-3237.180798
-3249.206036
-3256.738574
-3265.343996
-3269.36731
-3273.457679
-3279.87263
-3285.795842
-3293.820118
-3298.938668
-3306.337095
-3316.127159
-3323.883214
-3331.616918
-3344.357412
-3354.32629
-3363.825782
-3377.460346
-3389.530288
-3402.293134
-3415.637125
-3428.757599
-3443.129771
-3461.480553
-3479.518411
-3493.376493
-3506.40756
-3523.908976
-3540.538673
-3553.100354
-3563.158639
-3572.233447
-3581.2412
-3582.671712
-3579.855392
-3579.721281
-3577.754328
-3570.042976
-3564.902075
-3560.409374
-3550.865179
-3537.387077
-3519.639792
-3500.059664
-3475.070414
-3438.972347
-3401.443768
-3366.463288
-3330.767552
-3292.993104
-3256.000967
-3227.547196
-3203.094387
-3180.742643
-3160.313149
-3145.85157
-3135.681526
-3124.416247
-3114.223851
-3107.071293
-3105.216098
-3103.740883
-3097.862375
-3097.348284
-3100.321066
-3103.137386
-3102.265668
-3103.450311
-3108.43475
-3112.435712
-3113.262726
-3112.011029
-3113.888575
-3118.314221
-3123.902157
-3129.758314
-3136.88852
-3138.497846
-3138.430791
-3134.027497
-3132.574634
-3137.939052
-3138.766067
-3137.201445
-3138.654308
-3139.369564
-3139.302509
-3133.781628
-3131.50175
-3133.513407
-3132.976965
-3128.663078
-3126.092628
-3125.310317
-3123.455122
-3115.967288
-3114.156796
-3113.843872
-3116.347267
-3115.632011
-3109.59704
-3109.909965
-3109.08295
-3106.110168
-3105.841947
-3107.183052
-3109.306468
-3109.127654
-3104.277325
-3103.942049
-3108.43475
-3104.836119
-3097.348284
-3096.387159
-3099.33759
-3100.36577
-3097.057712
-3092.363845
-3094.777834
-3097.594154
-3096.588325
-3092.542659
-3094.330799
-3095.917773
-3096.051883
-3093.19086
-3092.229735
-3094.196688
-3094.062578
-3090.732168
-3096.610677
-3109.284116
-3112.79334
-3104.254973
-3097.504747
-3100.87986
-3119.990602
-3143.571692
-3165.856381
-3181.502602
-3188.00696
-3179.222724
-3156.200428
-3155.552227
-3157.832105
-3146.857398
-3134.519235
-3121.488168
-3113.575651
-3110.87109
-3091.7827
-3080.8974
-3079.35513
-3079.131613
-3077.835211
-3080.115089
-3082.730244
-3082.082043
-3077.29877
-3077.008197
-3079.645703
-3080.495069
-3078.371653
-3075.555334
-3077.634046
-3081.612656
-3086.619447
-3118.381276
-3226.898995
-3358.014328
-3398.627448
-3361.992939
-3290.266191
-3021.151188
-2692.580544
-2486.36335
-2340.585272
-2032.086495
-1694.128119
-1422.420314
-1182.76491
-1318.730571
-1680.180631
-2064.56358
-2419.911613
-2691.775881
-2905.235041
-3036.663298
-3085.367749
-3104.478491
-3120.281174
-3134.429828
-3150.72425
-3169.186791
-3185.458861
-3198.556983
-3206.380094
-3215.209033
-3225.80376
-3231.414048
-3234.208016
-3239.192455
-3248.110801
-3255.710394
-3259.152563
-3265.098127
-3275.916371
-3282.331322
-3288.299237
-3295.027112
-3304.638362
-3314.741351
-3320.977488
-3330.342869
-3343.440991
-3357.924921
-3370.866581
-3382.489488
-3399.365055
-3416.195919
-3429.964594
-3446.348422
-3463.536914
-3480.680702
-3495.052873
-3509.246231
-3524.244252
-3535.062496
-3540.87395
-3541.812723
-3543.377345
-3544.182008
-3539.935176
-3536.090676
-3528.379324
-3519.259813
-3507.547499
-3487.609743
-3469.303664
-3449.589425
-3424.354306
-3389.55264
-3349.654776
-3314.629592
-3280.409071
-3245.54035
-3209.174062
-3177.479288
-3158.27914
-3141.224759
-3120.929375
-3106.244279
-3097.862375
-3090.151023
-3077.991674
-3069.050976
-3066.748746
-3066.189953
-3060.087926
-3054.902322
-3055.237598
-3057.852752
-3059.305615
-3058.188028
-3059.596188
-3063.016005
-3064.8712
-3067.374595
-3072.604903
-3078.751633
-3080.986807
-3082.707892
-3086.440633
-3091.849755
-3097.817671
-3099.248183
-3096.096587
-3100.209308
-3104.009104
-3100.946915
-3099.874032
-3101.483357
-3101.639819
-3099.494052
-3099.114072
-3101.036322
-3099.181127
-3092.497956
-3088.653456
-3089.435767
-3086.708854
-3082.953761
-3078.952799
-3078.639874
-3077.835211
-3072.895476
-3070.749709
-3071.934351
-3071.643778
-3071.107336
-3066.949912
-3066.592284
-3069.967397
-3071.599075
-3071.755537
-3069.028624
-3069.252142
-3069.22979
-3070.369729
-3068.536886
-3067.508706
-3069.945046
-3067.843982
-3063.418336
-3062.70308
-3064.11124
-3061.943121
-3063.306578
-3062.971301
-3065.38529
-3065.675863
-3064.848848
-3065.720566
-3065.608807
-3068.693348
-3075.778851
-3078.729281
-3077.455232
-3075.443575
-3074.348339
-3088.921677
-3113.285078
-3139.19075
-3153.562922
-3158.457954
-3148.869055
-3129.691259
-3129.5795
-3124.863282
-3116.749599
-3109.820558
-3095.582497
-3087.982903
-3084.853659
-3067.95574
-3053.315348
-3047.235673
-3047.258025
-3049.448496
-3049.895531
-3049.940234
-3051.147229
-3052.95772
-3052.667147
-3048.777944
-3046.051031
-3047.906226
-3050.074345
-3050.029641
-3048.621481
-3055.684633
-3088.809918
-3202.401483
-3358.148439
-3408.998657
-3362.037642
-3236.06321
-2888.158308
-2532.743219
-2303.704894
-2159.89377
-1878.328845
-1526.311222
-1224.339154
-1000.888765
-1201.875651
-1575.373301
-2014.763893
-2406.567622
-2681.292913
-2898.931849
-3013.641001
-3050.074345
-3070.727357
-3087.781738
-3109.418226
-3130.831198
-3149.405497
-3161.900122
-3176.451108
-3192.030274
-3201.708579
-3210.895146
-3218.070056
-3224.01562
-3229.469446
-3235.571472
-3242.522865
-3249.027222
-3256.783278
-3265.321644
-3272.675368
-3280.297313
-3291.651999
-3299.698627
-3307.477034
-3320.016363
-3331.326345
-3342.457514
-3354.438049
-3368.92198
-3387.429224
-3403.030742
-3414.988925
-3435.239605
-3455.244417
-3472.544667
-3488.481461
-3507.614554
-3524.557176
-3538.303499
-3546.953624
-3554.799086
-3564.790316
-3570.065328
-3567.964264
-3563.136287
-3563.717432
-3555.804915
-3541.432743
-3526.166502
-3509.693266
-3490.001379
-3465.302702
-3430.858663
-3394.291209
-3355.935616
-3314.450778
-3273.34592
-3237.516074
-3207.654143
-3177.50164
-3151.61832
-3129.19952
-3113.061561
-3098.868203
-3087.178241
-3077.857563
-3072.761366
-3066.122897
-3060.289092
-3055.617578
-3054.432935
-3056.779868
-3053.695327
-3049.739069
-3055.192894
-3057.338662
-3057.428069
-3058.813877
-3060.602017
-3064.8712
-3068.000444
-3070.503839
-3075.175354
-3080.472717
-3078.103432
-3077.365825
-3080.964456
-3089.100491
-3089.324008
-3087.066482
-3087.334703
-3089.882802
-3093.146156
-3090.933334
-3089.592229
-3090.598058
-3088.295828
-3085.300694
-3083.333741
-3084.451328
-3085.412453
-3079.153964
-3076.382348
-3076.248238
-3075.421223
-3070.749709
-3066.771098
-3068.603941
-3071.263799
-3067.732223
-3066.234656
-3065.497049
-3064.11124
-3061.920769
-3058.769173
-3055.863447
-3058.880932
-3058.389194
-3055.39406
-3053.114182
-3052.622444
-3054.097659
-3054.969377
-3050.923711
-3050.968415
-3052.778906
-3051.303691
-3050.767249
-3052.711851
-3055.081136
-3054.410583
-3052.086002
-3053.762383
-3057.629235
-3058.702118
-3054.097659
-3053.561217
-3057.115144
-3055.885798
-3053.672976
-3051.907188
-3050.901359
-3049.560255
-3050.722545
-3050.253159
-3054.455287
-3065.429993
-3071.934351
-3070.749709
-3068.693348
-3069.140383
-3073.230752
-3092.609715
-3121.041134
-3147.282082
-3157.206256
-3154.94873
-3138.877826
-3128.461913
-3128.640727
-3122.114017
-3111.809863
-3097.013008
-3082.730244
-3076.91879
-3067.68752
-3057.517476
-3051.840133
-3049.157923
-3049.24733
-3049.560255
-3052.041298
-3051.281339
-3047.70506
-3047.638005
-3052.376575
-3052.331871
-3050.543732
-3053.672976
-3055.90815
-3053.315348
-3054.209418
-3067.911037
-3130.540625
-3274.396452
-3387.608038
-3386.535154
-3334.679107
-3139.928358
-2762.250932
-2468.861934
-2320.021667
-2154.283482
-1807.473815
-1487.665056
-1162.290712
-1088.59701
-1392.7819
-1795.582687
-2219.036486
-2552.144534
-2801.165319
-2980.739234
-3058.255083
-3083.534906
-3099.4717
-3112.323953
-3127.724305
-3152.914721
-3170.796117
-3183.335445
-3193.281972
-3206.424797
-3216.438379
-3221.780446
-3231.123475
-3243.819266
-3253.139943
-3256.515057
-3266.126307
-3274.731728
-3282.733653
-3290.37795
-3295.831775
-3307.588793
-3321.26806
-3331.885139
-3341.027002
-3353.611035
-3369.212552
-3382.064805
-3394.090044
-3408.171643
-3425.918928
-3444.157951
-3457.948978
-3475.584504
-3500.126719
-3519.438627
-3535.643641
-3552.161581
-3570.355901
-3583.498726
-3590.248953
-3600.575459
-3609.80673
-3608.1527
-3605.381084
-3604.151738
-3600.910735
-3594.339322
-3581.352959
-3567.070194
-3552.116877
-3529.943947
-3500.216126
-3467.180248
-3429.852835
-3393.732416
-3357.232017
-3316.283621
-3277.324531
-3246.255606
-3220.215824
-3194.488966
-3169.231495
-3153.92055
-3141.291814
-3126.226738
-3114.894404
-3110.982849
-3105.841947
-3100.902212
-3098.510575
-3097.392988
-3096.565973
-3095.001351
-3090.732168
-3093.369674
-3099.114072
-3103.495014
-3106.199575
-3105.841947
-3111.429883
-3116.056695
-3116.25786
-3116.593136
-3124.617413
-3126.539663
-3128.998355
-3129.825369
-3133.580462
-3137.13439
-3133.535759
-3129.646555
-3131.077067
-3134.45218
-3131.568805
-3129.467741
-3129.043058
-3130.2277
-3129.06541
-3125.802055
-3126.539663
-3125.913814
-3120.661154
-3116.682543
-3117.218985
-3119.320049
-3115.60966
-3117.330744
-3116.839006
-3118.247165
-3117.062523
-3110.982849
-3108.747674
-3105.663133
-3106.847776
-3107.518328
-3107.92066
-3107.071293
-3107.808901
-3105.573726
-3106.959535
-3107.697142
-3109.150005
-3106.959535
-3106.758369
-3103.517366
-3106.423093
-3105.685485
-3106.534851
-3106.490148
-3106.087816
-3105.685485
-3101.461005
-3098.532927
-3102.131558
-3106.736017
-3108.479453
-3110.759331
-3109.97702
-3112.122787
-3113.218023
-3114.357962
-3113.776817
-3115.810825
-3115.22968
-3112.458064
-3115.74377
-3121.108189
-3119.20829
-3116.436674
-3123.388067
-3138.184922
-3142.945843
-3136.486189
-3132.686392
-3136.24032
-3145.248073
-3166.99632
-3188.878678
-3211.431588
-3215.141978
-3206.268335
-3203.519071
-3197.4841
-3194.936001
-3180.83205
-3171.444317
-3159.530837
-3150.388974
-3139.950709
-3122.605756
-3117.777779
-3117.375447
-3121.443465
-3124.863282
-3127.634898
-3126.137331
-3126.696125
-3126.316145
-3126.338497
-3125.019744
-3125.578538
-3124.528006
-3123.119846
-3125.86911
-3129.087762
-3130.048887
-3148.042041
-3218.338277
-3329.873482
-3401.957858
-3401.868451
-3389.664398
-3305.018342
-3035.098676
-2770.118746
-2640.210407
-2414.301326
-2044.715231
-1735.568253
-1463.659282
-1371.279522
-1550.004071
-1897.976029
-2230.458227
-2535.425429
-2781.272266
-2968.490478
-3085.166584
-3141.403573
-3168.426832
-3187.649332
-3202.692056
-3215.320792
-3229.558853
-3245.16037
-3257.140906
-3269.188496
-3280.453775
-3288.165127
-3294.490671
-3303.252554
-3311.098017
-3319.189348
-3325.35843
-3332.108656
-3338.81418
-3345.117372
-3349.721831
-3358.059032
-3370.710119
-3381.349549
-3389.127957
-3396.973419
-3409.512747
-3423.527291
-3435.150198
-3448.248321
-3461.368795
-3479.496059
-3498.562097
-3508.955659
-3527.507606
-3549.322909
-3565.304406
-3576.077947
-3590.673636
-3605.761064
-3615.685238
-3619.93207
-3623.061314
-3627.911643
-3627.062276
-3623.463645
-3616.400494
-3614.254727
-3608.53268
-3595.479261
-3583.252857
-3573.596904
-3555.894322
-3528.804008
-3494.941115
-3462.061699
-3424.331954
-3385.70814
-3348.738354
-3315.724828
-3286.712263
-3258.660824
-3233.246891
-3215.209033
-3203.228498
-3189.281009
-3178.105137
-3166.929265
-3160.380204
-3154.613454
-3149.561959
-3151.305396
-3153.339404
-3154.05466
-3153.831143
-3157.094497
-3159.82141
-3161.721308
-3161.788364
-3164.627035
-3167.957445
-3171.891352
-3174.417099
-3177.702806
-3182.821355
-3185.637675
-3183.961294
-3182.843707
-3185.57062
-3186.844669
-3187.559925
-3187.805794
-3185.637675
-3190.711521
-3193.080806
-3188.90103
-3184.005998
-3182.821355
-3182.731948
-3179.759166
-3176.808736
-3176.361701
-3177.658102
-3174.014768
-3169.007977
-3168.225666
-3168.873867
-3163.66591
-3160.357852
-3161.006053
-3162.749489
-3159.732003
-3155.306358
-3156.938035
-3158.189733
-3155.440468
-3150.679547
-3148.623186
-3151.484209
-3150.836009
-3149.69607
-3148.28791
-3150.053698
-3149.383145
-3148.846704
-3149.047869
-3148.869055
-3147.036212
-3147.483247
-3145.046907
-3144.82339
-3145.493942
-3151.23834
-3160.737832
-3164.627035
-3159.754355
-3154.43464
-3149.338442
-3163.285931
-3190.286838
-3214.873757
-3232.732801
-3240.891187
-3234.811513
-3211.789216
-3204.435492
-3203.541422
-3196.992361
-3186.97878
-3169.544419
-3160.894294
-3154.971082
-3139.05664
-3131.322936
-3127.031401
-3130.562977
-3133.222834
-3133.781628
-3133.781628
-3135.502712
-3133.513407
-3132.976965
-3131.211177
-3130.719439
-3131.12177
-3129.735962
-3130.428866
-3133.960442
-3139.816599
-3166.661044
-3256.760926
-3387.161003
-3454.305643
-3428.534082
-3370.553657
-3141.113
-2795.376217
-2562.180467
-2424.471369
-2142.951148
-1783.669208
-1518.845739
-1256.905646
-1312.896766
-1642.272072
-2029.672507
-2400.666761
-2687.037311
-2914.71218
-3068.626293
-3133.468703
-3153.92055
-3171.086689
-3189.370416
-3206.424797
-3223.255661
-3231.436399
-3248.535484
-3261.365385
-3270.239028
-3278.799746
-3288.746272
-3295.004761
-3297.351694
-3302.693761
-3309.153415
-3317.356505
-3325.87252
-3330.275813
-3336.936633
-3348.514837
-3358.707232
-3362.887009
-3370.911285
-3387.63039
-3396.816957
-3405.198861
-3416.397085
-3432.758562
-3447.488361
-3458.686585
-3474.712786
-3492.929458
-3510.497929
-3525.272432
-3540.203397
-3558.777697
-3575.34034
-3587.276171
-3592.059444
-3599.256706
-3609.605564
-3614.835872
-3614.16532
-3613.338305
-3611.572517
-3603.436482
-3589.891325
-3575.139174
-3560.61054
-3542.595034
-3518.164577
-3489.688455
-3457.367832
-3421.158006
-3381.662474
-3341.89872
-3308.482863
-3279.291484
-3247.999042
-3218.181815
-3198.959315
-3185.257695
-3171.801945
-3155.373413
-3145.628052
-3138.341384
-3130.205349
-3119.565918
-3117.107227
-3117.934241
-3114.626183
-3112.011029
-3113.463892
-3116.682543
-3118.984773
-3120.124712
-3121.801093
-3127.769009
-3131.412343
-3133.379296
-3133.982794
-3140.420096
-3146.410363
-3148.466724
-3149.941939
-3155.306358
-3154.009957
-3149.092573
-3150.299567
-3154.792268
-3152.825314
-3152.177114
-3148.712593
-3148.42202
-3147.662061
-3147.25973
-3144.085782
-3142.632919
-3145.181018
-3143.214064
-3137.447314
-3136.016802
-3136.553244
-3134.362773
-3132.418171
-3134.116904
-3134.787456
-3134.698049
-3129.803017
-3123.835102
-3124.237433
-3125.198558
-3122.829273
-3120.974078
-3119.230642
-3120.10236
-3119.722381
-3117.934241
-3115.296735
-3114.492072
-3113.955631
-3111.832215
-3110.088779
-3111.809863
-3114.514424
-3113.776817
-3112.838043
-3114.872052
-3115.22968
-3114.022686
-3114.179148
-3117.040171
-3120.594099
-3129.467741
-3133.222834
-3128.819541
-3122.851625
-3120.594099
-3126.226738
-3150.456029
-3179.04391
-3202.513242
-3212.124492
-3208.212937
-3185.414158
-3177.88162
-3176.495812
-3168.940922
-3158.972044
-3144.421058
-3133.289889
-3129.087762
-3116.190805
-3102.80211
-3098.488223
-3098.264706
-3101.639819
-3103.517366
-3100.768101
-3096.700084
-3099.136424
-3101.751578
-3098.667037
-3093.950819
-3093.213212
-3096.968305
-3096.185994
-3096.185994
-3100.969267
-3124.975041
-3214.985515
-3372.162982
-3449.567074
-3422.566166
-3338.970642
-3052.756554
-2668.664177
-2404.220689
-2258.822591
-2018.42958
-1645.893055
-1344.993871
-1069.016882
-1163.542409
-1517.124655
-1939.997308
-2360.321863
-2660.706956
-2893.030988
-3045.179313
-3103.405607
-3126.070276
-3141.917663
-3160.514314
-3181.748471
-3199.853384
-3212.392713
-3224.105027
-3237.270205
-3247.350841
-3256.448001
-3261.879475
-3273.591789
-3282.756005
-3286.041711
-3287.986313
-3294.334208
-3307.007647
-3314.696647
-3317.378857
-3327.235976
-3336.646061
-3344.893854
-3351.867599
-3364.473982
-3378.309712
-3390.178489
-3403.187204
-3418.028762
-3436.468951
-3452.4728
-3465.816792
-3483.98876
-3503.390074
-3521.740856
-3538.57172
-3555.179066
-3573.395738
-3588.840793
-3597.714436
-3607.12452
-3618.032171
-3624.178901
-3623.821273
-3621.496692
-3617.294564
-3611.080779
-3599.659038
-3581.688235
-3564.119764
-3545.143133
-3519.013944
-3484.167574
-3448.069507
-3410.69739
-3374.174639
-3332.510988
-3294.401264
-3262.482972
-3231.503455
-3203.541422
-3180.496774
-3164.314111
-3149.047869
-3134.943919
-3124.572709
-3120.303526
-3116.928413
-3111.072256
-3105.529023
-3101.90804
-3100.656343
-3098.354113
-3094.934296
-3097.392988
-3104.769064
-3108.501805
-3106.803072
-3111.943974
-3120.504692
-3124.528006
-3121.488168
-3125.064448
-3131.948785
-3136.709706
-3137.469666
-3139.123695
-3141.671794
-3139.503674
-3137.939052
-3137.112038
-3141.49298
-3139.503674
-3135.301546
-3131.948785
-3133.93809
-3137.246148
-3136.061506
-3133.647517
-3132.731096
-3131.658212
-3127.813712
-3125.176206
-3123.499825
-3123.343363
-3123.119846
-3119.364753
-3116.459026
-3119.096532
-3119.141235
-3114.983811
-3114.425017
-3114.626183
-3116.660192
-3112.212194
-3106.601907
-3107.54068
-3108.233584
-3105.10434
-3103.986753
-3104.500843
-3105.305505
-3103.874994
-3100.321066
-3103.718532
-3116.146101
-3122.605756
-3122.002259
-3117.487206
-3117.755427
-3124.103323
-3142.074125
-3164.537628
-3191.918515
-3211.342181
-3208.279992
-3185.637675
-3171.2208
-3170.773765
-3161.386032
-3150.59014
-3136.687355
-3126.472607
-3121.622279
-3102.489186
-3092.207383
-3093.548488
-3092.453252
-3090.732168
-3092.341494
-3093.727302
-3090.151023
-3086.462985
-3086.53004
-3087.848793
-3087.312351
-3087.915848
-3087.468813
-3088.251124
-3091.670941
-3092.16268
-3105.283154
-3174.126527
-3324.173787
-3429.27169
-3420.129826
-3372.095927
-3166.057547
-2778.657112
-2482.675312
-2334.66206
-2137.251453
-1756.265969
-1415.2007
-1095.77192
-1096.062493
-1413.747837
-1818.672039
-2248.227864
-2586.923848
-2840.862017
-3012.21049
-3084.719549
-3111.631049
-3134.161608
-3150.321919
-3165.699919
-3185.436509
-3206.491853
-3220.841673
-3233.716277
-3244.311004
-3253.497571
-3259.689004
-3266.439231
-3276.631627
-3286.980484
-3292.993104
-3296.748197
-3306.78413
-3319.748142
-3328.085342
-3333.539168
-3341.876369
-3352.158171
-3365.077479
-3372.721776
-3381.10368
-3398.850965
-3413.603117
-3425.628355
-3443.688565
-3462.374623
-3479.965446
-3496.595144
-3513.157787
-3534.011964
-3555.469639
-3571.562895
-3583.945761
-3600.486052
-3614.098264
-3625.028268
-3628.917471
-3635.533587
-3639.66866
-3639.601605
-3635.421829
-3627.375201
-3620.647326
-3608.957363
-3591.165375
-3571.160563
-3549.993461
-3523.819569
-3489.911972
-3451.086992
-3410.228003
-3367.759689
-3326.00663
-3289.573287
-3260.851295
-3238.119571
-3211.118664
-3190.130376
-3177.680454
-3166.526933
-3152.467686
-3143.728154
-3136.88852
-3132.708744
-3128.596023
-3124.304488
-3125.86911
-3129.937128
-3134.630994
-3132.820503
-3133.133427
-3138.788419
-3141.045945
-3144.175189
-3146.544474
-3153.227646
-3157.228608
-3156.021614
-3156.312186
-3158.256788
-3162.905951
-3162.414213
-3158.592064
-3155.798096
-3158.346195
-3157.496829
-3153.652329
-3152.892369
-3156.021614
-3155.97691
-3151.841837
-3153.071183
-3152.177114
-3150.72425
-3149.472552
-3147.77382
-3147.304433
-3144.622224
-3142.275291
-3140.934186
-3142.722326
-3144.510465
-3141.023593
-3139.816599
-3139.727192
-3139.883654
-3136.195616
-3131.546453
-3133.736924
-3136.709706
-3133.111076
-3130.875901
-3132.239358
-3142.163532
-3145.516294
-3143.392878
-3140.889483
-3150.165457
-3158.502657
-3162.414213
-3181.502602
-3212.839748
-3223.322716
-3240.511208
-3242.478161
-3219.567623
-3206.648315
-3201.84269
-3187.358759
-3172.24898
-3165.699919
-3161.676605
-3141.068297
-3124.036267
-3119.945898
-3121.152892
-3119.521215
-3119.275346
-3124.617413
-3129.668907
-3124.572709
-3122.114017
-3124.349192
-3125.980869
-3126.025573
-3124.684468
-3124.84093
-3126.964346
-3126.137331
-3124.751523
-3146.142143
-3219.321754
-3333.986203
-3415.05598
-3425.516596
-3417.626431
-3329.873482
-3051.102525
-2777.718339
-2644.233721
-2406.433512
-2014.33921
-1682.661674
-1382.455395
-1275.234076
-1479.081986
-1864.895447
-2230.033544
-2547.338909
-2798.572516
-2990.037559
-3101.930392
-3147.885579
-3167.935093
-3185.749434
-3202.535594
-3220.17112
-3236.599652
-3252.536446
-3265.947493
-3277.905676
-3289.126252
-3296.971714
-3304.057217
-3311.5227
-3316.462435
-3322.765627
-3333.405058
-3345.005613
-3351.733488
-3358.55077
-3366.776212
-3376.923904
-3384.992884
-3393.866526
-3408.037532
-3425.158969
-3439.575844
-3451.019937
-3461.94994
-3476.791498
-3495.678722
-3515.415313
-3531.173293
-3550.284034
-3567.964264
-3582.805822
-3596.261572
-3613.159491
-3626.481131
-3642.239111
-3650.397497
-3655.985434
-3662.266274
-3660.567541
-3657.974739
-3654.152591
-3650.509256
-3645.256596
-3636.271195
-3623.26248
-3612.310125
-3600.888383
-3575.317988
-3541.991537
-3506.675781
-3469.281312
-3428.89171
-3386.915134
-3346.726697
-3313.512005
-3285.885249
-3260.471315
-3242.567568
-3226.496664
-3209.956373
-3196.07594
-3186.554097
-3180.988512
-3176.98755
-3172.919532
-3171.153745
-3176.205239
-3178.887448
-3176.741681
-3175.177059
-3181.86023
-3185.727082
-3188.096367
-3191.002094
-3193.863117
-3196.098291
-3199.048722
-3201.216841
-3202.468539
-3206.20128
-3204.547251
-3200.836861
-3202.110911
-3203.921402
-3203.697885
-3201.395655
-3202.177966
-3204.055512
-3204.480196
-3203.183794
-3197.439396
-3198.221707
-3198.51228
-3194.600725
-3190.242134
-3192.007922
-3199.071073
-3202.245021
-3199.16048
-3197.595858
-3187.604629
-3188.297533
-3193.192565
-3205.106044
-3218.137111
-3220.506396
-3205.977762
-3223.747399
-3268.98733
-3284.208868
-3274.821135
-3263.622911
-3246.769696
-3223.412123
-3206.178928
-3196.388864
-3183.804832
-3168.225666
-3156.155724
-3154.456991
-3159.17321
-3160.536666
-3160.380204
-3156.893332
-3155.932207
-3160.894294
-3160.737832
-3161.989529
-3159.374375
-3158.145029
-3157.38507
-3155.395765
-3152.177114
-3152.065355
-3153.115887
-3156.647462
-3185.771785
-3272.876534
-3378.868506
-3441.542797
-3441.699259
-3422.543814
-3301.240897
-3016.859653
-2780.109975
-2649.598139
-2352.051717
-1954.190666
-1630.313889
-1402.884889
-1397.498119
-1640.975671
-2004.325629
-2343.558054
-2647.631186
-2875.507221
-3040.574853
-3135.972099
-3178.060434
-3195.941829
-3212.504472
-3227.770713
-3243.148713
-3259.197266
-3271.334263
-3281.772528
-3292.344903
-3302.157319
-3307.901717
-3313.914336
-3321.379819
-3329.85113
-3333.18154
-3335.863749
-3344.469171
-3356.807334
-3363.624616
-3370.419546
-3379.539058
-3392.748939
-3404.93064
-3413.983096
-3424.331954
-3435.351364
-3447.376603
-3461.033518
-3476.232705
-3494.985818
-3511.995496
-3528.133455
-3543.332642
-3564.343281
-3580.369482
-3593.959343
-3608.309163
-3621.921375
-3634.907739
-3642.440276
-3645.100134
-3645.81539
-3646.798867
-3645.81539
-3638.595776
-3631.46557
-3628.939823
-3616.892233
-3599.323761
-3583.074043
-3564.298578
-3530.726258
-3488.883792
-3447.73423
-3409.624506
-3370.061919
-3329.20293
-3291.719054
-3264.494629
-3240.399449
-3216.907765
-3196.545326
-3179.893277
-3170.282027
-3160.916646
-3151.908893
-3146.857398
-3143.392878
-3139.235454
-3138.028459
-3139.883654
-3142.90114
-3141.962366
-3140.777724
-3143.169361
-3145.762163
-3150.21016
-3153.92055
-3157.452125
-3158.212085
-3161.341329
-3163.174172
-3162.794192
-3163.598855
-3166.258713
-3166.929265
-3164.872904
-3165.699919
-3168.359777
-3168.315073
-3164.69409
-3167.957445
-3169.566771
-3167.108079
-3162.213047
-3160.111983
-3164.04589
-3172.450146
-3169.924399
-3161.900122
-3158.659119
-3163.218875
-3170.170268
-3180.385015
-3191.404425
-3195.763015
-3184.475384
-3204.502547
-3244.154542
-3256.716222
-3249.921292
-3232.352821
-3215.164329
-3198.333466
-3179.580352
-3163.129468
-3153.339404
-3136.061506
-3124.550357
-3119.141235
-3120.169415
-3121.398761
-3119.58827
-3118.962421
-3120.594099
-3122.5387
-3121.063485
-3119.610622
-3118.269517
-3118.627145
-3118.403628
-3117.353096
-3114.447369
-3114.872052
-3116.77195
-3115.632011
-3135.055677
-3219.075885
-3361.903532
-3448.673004
-3430.143408
-3368.184372
-3142.342346
-2772.912714
-2521.142664
-2405.584145
-2176.121137
-1808.323182
-1497.410416
-1198.14291
-1260.705443
-1609.862043
-2018.273117
-2412.267317
-2705.611611
-2932.437114
-3076.270589
-3127.903119
-3146.589177
-3165.699919
-3176.764032
-3192.074977
-3209.285821
-3225.312021
-3241.025298
-3251.351804
-3260.40426
-3270.976635
-3281.370197
-3285.63938
-3292.881345
-3302.246726
-3307.409979
-3311.165072
-3320.038714
-3330.499331
-3340.35645
-3347.307843
-3353.856904
-3363.982244
-3375.515744
-3382.556544
-3391.676055
-3407.992829
-3424.488416
-3437.228911
-3450.014108
-3467.180248
-3484.525202
-3499.903202
-3514.431836
-3535.665993
-3554.84379
-3569.774755
-3580.704758
-3590.964209
-3602.63182
-3608.197404
-3610.790206
-3613.584174
-3615.685238
-3614.187671
-3609.873785
-3604.531718
-3596.932125
-3583.16345
-3564.030357
-3538.750534
-3510.632039
-3480.412481
-3440.738134
-3399.476814
-3357.880218
-3320.23988
-3284.968827
-3253.072888
-3225.893167
-3203.541422
-3185.05653
-3171.578428
-3159.329672
-3149.427849
-3140.040116
-3127.053753
-3119.252994
-3118.314221
-3119.700029
-3120.594099
-3121.644631
-3127.545491
-3131.546453
-3129.825369
-3129.423038
-3134.228663
-3142.565863
-3145.158666
-3145.181018
-3147.036212
-3145.583349
-3147.103268
-3147.77382
-3153.697032
-3164.917608
-3172.003111
-3176.764032
-3179.826221
-3177.345178
-3166.750451
-3146.74564
-3137.13439
-3138.989584
-3140.129523
-3143.258768
-3144.57752
-3148.757297
-3150.657195
-3143.638747
-3136.419134
-3138.341384
-3143.638747
-3156.736869
-3168.113907
-3173.992416
-3174.55121
-3180.653236
-3216.058399
-3234.14096
-3234.051553
-3219.791141
-3204.211975
-3189.281009
-3173.254809
-3155.485172
-3145.292776
-3131.211177
-3112.391008
-3105.61843
-3109.440578
-3111.184014
-3112.368657
-3112.949802
-3113.598003
-3111.742808
-3109.261764
-3110.49111
-3104.612601
-3099.941087
-3098.979962
-3095.806014
-3101.371598
-3104.254973
-3102.220965
-3103.852642
-3113.776817
-3158.390899
-3290.623819
-3433.071486
-3460.787649
-3415.458311
-3271.714243
-2903.826881
-2570.115336
-2388.440357
-2233.498065
-1889.996456
-1532.05562
-1190.208041
-1073.397824
-1357.913179
-1763.396175
-2201.512718
-2555.899627
-2818.957307
-3010.601164
-3096.633029
-3119.767084
-3138.587253
-3157.675643
-3174.931189
-3190.577411
-3207.765902
-3224.306193
-3235.124437
-3242.902844
-3252.603501
-3264.718147
-3269.702586
-3273.167106
-3280.274961
-3290.087377
-3301.777339
-3307.655848
-3313.377895
-3324.330249
-3335.528473
-3345.698517
-3352.135819
-3360.853
-3372.945294
-3384.679959
-3399.029779
-3412.150253
-3428.332916
-3442.123943
-3457.010204
-3473.34933
-3489.464937
-3507.458092
-3522.791388
-3538.169389
-3558.129496
-3577.284941
-3590.092491
-3603.79411
-3612.779512
-3620.222642
-3623.463645
-3618.814483
-3617.831006
-3618.255689
-3612.37718
-3599.659038
-3587.544392
-3573.261627
-3554.039127
-3527.507606
-3493.108272
-3455.870265
-3415.279498
-3366.463288
-3323.95027
-3288.478051
-3252.491743
-3224.864987
-3201.038027
-3182.977817
-3165.118774
-3149.807829
-3137.089686
-3127.523139
-3127.165512
-3124.46095
-3117.911889
-3117.241337
-3116.079046
-3118.18011
-3119.297697
-3123.276308
-3125.466779
-3125.243261
-3127.187863
-3129.221872
-3130.294756
-3132.060544
-3132.932262
-3139.458971
-3142.677622
-3145.47159
-3147.505599
-3145.024555
-3147.863227
-3152.177114
-3151.215989
-3147.863227
-3147.215026
-3152.065355
-3147.483247
-3142.029422
-3145.650404
-3143.102305
-3138.520198
-3133.647517
-3131.971137
-3134.183959
-3135.748581
-3130.451218
-3123.768046
-3123.902157
-3130.272404
-3132.552282
-3129.624203
-3122.002259
-3113.553299
-3108.770026
-3103.986753
-3105.75254
-3105.864299
-3113.240375
-3123.209253
-3135.279195
-3145.806866
-3150.008994
-3155.865151
-3195.047759
-3218.852367
-3211.543347
-3190.175079
-3183.961294
-3180.161498
-3159.486134
-3137.715535
-3123.142198
-3104.232622
-3087.222944
-3083.154927
-3083.378444
-3087.80409
-3091.089796
-3089.189898
-3086.842965
-3087.379406
-3082.998464
-3069.654473
-3067.061671
-3077.455232
-3086.060653
-3086.731206
-3079.824517
-3069.296845
-3073.856601
-3077.030549
-3085.948895
-3131.859378
-3245.02626
-3377.63916
-3411.122073
-3365.233942
-3280.073795
-2975.486574
-2631.292061
-2445.079678
-2339.870017
-2045.542246
-1666.411956
-1314.193167
-1077.152917
-1273.155364
-1653.693814
-2087.161194
-2477.26619
-2754.338414
-2956.778164
-3054.790563
-3080.316255
-3106.445444
-3132.328764
-3154.166419
-3174.417099
-3190.175079
-3201.865041
-3214.78435
-3229.000059
-3249.362498
-3266.863914
-3272.116574
-3267.333301
-3268.115612
-3273.390624
-3282.532487
-3296.077644
-3305.040694
-3315.478959
-3325.693706
-3337.316613
-3350.99588
-3358.148439
-3377.929733
-3389.709102
-3404.327143
-3415.257146
-3428.668192
-3439.061754
-3453.076297
-3477.573809
-3499.813795
-3518.410446
-3528.58049
-3540.985708
-3559.828229
-3575.250933
-3596.686256
-3624.402419
-3639.53455
-3640.160399
-3633.097247
-3631.331459
-3643.51316
-3644.54134
-3628.403381
-3606.409264
-3592.797052
-3583.297561
-3575.273284
-3563.851543
-3544.293767
-3509.201528
-3473.192867
-3436.603062
-3391.005503
-3340.334098
-3289.819156
-3253.184647
-3227.033106
-3208.056475
-3187.694035
-3174.975893
-3162.794192
-3147.706765
-3135.21214
-3137.290852
-3148.980814
-3164.247056
-3166.236361
-3150.545436
-3139.391916
-3139.548378
-3137.804942
-3132.731096
-3144.599872
-3169.902047
-3181.010864
-3179.781518
-3159.933169
-3140.330689
-3143.281119
-3153.227646
-3161.855419
-3165.632864
-3173.433623
-3175.154707
-3175.489983
-3179.781518
-3188.230477
-3185.749434
-3175.087652
-3156.178076
-3147.818523
-3148.891407
-3154.524047
-3160.089631
-3169.94675
-3165.096422
-3142.744677
-3137.469666
-3147.572654
-3147.863227
-3138.654308
-3146.209198
-3152.735907
-3141.224759
-3130.741791
-3130.764142
-3139.995413
-3146.298605
-3143.41523
-3133.088724
-3130.920605
-3135.972099
-3142.185884
-3137.894349
-3142.990547
-3147.706765
-3142.968195
-3148.913759
-3160.670776
-3175.601742
-3188.699864
-3182.731948
-3202.446187
-3252.000004
-3268.808516
-3255.799801
-3235.772638
-3217.041876
-3184.385977
-3157.25096
-3145.98568
-3145.762163
-3134.340421
-3132.127599
-3134.407477
-3133.491055
-3130.831198
-3126.182035
-3126.740828
-3134.854512
-3148.198503
-3151.528913
-3136.687355
-3131.88173
-3128.394857
-3130.898253
-3144.085782
-3164.18
-3161.877771
-3133.893387
-3112.011029
-3121.845796
-3193.25962
-3319.926956
-3405.265916
-3393.777119
-3365.748032
-3300.525642
-3085.300694
-2827.272156
-2720.96726
-2538.442914
-2152.405936
-1791.894649
-1476.422128
-1352.54876
-1533.061449
-1902.044046
-2232.648698
-2509.832681
-2753.198475
-2954.408879
-3092.833232
-3168.739756
-3192.253791
-3214.985515
-3222.920385
-3233.11278
-3236.733763
-3234.498588
-3240.846484
-3265.098127
-3313.44495
-3343.329232
-3350.99588
-3337.830703
-3318.474092
-3316.127159
-3329.985241
-3354.348642
-3387.652741
-3415.525367
-3469.25896
-3494.49408
-3475.986835
-3441.632204
-3434.591405
-3429.428152
-3418.989887
-3405.176509
-3440.916948
-3477.260885
-3498.47269
-3496.058702
-3480.479536
-3487.542687
-3505.491138
-3541.365688
-3579.363654
-3590.763043
-3600.687218
-3616.914584
-3626.570538
-3661.930998
-3686.808489
-3683.589838
-3674.358568
-3702.946449
-3714.502301
-3668.837687
-3629.565672
-3624.245956
-3609.80673
-3568.992444
-3533.587281
-3508.530975
-3507.167519
-3470.01892
-3395.699369
-3353.119296
-3331.974546
-3319.457569
-3295.027112
-3262.550028
-3219.746437
-3172.226628
-3151.573616
-3181.457899
-3189.325713
-3161.564846
-3147.25973
-3187.269352
-3194.488966
-3164.381166
-3109.641744
-3104.567898
-3134.295718
-3187.671684
-3206.603611
-3198.959315
-3191.583239
-3202.088559
-3198.266411
-3175.087652
-3167.286893
-3163.844724
-3139.369564
-3124.952689
-3143.303471
-3182.083748
-3209.799911
-3218.360629
-3205.150748
-3163.956483
-3152.892369
-3200.188661
-3244.51217
-3202.066207
-3117.28604
-3092.967342
-3140.375392
-3196.835899
-3228.910652
-3196.791195
-3152.847666
-3132.842855
-3121.845796
-3133.848683
-3141.224759
-3133.55811
-3136.396782
-3152.065355
-3157.988567
-3130.317107
-3105.283154
-3118.247165
-3149.092573
-3167.3763
-3157.854457
-3163.062413
-3179.647407
-3202.960277
-3244.668632
-3290.824984
-3272.138926
-3204.92723
-3171.779593
-3179.200373
-3191.627943
-3176.875791
-3160.424907
-3137.201445
-3112.323953
-3092.073273
-3082.797299
-3090.75452
-3105.081988
-3113.68741
-3107.272459
-3097.281229
-3096.52127
-3096.431863
-3106.177223
-3118.873014
-3119.342401
-3100.902212
-3081.567953
-3070.190915
-3081.65736
-3094.822537
-3096.029531
-3100.723398
-3134.474532
-3242.9699
-3359.131915
-3386.311637
-3335.751991
-3303.744293
-3139.838951
-2857.759936
-2699.755454
-2611.644877
-2305.44833
-1904.547442
-1570.679435
-1304.738379
-1362.0259
-1691.44591
-2081.416795
-2427.868834
-2705.85748
-2906.598497
-3038.697307
-3107.205404
-3141.515331
-3159.486134
-3169.119736
-3174.707672
-3185.369454
-3207.363571
-3227.457789
-3245.897978
-3253.251702
-3255.352766
-3253.050536
-3250.703603
-3258.839638
-3271.758946
-3279.87263
-3284.700606
-3291.137909
-3303.990162
-3315.389552
-3325.023153
-3332.980374
-3339.507084
-3349.07363
-3355.868561
-3369.95016
-3386.713968
-3400.840271
-3413.670172
-3426.097742
-3448.158914
-3457.233722
-3465.950902
-3483.899353
-3497.265696
-3504.61942
-3517.829301
-3533.654336
-3545.009022
-3561.146982
-3570.22179
-3577.597866
-3582.895229
-3578.067252
-3565.639682
-3555.782563
-3551.669842
-3552.876836
-3540.315156
-3528.513435
-3508.888603
-3477.797327
-3445.521408
-3412.843157
-3378.756747
-3339.887063
-3303.07374
-3267.243894
-3239.326565
-3215.589013
-3192.298495
-3164.627035
-3151.283044
-3142.185884
-3138.475494
-3125.399724
-3109.485282
-3095.895421
-3088.206421
-3085.188935
-3084.47368
-3083.512555
-3094.286095
-3098.57763
-3097.616505
-3099.225831
-3103.83029
-3107.428921
-3110.379351
-3109.999372
-3117.554261
-3123.276308
-3123.410418
-3126.316145
-3136.910872
-3138.408439
-3129.914776
-3124.796227
-3126.025573
-3133.446352
-3129.534796
-3122.561052
-3125.511482
-3131.032363
-3138.251977
-3139.257805
-3135.256843
-3129.780666
-3122.337535
-3117.263689
-3116.190805
-3119.700029
-3120.258822
-3114.223851
-3109.798206
-3115.073218
-3116.839006
-3106.5125
-3098.421168
-3097.124767
-3094.554316
-3094.956648
-3103.964401
-3105.193747
-3106.870128
-3100.611639
-3108.993543
-3114.782645
-3119.834139
-3132.596985
-3145.538645
-3156.803925
-3194.578373
-3217.175986
-3213.867928
-3192.030274
-3183.13428
-3167.800983
-3142.565863
-3120.303526
-3117.956593
-3117.308392
-3100.768101
-3087.446462
-3071.733185
-3069.319197
-3070.436784
-3066.122897
-3067.754575
-3077.499935
-3079.042206
-3071.911999
-3063.932426
-3065.541752
-3073.45427
-3077.477584
-3074.817726
-3065.474697
-3051.527208
-3055.550522
-3071.576723
-3116.056695
-3234.699754
-3366.23977
-3392.748939
-3347.53136
-3218.293574
-2882.860945
-2574.697444
-2402.656067
-2273.753556
-1970.082756
-1619.965031
-1299.485719
-1105.539633
-1339.003603
-1730.025021
-2168.923875
-2525.769475
-2766.006025
-2949.312681
-3052.108354
-3090.151023
-3111.675753
-3132.887558
-3149.025518
-3165.07407
-3177.345178
-3191.516184
-3205.553079
-3220.439341
-3235.951452
-3242.656975
-3242.992251
-3248.222559
-3254.145772
-3260.739536
-3273.412975
-3287.136947
-3298.558688
-3301.754987
-3291.182612
-3288.366293
-3302.760816
-3319.144645
-3337.473075
-3351.934654
-3370.732471
-3381.349549
-3381.215439
-3389.17266
-3405.57884
-3425.494245
-3443.24153
-3464.721556
-3493.711769
-3513.3366
-3521.91967
-3527.574662
-3543.600862
-3558.844752
-3563.382156
-3566.399642
-3577.351997
-3587.030302
-3594.875764
-3586.762081
-3574.826249
-3560.364671
-3556.25195
-3548.630005
-3532.693211
-3509.290935
-3473.326978
-3430.411629
-3387.049244
-3344.916206
-3301.933801
-3265.00872
-3234.431533
-3206.380094
-3183.626018
-3159.933169
-3135.703878
-3117.755427
-3112.525119
-3107.875956
-3098.421168
-3091.000389
-3089.212249
-3085.345398
-3073.677787
-3067.039319
-3068.939217
-3070.481488
-3069.788583
-3076.4047
-3086.977075
-3081.322084
-3076.002368
-3079.019854
-3087.312351
-3091.156851
-3094.777834
-3096.90125
-3102.80211
-3116.816654
-3122.650459
-3119.878843
-3109.59704
-3104.076159
-3102.690351
-3101.25984
-3111.318125
-3118.001296
-3119.141235
-3118.247165
-3116.369619
-3117.867186
-3113.732113
-3105.372561
-3103.18209
-3104.053808
-3099.98579
-3099.762273
-3100.902212
-3095.917773
-3093.19086
-3093.57084
-3091.872107
-3091.581534
-3088.541697
-3083.780776
-3082.014988
-3083.669017
-3082.216153
-3081.009159
-3081.433842
-3080.875049
-3077.254066
-3071.28615
-3073.118993
-3084.22781
-3092.430901
-3088.698159
-3077.924618
-3084.071348
-3097.013008
-3108.390046
-3110.088779
-3128.953651
-3146.835047
-3183.849535
-3200.836861
-3191.940867
-3173.478326
-3177.546344
-3170.058509
-3139.280157
-3117.084875
-3107.741846
-3098.085892
-3073.655435
-3063.060708
-3062.367804
-3066.301711
-3065.206476
-3064.580627
-3065.631159
-3067.128726
-3063.999482
-3067.30754
-3072.001406
-3072.224924
-3063.284226
-3060.758479
-3064.737089
-3072.716662
-3067.531057
-3057.539828
-3060.490258
-3089.391063
-3169.633826
-3310.829796
-3387.38452
-3359.735413
-3288.790976
-3038.026755
-2695.59803
-2471.410033
-2351.492924
-2134.770409
-1759.149344
-1421.682706
-1110.166444
-1176.282904
-1514.844777
-1942.903035
-2361.640616
-2661.109288
-2891.108738
-3025.934461
-3069.565066
-3085.077177
-3104.567898
-3125.958517
-3149.874884
-3162.458916
-3171.265503
-3191.404425
-3211.431588
-3214.27026
-3215.834882
-3221.758094
-3233.917443
-3248.267263
-3255.844504
-3263.757022
-3264.785202
-3269.300254
-3275.223467
-3290.333246
-3302.224374
-3309.578098
-3316.194214
-3331.952194
-3349.230093
-3357.589645
-3357.254369
-3367.916151
-3388.099776
-3410.853852
-3430.188111
-3446.929568
-3459.670062
-3476.478574
-3497.243344
-3519.304516
-3541.90213
-3558.844752
-3565.527924
-3574.602732
-3581.934104
-3588.460814
-3588.103186
-3581.375311
-3579.877744
-3585.532735
-3582.470546
-3571.384081
-3559.269435
-3543.846732
-3522.67963
-3496.617496
-3465.481516
-3428.89171
-3393.106567
-3350.794715
-3306.471206
-3272.563609
-3240.310042
-3208.704675
-3185.212992
-3162.25775
-3139.503674
-3125.980869
-3117.263689
-3107.808901
-3102.578593
-3096.90125
-3093.660247
-3088.765215
-3084.183107
-3082.238505
-3082.216153
-3084.60779
-3089.748691
-3095.783662
-3095.135462
-3101.349247
-3109.641744
-3111.049904
-3107.093645
-3106.378389
-3106.087816
-3108.300639
-3115.296735
-3119.029477
-3121.488168
-3126.651421
-3120.10236
-3113.285078
-3120.99643
-3123.611584
-3125.623241
-3121.51052
-3120.392933
-3122.382238
-3122.449293
-3122.382238
-3115.117921
-3116.861357
-3117.28604
-3114.71559
-3110.781683
-3109.887613
-3110.826386
-3108.524157
-3100.924564
-3094.107281
-3097.862375
-3104.165566
-3103.83029
-3100.410473
-3102.399779
-3099.382293
-3098.778796
-3092.408549
-3087.602924
-3091.492127
-3095.962476
-3093.727302
-3088.362883
-3085.367749
-3089.547526
-3095.403683
-3103.629125
-3107.406569
-3103.405607
-3090.553354
-3091.223906
-3096.275401
-3100.723398
-3093.347322
-3077.924618
-3078.930447
-3088.608752
-3089.681636
-3087.759386
-3093.660247
-3104.612601
-3112.502767
-3104.59025
-3100.835157
-3108.211232
-3111.631049
-3118.202462
-3136.396782
-3153.697032
-3159.530837
-3179.334483
-3215.745475
-3219.500568
-3202.200318
-3190.398597
-3185.883544
-3179.736814
-3157.049794
-3134.720401
-3120.169415
-3117.397799
-3109.239412
-3100.008142
-3098.979962
-3106.624258
-3113.396837
-3103.115034
-3093.19086
-3094.554316
-3104.277325
-3108.457101
-3109.194709
-3101.930392
-3092.29679
-3099.672866
-3107.071293
-3108.680619
-3107.205404
-3103.092683
-3102.891517
-3146.075087
-3257.207961
-3368.631407
-3393.195974
-3374.30875
-3331.482808
-3098.175299
-2808.921374
-2653.219122
-2521.008554
-2188.638114
-1839.749734
-1531.02744
-1283.750091
-1404.605973
-1760.803373
-2130.657688
-2467.610236
-2727.069286
-2929.576091
-3057.562179
-3120.638802
-3139.213102
-3146.902102
-3158.972044
-3179.490945
-3198.825204
-3212.258603
-3221.869853
-3237.314908
-3248.580187
-3257.900865
-3267.44506
-3272.898885
-3285.326455
-3295.854127
-3300.056255
-3302.894926
-3309.779264
-3323.458531
-3334.790866
-3339.440029
-3351.062936
-3367.178543
-3380.20961
-3389.954971
-3398.493337
-3406.629372
-3416.173567
-3425.449541
-3440.134637
-3456.69728
-3474.198696
-3493.041216
-3514.208318
-3539.398734
-3554.732031
-3560.74465
-3572.814592
-3590.316008
-3596.350979
-3602.073026
-3609.717323
-3618.389799
-3619.55209
-3613.65123
-3605.962229
-3601.894212
-3594.071101
-3574.893305
-3559.560008
-3550.976938
-3538.392906
-3514.901223
-3482.267676
-3443.330937
-3406.696428
-3373.034701
-3336.824874
-3308.3264
-3282.420728
-3255.933911
-3226.83194
-3208.995248
-3194.108986
-3178.9098
-3166.48223
-3159.463782
-3152.557093
-3145.85157
-3146.298605
-3144.510465
-3148.176151
-3147.997337
-3149.047869
-3149.450201
-3151.774782
-3152.110058
-3151.953596
-3154.926378
-3164.224704
-3169.678529
-3168.717404
-3169.499716
-3172.584256
-3175.422928
-3177.322826
-3176.898143
-3177.702806
-3183.089576
-3184.564791
-3181.86023
-3182.37432
-3184.229515
-3185.369454
-3181.592009
-3177.076957
-3170.304378
-3171.35491
-3172.271332
-3173.120698
-3172.360739
-3166.48223
-3161.989529
-3154.792268
-3156.893332
-3157.25096
-3152.579445
-3142.364698
-3141.649442
-3145.583349
-3145.516294
-3142.834084
-3140.107172
-3146.87975
-3148.779648
-3142.767029
-3132.328764
-3132.261709
-3136.128561
-3136.642651
-3142.230587
-3148.824352
-3152.914721
-3151.595968
-3143.974023
-3143.750506
-3149.539608
-3157.832105
-3170.483192
-3184.274219
-3194.310152
-3208.391751
-3244.266301
-3256.93974
-3242.656975
-3219.835844
-3205.597783
-3192.857288
-3179.066262
-3167.197486
-3161.162515
-3139.70484
-3120.728209
-3115.587308
-3118.224814
-3117.263689
-3119.387104
-3123.455122
-3120.705857
-3119.565918
-3117.643668
-3117.263689
-3115.22968
-3113.463892
-3116.436674
-3117.353096
-3118.403628
-3119.96825
-3118.023648
-3118.627145
-3128.260747
-3158.212085
-3245.942682
-3348.693651
-3395.699369
-3375.247523
-3347.799581
-3183.804832
-2886.794852
-2696.603858
-2584.889839
-2286.672865
-1908.74957
-1611.538423
-1356.594426
-1388.177441
-1694.485747
-2072.453746
-2408.869852
-2687.953733
-2900.876451
-3047.414487
-3122.650459
-3148.623186
-3168.493887
-3185.145937
-3193.170213
-3207.117701
-3226.273146
-3241.092353
-3250.122458
-3254.346937
-3267.355653
-3276.318702
-3281.101976
-3284.790013
-3292.993104
-3301.375008
-3307.231165
-3310.718037
-3319.636383
-3326.587776
-3330.253462
-3333.539168
-3347.307843
-3358.662529
-3369.480773
-3379.784927
-3390.9608
-3404.908288
-3419.705143
-3431.350402
-3446.773105
-3462.531085
-3481.17244
-3498.226821
-3517.002287
-3534.794275
-3550.932235
-3561.415203
-3570.981749
-3583.789299
-3595.300447
-3594.18286
-3592.394721
-3591.120671
-3590.897154
-3590.450119
-3581.844697
-3575.049767
-3566.712566
-3550.306386
-3529.072229
-3506.608725
-3483.720539
-3452.450449
-3413.737227
-3375.135764
-3339.372973
-3309.265174
-3275.670502
-3245.272129
-3225.870815
-3202.580297
-3181.524954
-3166.795154
-3158.949692
-3148.846704
-3135.882692
-3123.343363
-3118.873014
-3118.649497
-3116.794302
-3114.246203
-3120.012953
-3120.437636
-3119.923546
-3119.275346
-3125.846759
-3133.893387
-3136.709706
-3135.48036
-3136.128561
-3140.129523
-3140.621262
-3141.761201
-3144.085782
-3151.081878
-3157.720346
-3155.529875
-3151.953596
-3155.552227
-3157.206256
-3158.346195
-3156.401593
-3152.601797
-3153.741736
-3156.289835
-3151.841837
-3146.969157
-3146.119791
-3146.544474
-3145.493942
-3142.834084
-3143.392878
-3139.995413
-3134.496884
-3135.681526
-3134.161608
-3133.55811
-3130.495921
-3126.897291
-3127.858416
-3130.920605
-3128.663078
-3122.225776
-3119.409456
-3120.705857
-3120.370581
-3121.599927
-3121.443465
-3122.672811
-3126.11498
-3128.55132
-3134.45218
-3134.899215
-3126.427904
-3122.516349
-3129.512445
-3142.074125
-3146.633881
-3176.875791
-3203.407312
-3238.320737
-3247.686118
-3216.550138
-3199.02637
-3188.610457
-3177.814564
-3167.175134
-3155.351061
-3158.592064
-3148.198503
-3116.056695
-3098.488223
-3100.455177
-3106.020761
-3107.965363
-3109.552337
-3111.318125
-3107.317162
-3102.958572
-3103.629125
-3098.421168
-3100.186956
-3105.953706
-3105.417264
-3105.864299
-3109.038247
-3112.614526
-3107.250107
-3111.318125
-3173.344216
-3321.536281
-3432.579748
-3420.778027
-3358.640177
-3167.599817
-2809.904851
-2540.119295
-2392.06134
-2208.441759
-1844.264787
-1526.467684
-1207.195366
-1161.329587
-1481.093643
-1884.788499
-2308.39876
-2624.295965
-2858.96693
-3031.05301
-3104.299677
-3127.478436
-3143.459933
-3157.362718
-3175.847611
-3198.020541
-3215.611364
-3222.361591
-3227.055457
-3240.198283
-3255.062193
-3265.500458
-3270.976635
-3273.21181
-3281.973694
-3289.416825
-3297.128176
-3303.45372
-3309.354581
-3315.076627
-3316.954174
-3330.141703
-3346.480828
-3354.639215
-3365.72568
-3373.213514
-3381.818936
-3402.136672
-3422.163835
-3435.284309
-3447.421306
-3461.659367
-3479.518411
-3493.443548
-3508.687438
-3530.927423
-3549.881703
-3566.779621
-3583.901058
-3595.814538
-3603.615296
-3610.007895
-3615.864052
-3625.050619
-3621.004954
-3611.393703
-3599.502575
-3596.216869
-3586.87384
-3568.746575
-3544.20436
-3521.003249
-3493.778824
-3450.818771
-3409.937431
-3374.152288
-3338.925938
-3299.877441
-3263.846429
-3231.70462
-3206.268335
-3186.844669
-3173.701843
-3166.012843
-3154.367585
-3139.011936
-3124.505654
-3119.610622
-3115.296735
-3113.463892
-3111.228718
-3109.418226
-3108.278287
-3110.781683
-3111.161662
-3111.541642
-3112.860395
-3116.526081
-3115.922584
-3117.643668
-3122.359886
-3131.524102
-3133.625166
-3133.513407
-3136.687355
-3135.592119
-3133.222834
-3137.536721
-3139.615433
-3141.805904
-3140.420096
-3134.787456
-3138.475494
-3137.335555
-3138.766067
-3138.453142
-3137.603776
-3134.385125
-3132.619337
-3129.333631
-3125.824407
-3130.495921
-3133.356945
-3129.937128
-3125.019744
-3120.504692
-3114.693238
-3113.173319
-3110.826386
-3111.116959
-3110.938145
-3111.943974
-3107.54068
-3107.205404
-3111.832215
-3114.983811
-3113.218023
-3104.903174
-3101.729226
-3103.293848
-3098.599982
-3104.612601
-3118.94007
-3120.907023
-3114.402665
-3114.246203
-3116.615488
-3130.048887
-3147.729116
-3181.189678
-3195.405387
-3220.260527
-3206.782425
-3172.718367
-3164.135297
-3166.10225
-3158.79323
-3147.103268
-3139.749544
-3139.771895
-3126.919642
-3097.705912
-3080.986807
-3084.563087
-3088.96638
-3085.233639
-3088.161717
-3091.64859
-3090.37454
-3087.80409
-3083.110223
-3085.479508
-3091.872107
-3086.641799
-3077.969322
-3073.789546
-3079.913924
-3081.903229
-3089.771043
-3142.364698
-3272.764775
-3395.989942
-3412.552585
-3368.251427
-3230.274109
-2888.761805
-2583.325217
-2421.565643
-2272.680673
-1921.378305
-1566.879638
-1231.938747
-1087.255906
-1354.471011
-1744.24073
-2165.794631
-2523.91428
-2793.096339
-2990.194021
-3075.912961
-3102.668
-3124.595061
-3139.928358
-3152.154762
-3168.426832
-3189.817451
-3207.09535
-3217.623021
-3230.475274
-3245.227426
-3257.006795
-3261.275978
-3267.780336
-3275.536391
-3282.286618
-3283.940647
-3287.449871
-3297.754025
-3312.014438
-3324.352601
-3334.857921
-3343.105715
-3348.514837
-3353.655738
-3359.802468
-3376.923904
-3395.31939
-3406.495262
-3414.340724
-3433.63028
-3451.95871
-3471.315321
-3492.638885
-3513.470711
-3531.419162
-3537.968223
-3551.692194
-3568.590113
-3584.281037
-3595.747482
-3602.140081
-3601.536584
-3605.939878
-3608.979715
-3607.660962
-3602.76593
-3593.624067
-3580.838869
-3565.907903
-3544.986671
-3521.137359
-3493.532955
-3461.927588
-3419.638088
-3377.326235
-3342.703383
-3308.684028
-3269.36731
-3232.151655
-3204.480196
-3181.72612
-3159.664948
-3143.839913
-3134.854512
-3126.584366
-3114.581479
-3103.539718
-3100.946915
-3101.952744
-3101.125729
-3101.39395
-3101.058674
-3105.461968
-3103.003276
-3107.317162
-3113.128616
-3118.381276
-3121.935203
-3122.829273
-3119.029477
-3121.219947
-3129.758314
-3126.159683
-3126.24909
-3132.507578
-3137.000279
-3137.313203
-3136.061506
-3141.001241
-3145.493942
-3142.454105
-3140.554206
-3139.973061
-3142.632919
-3139.928358
-3133.55811
-3134.474532
-3131.63586
-3129.534796
-3125.131503
-3122.181072
-3120.48234
-3115.22968
-3112.055732
-3111.094607
-3114.514424
-3115.475549
-3114.112093
-3109.172357
-3107.473625
-3108.345343
-3109.038247
-3107.875956
-3106.333686
-3114.626183
-3117.420151
-3114.380314
-3111.586346
-3107.607735
-3107.943011
-3109.105302
-3110.982849
-3113.82152
-3109.015895
-3103.584421
-3107.875956
-3114.8497
-3121.443465
-3120.214119
-3118.917718
-3122.583404
-3128.081933
-3134.45218
-3153.339404
-3183.961294
-3200.613344
-3222.249832
-3224.216786
-3195.159518
-3180.854402
-3178.976855
-3172.11487
-3160.20139
-3143.504637
-3138.497846
-3132.90991
-3111.0052
-3100.857508
-3100.142252
-3104.053808
-3108.278287
-3114.425017
-3114.648535
-3111.787511
-3111.0052
-3115.296735
-3111.563994
-3107.183052
-3102.668
-3108.412398
-3113.530947
-3110.535814
-3111.0052
-3128.059581
-3194.019579
-3314.674296
-3408.104588
-3414.251317
-3399.81209
-3278.509173
-2972.580847
-2713.971164
-2586.297999
-2375.252828
-1982.733844
-1654.342014
-1328.900615
-1223.64625
-1478.187916
-1869.231685
-2252.050013
-2575.904438
-2813.816406
-2993.546783
-3095.448386
-3132.887558
-3152.244169
-3166.504582
-3183.938942
-3206.737722
-3222.160425
-3234.52094
-3249.474257
-3264.226409
-3271.468374
-3278.799746
-3285.661731
-3291.048502
-3300.50329
-3304.772473
-3310.472168
-3321.156302
-3332.600395
-3339.46238
-3348.93952
-3356.405003
-3369.011387
-3381.684826
-3391.407834
-3404.93064
-3413.960745
-3421.560338
-3433.809094
-3454.484457
-3474.042234
-3491.856574
-3509.536804
-3522.120836
-3541.209226
-3559.761174
-3577.351997
-3594.406378
-3607.660962
-3616.020514
-3623.91068
-3630.996183
-3634.840683
-3637.768762
-3635.44418
-3633.231358
-3628.962175
-3625.654116
-3615.081741
-3602.944744
-3589.667808
-3566.019662
-3538.817589
-3511.973144
-3485.151051
-3453.031594
-3413.848986
-3373.593494
-3342.099886
-3310.807444
-3280.252609
-3248.557836
-3228.150693
-3214.985515
-3203.697885
-3189.482175
-3180.474422
-3174.998245
-3173.098346
-3164.068242
-3160.961349
-3160.737832
-3166.035195
-3170.393785
-3174.350044
-3177.568695
-3179.334483
-3182.731948
-3189.683341
-3194.488966
-3194.019579
-3191.180908
-3189.392768
-3195.584201
-3207.318867
-3212.079789
-3208.324696
-3208.235289
-3207.944716
-3205.150748
-3201.46271
-3197.953486
-3199.942791
-3200.076902
-3195.651257
-3197.640562
-3198.735797
-3197.349989
-3189.906858
-3184.877716
-3186.107062
-3191.002094
-3187.448166
-3180.005035
-3180.206201
-3181.21203
-3178.976855
-3172.204277
-3167.689224
-3170.997282
-3172.696015
-3174.528858
-3174.417099
-3171.019634
-3168.91857
-3164.492925
-3170.393785
-3177.434585
-3188.14107
-3197.014713
-3207.408274
-3213.979687
-3234.811513
-3274.843487
-3283.20304
-3267.400356
-3251.776487
-3231.235234
-3208.436454
-3191.694998
-3182.173155
-3172.517201
-3154.166419
-3149.383145
-3148.42202
-3149.673718
-3146.611529
-3143.459933
-3145.47159
-3142.565863
-3139.503674
-3143.392878
-3146.969157
-3145.963329
-3146.49977
-3142.789381
-3146.320957
-3152.199465
-3151.394802
-3151.439506
-3151.797134
-3170.170268
-3242.008775
-3342.859846
-3408.931602
-3407.568146
-3387.585686
-3286.354636
-3028.303746
-2802.282906
-2683.751605
-2407.931078
-2014.763893
-1689.635419
-1443.00627
-1396.514642
-1604.050589
-1973.703739
-2312.891461
-2602.994752
-2833.173017
-3006.555498
-3115.922584
-3166.884561
-3188.230477
-3204.077864
-3219.791141
-3235.146789
-3250.636548
-3260.516019
-3277.011606
-3286.958133
-3291.830813
-3298.58104
-3304.727769
-3310.092188
-3313.266136
-3323.838511
-3333.516816
-3338.657718
-3339.440029
-3346.793753
-3356.963796
-3363.468154
-3366.932674
-3378.935561
-3396.86166
-3407.836367
-3418.00641
-3431.976251
-3447.935396
-3460.184152
-3471.717652
-3485.218106
-3505.401731
-3528.111104
-3546.238368
-3556.855447
-3566.332587
-3578.201363
-3594.18286
-3598.764968
-3607.213927
-3612.958326
-3621.206119
-3626.883462
-3621.675506
-3611.818387
-3603.66
-3598.250878
-3591.210078
-3582.112918
-3566.287883
-3542.952662
-3516.063513
-3482.290027
-3447.667175
-3408.484567
-3368.720814
-3327.146569
-3293.596601
-3266.260417
-3240.421801
-3213.5103
-3194.064283
-3180.407367
-3162.861247
-3149.919587
-3147.036212
-3144.041079
-3141.917663
-3142.722326
-3141.314166
-3139.369564
-3138.788419
-3143.169361
-3149.047869
-3154.725212
-3155.32871
-3152.624148
-3158.145029
-3159.486134
-3155.820448
-3152.892369
-3158.457954
-3165.029367
-3167.085727
-3159.329672
-3153.652329
-3158.994396
-3164.023538
-3159.977872
-3162.63773
-3160.648425
-3161.453088
-3158.145029
-3155.59693
-3158.79323
-3156.692166
-3154.881675
-3150.388974
-3149.003166
-3146.477419
-3141.850608
-3141.314166
-3144.398706
-3146.030384
-3145.98568
-3136.732058
-3138.587253
-3148.779648
-3140.956538
-3138.319032
-3144.756334
-3148.980814
-3153.361756
-3154.479343
-3169.499716
-3175.042948
-3197.975838
-3239.751248
-3249.429554
-3237.739591
-3225.28967
-3210.246946
-3191.359722
-3174.193582
-3170.684358
-3157.586236
-3134.407477
-3123.902157
-3119.878843
-3115.22968
-3112.100436
-3111.675753
-3117.196633
-3120.705857
-3119.96825
-3118.068352
-3122.650459
-3120.86232
-3121.130541
-3118.627145
-3111.563994
-3111.161662
-3109.038247
-3110.781683
-3121.197596
-3147.974986
-3232.866911
-3365.457459
-3433.987908
-3408.953954
-3361.031814
-3152.534741
-2822.19831
-2597.764444
-2471.678254
-2204.73137
-1826.919833
-1532.346193
-1236.476152
-1280.218515
-1610.309078
-2005.62203
-2393.737721
-2682.566963
-2904.519785
-3054.276473
-3119.901195
-3145.516294
-3169.164439
-3184.520088
-3193.684303
-3202.289725
-3214.471425
-3234.252719
-3247.194379
-3253.698737
-3262.527676
-3272.675368
-3282.130156
-3285.818194
-3294.043636
-3306.985296
-3311.768569
-3310.941554
-3317.848243
-3331.549863
-3342.502218
-3348.850113
-3358.93075
-3371.648892
-3384.098814
-3394.000637
-3403.52248
-3419.503977
-3427.170626
-3438.12298
-3457.345481
-3476.992664
-3495.455205
-3511.593164
-3526.747647
-3542.505627
-3560.185857
-3576.949665
-3589.31018
-3595.948648
-3601.089549
-3609.091474
-3610.387875
-3606.99041
-3605.20227
-3602.810634
-3594.786357
-3580.86122
-3565.639682
-3545.947796
-3520.51151
-3495.544612
-3467.359062
-3433.2503
-3394.671189
-3353.409869
-3317.691781
-3288.165127
-3260.694833
-3227.971879
-3201.3286
-3182.799003
-3172.517201
-3160.424907
-3148.198503
-3139.280157
-3133.066372
-3125.35502
-3119.767084
-3117.889538
-3119.364753
-3122.181072
-3123.879805
-3121.51052
-3125.310317
-3128.841892
-3130.98766
-3133.826331
-3141.403573
-3146.589177
-3148.377317
-3148.779648
-3151.551265
-3151.551265
-3149.83018
-3143.392878
-3145.069259
-3151.61832
-3154.255826
-3153.138239
-3152.467686
-3149.494904
-3147.326785
-3144.532817
-3138.967233
-3136.285023
-3133.513407
-3131.032363
-3130.562977
-3134.96627
-3142.856436
-3148.042041
-3139.928358
-3129.512445
-3128.618375
-3135.323898
-3144.041079
-3158.547361
-3165.521105
-3171.667835
-3167.152782
-3203.072036
-3231.615213
-3233.87274
-3220.059361
-3206.894184
-3193.371379
-3175.132355
-3161.207218
-3145.650404
-3130.540625
-3109.485282
-3097.907078
-3096.834194
-3098.756444
-3098.152947
-3091.894459
-3093.526136
-3098.711741
-3103.271497
-3101.036322
-3096.65538
-3096.14129
-3091.805052
-3094.464909
-3100.589287
-3104.791415
-3102.489186
-3097.392988
-3091.201555
-3121.331706
-3242.656975
-3395.475852
-3443.666213
-3408.462215
-3316.730656
-2995.804309
-2647.675889
-2447.717184
-2313.986696
-1999.631762
-1621.954336
-1282.274876
-1060.590274
-1273.512992
-1647.390622
-2076.588819
-2471.63355
-2748.370498
-2964.668329
-3075.018892
-3109.708799
-3130.317107
-3148.936111
-3166.437527
-3194.980704
-3220.059361
-3227.793065
-3229.13417
-3239.818304
-3255.419821
-3267.892095
-3268.741461
-3274.597618
-3289.372121
-3303.051389
-3305.577136
-3302.984333
-3311.232127
-3320.351639
-3332.712154
-3346.033793
-3358.595474
-3369.659587
-3370.151325
-3370.330139
-3394.224154
-3432.155065
-3462.665196
-3462.374623
-3447.533065
-3456.3173
-3483.049987
-3495.879888
-3528.915766
-3564.767964
-3567.696043
-3553.972072
-3559.269435
-3588.013779
-3606.588078
-3605.559898
-3606.945706
-3612.89127
-3615.126445
-3610.589041
-3600.530756
-3594.987523
-3587.52204
-3571.719357
-3543.779676
-3517.337563
-3494.829356
-3467.180248
-3429.472855
-3386.244581
-3341.362279
-3298.58104
-3259.689004
-3236.554949
-3217.690077
-3192.901992
-3170.237323
-3152.13241
-3140.554206
-3134.675698
-3129.95948
-3123.231604
-3119.275346
-3124.796227
-3134.005145
-3132.39582
-3122.672811
-3118.6942
-3121.488168
-3126.047924
-3140.911834
-3152.333576
-3150.679547
-3144.219893
-3145.784515
-3152.400631
-3148.824352
-3144.979852
-3147.25973
-3152.735907
-3157.25096
-3160.134335
-3158.592064
-3155.708689
-3151.886541
-3149.137276
-3152.311224
-3143.348174
-3145.315128
-3148.109096
-3151.61832
-3146.36566
-3151.059526
-3147.25973
-3145.181018
-3157.541532
-3170.572599
-3163.487096
-3153.428811
-3159.843762
-3171.623131
-3170.662006
-3192.253791
-3223.613289
-3230.899958
-3231.078771
-3223.233309
-3204.144919
-3186.867021
-3169.522067
-3146.812695
-3126.852587
-3108.144177
-3105.573726
-3112.703933
-3112.480415
-3114.626183
-3119.185939
-3109.239412
-3094.777834
-3086.977075
-3100.991619
-3115.699067
-3107.697142
-3102.042151
-3108.032418
-3115.967288
-3111.809863
-3102.444482
-3097.527098
-3101.058674
-3128.752485
-3217.064228
-3359.95893
-3439.620547
-3429.539911
-3401.868451
-3174.707672
-2816.453912
-2586.521517
-2438.709431
-2137.027936
-1747.928768
-1409.769226
-1112.535729
-1213.00682
-1568.935999
-1991.607486
-2382.114814
-2687.841974
-2939.343803
-3095.582497
-3153.182942
-3188.498698
-3194.712483
-3186.263524
-3187.314056
-3206.558908
-3233.693926
-3252.469391
-3272.876534
-3287.807499
-3273.077699
-3260.650129
-3281.213734
-3305.845357
-3315.121331
-3327.191273
-3333.516816
-3328.040639
-3329.895834
-3344.022136
-3351.711136
-3366.955026
-3395.96759
-3422.23089
-3419.28046
-3407.322277
-3413.804282
-3441.341632
-3466.509696
-3481.015978
-3486.335693
-3491.387187
-3520.019772
-3555.827267
-3578.089604
-3590.316008
-3603.235317
-3609.650267
-3610.052599
-3623.240128
-3650.352794
-3653.213817
-3645.971852
-3635.712401
-3632.963137
-3635.153608
-3628.045753
-3617.540433
-3610.924317
-3598.452043
-3579.31895
-3544.964319
-3512.263717
-3473.48344
-3439.53114
-3407.23287
-3365.859791
-3333.360354
-3296.725845
-3256.760926
-3230.587033
-3209.263469
-3197.908783
-3190.800928
-3182.061396
-3176.47346
-3165.96814
-3160.246093
-3164.917608
-3169.142088
-3176.518163
-3187.425815
-3186.643504
-3191.024445
-3199.40635
-3201.954448
-3195.31598
-3189.504527
-3180.720291
-3182.776652
-3187.403463
-3194.533669
-3206.603611
-3208.659972
-3210.224594
-3207.900012
-3208.749379
-3207.676495
-3202.625001
-3203.072036
-3196.21005
-3197.305286
-3210.448111
-3228.061286
-3234.431533
-3224.328545
-3193.863117
-3171.287855
-3173.880657
-3202.759111
-3233.448056
-3245.16037
-3232.576338
-3253.922254
-3287.628685
-3297.083473
-3295.943534
-3285.974656
-3262.32651
-3239.013641
-3223.546234
-3205.754245
-3184.743605
-3170.773765
-3161.654253
-3159.329672
-3158.457954
-3165.297588
-3170.885524
-3154.859323
-3146.49977
-3156.043965
-3166.86221
-3178.261599
-3179.580352
-3155.038137
-3143.079954
-3149.360794
-3156.35689
-3159.530837
-3165.007015
-3178.507469
-3212.906803
-3311.030961
-3403.00839
-3451.086992
-3450.639957
-3427.885881
-3280.163202
-3004.476786
-2831.653098
-2666.13843
-2297.558164
-1889.124738
-1550.294644
-1365.065737
-1414.351334
-1693.50227
-2056.092269
-2397.336352
-2701.834166
-2941.824846
-3108.367694
-3178.39571
-3193.863117
-3208.883489
-3239.840655
-3271.244856
-3286.131118
-3299.676275
-3307.253517
-3315.344848
-3331.907491
-3341.876369
-3350.034755
-3349.252444
-3359.556599
-3370.59836
-3377.77327
-3384.143518
-3385.350512
-3393.665361
-3417.559375
-3433.742038
-3438.301794
-3434.501998
-3436.692469
-3460.586484
-3490.627228
-3519.48333
-3528.692249
-3523.84192
-3512.800159
-3526.166502
-3544.629043
-3574.423918
-3606.073988
-3618.792131
-3631.331459
-3647.156495
-3667.295416
-3689.133071
-3696.307981
-3699.705446
-3709.741379
-3719.687905
-3707.416798
-3681.399367
-3656.700689
-3641.568558
-3645.144838
-3651.939768
-3644.295471
-3631.733791
-3614.701762
-3584.661017
-3551.558083
-3515.348257
-3475.539801
-3434.390239
-3392.860698
-3360.137744
-3330.409924
-3298.089301
-3276.609275
-3271.267208
-3268.003853
-3256.93974
-3242.344051
-3231.235234
-3224.954394
-3219.075885
-3219.969954
-3231.70462
-3244.378059
-3258.839638
-3260.583074
-3242.9699
-3223.389771
-3213.264431
-3219.120588
-3235.79499
-3245.383888
-3248.580187
-3249.049574
-3256.269187
-3260.78424
-3261.499496
-3260.739536
-3263.377042
-3266.059252
-3261.67831
-3260.381908
-3257.006795
-3262.639435
-3271.311912
-3281.884287
-3294.423615
-3302.760816
-3293.998932
-3290.690874
-3326.476017
-3355.622692
-3352.761668
-3344.737392
-3340.959947
-3326.967755
-3303.252554
-3260.806592
-3222.115722
-3192.074977
-3171.109041
-3170.304378
-3184.944771
-3194.019579
-3198.378169
-3200.166309
-3195.56185
-3196.478271
-3200.009847
-3202.021504
-3199.272239
-3198.534632
-3197.819376
-3199.719274
-3199.629867
-3196.947658
-3196.813547
-3201.686228
-3218.070056
-3278.039787
-3388.457404
-3475.495097
-3491.633057
-3458.910103
-3373.191163
-3125.846759
-2857.134087
-2712.00421
-2464.391585
-2070.531496
-1731.522588
-1463.100489
-1375.146374
-1559.436507
-1923.680535
-2284.571801
-2608.314467
-2858.788116
-3044.821685
-3163.308282
-3216.863062
-3240.265338
-3258.616121
-3271.401318
-3281.213734
-3296.591734
-3309.667505
-3322.810331
-3336.13197
-3348.067802
-3358.595474
-3365.055128
-3368.586703
-3378.801451
-3388.613866
-3393.508898
-3398.627448
-3404.863585
-3410.898556
-3421.917966
-3430.523387
-3435.887806
-3449.00828
-3462.419327
-3474.779841
-3486.29099
-3502.585411
-3519.237461
-3531.2627
-3545.456057
-3565.684386
-3586.35975
-3602.922392
-3616.020514
-3631.487922
-3647.827047
-3660.634596
-3669.128259
-3678.381882
-3685.757957
-3686.115585
-3682.472251
-3679.655931
-3677.577219
-3668.904742
-3661.238094
-3653.414983
-3644.40723
-3634.304241
-3617.540433
-3592.104148
-3564.343281
-3532.581452
-3493.756472
-3449.924701
-3409.557451
-3376.298055
-3341.049354
-3310.561575
-3284.991179
-3265.209885
-3245.138019
-3228.105989
-3218.62885
-3213.197376
-3210.068132
-3205.30721
-3206.223632
-3209.285821
-3212.10214
-3213.912632
-3215.879585
-3219.835844
-3222.205129
-3226.094332
-3227.502492
-3231.302289
-3233.291594
-3233.984498
-3230.497626
-3232.352821
-3237.136094
-3239.170103
-3234.811513
-3236.800818
-3244.489818
-3251.195341
-3251.977653
-3246.412068
-3242.656975
-3240.846484
-3242.411106
-3250.524789
-3265.545161
-3276.117537
-3270.462545
-3257.297368
-3287.673388
-3319.479921
-3317.960002
-3309.198118
-3301.01738
-3284.544144
-3263.533504
-3246.613234
-3234.677402
-3223.702696
-3200.590992
-3186.151765
-3184.654198
-3185.436509
-3186.688207
-3184.073053
-3183.64837
-3187.984608
-3188.856326
-3185.972951
-3180.96616
-3180.541477
-3182.575486
-3178.954503
-3175.57939
-3175.177059
-3178.440413
-3178.730986
-3188.14107
-3234.967975
-3358.595474
-3480.27837
-3510.699095
-3479.898391
-3381.10368
-3063.485392
-2730.913786
-2557.084269
-2383.34416
-2016.306164
-1682.393453
-1376.331017
-1232.989279
-1467.928465
-1845.740002
-2252.497047
-2605.833424
-2860.442145
-3053.9859
-3159.441431
-3199.786329
-3219.232347
-3235.593824
-3250.860065
-3270.484897
-3293.149566
-3308.035828
-3314.294316
-3326.632479
-3341.071706
-3351.778192
-3357.813163
-3364.004596
-3371.961817
-3381.170735
-3384.791718
-3394.514727
-3403.120149
-3411.546756
-3419.325163
-3425.315431
-3436.379544
-3448.717707
-3460.02769
-3471.516487
-3486.581562
-3500.573754
-3514.320077
-3526.121798
-3544.785505
-3561.594017
-3576.614389
-3593.355846
-3613.494767
-3633.38782
-3645.077782
-3655.314881
-3669.26237
-3682.85223
-3690.474175
-3689.89303
-3690.7871
-3692.32937
-3688.171946
-3680.080614
-3669.91057
-3661.685128
-3649.950463
-3630.996183
-3610.231413
-3586.426805
-3555.469639
-3519.416275
-3479.071376
-3437.027745
-3398.538041
-3362.551732
-3327.012459
-3300.011551
-3280.185554
-3258.437307
-3237.158446
-3220.841673
-3211.409236
-3202.535594
-3196.366512
-3194.108986
-3196.59003
-3199.495757
-3197.99819
-3200.032198
-3205.530728
-3209.419931
-3209.598745
-3211.632754
-3215.052571
-3218.941774
-3223.12155
-3223.412123
-3226.630774
-3229.514149
-3229.424742
-3230.67644
-3241.539388
-3252.379984
-3248.401373
-3243.215769
-3239.170103
-3243.774562
-3254.704565
-3267.512115
-3276.184592
-3273.792955
-3261.074813
-3288.746272
-3315.456607
-3315.300145
-3309.913374
-3302.447892
-3282.040749
-3263.22058
-3252.536446
-3240.600615
-3229.402391
-3208.861137
-3192.74553
-3184.207163
-3178.999207
-3182.016692
-3182.463727
-3182.128451
-3179.602704
-3178.39571
-3178.127489
-3175.266466
-3173.455974
-3172.092518
-3174.752375
-3176.428756
-3176.719329
-3173.701843
-3173.701843
-3184.430681
-3215.343143
-3316.641249
-3453.322167
-3515.348257
-3490.984856
-3409.602154
-3118.046
-2760.172219
-2545.215493
-2381.779537
-2040.4684
-1672.938666
-1365.311607
-1164.347072
-1356.549723
-1724.325326
-2142.034726
-2527.401153
-2808.273173
-3025.66624
-3152.467686
-3195.248925
-3215.544309
-3236.286728
-3252.33528
-3268.85322
-3286.086415
-3303.207851
-3317.512967
-3330.499331
-3339.261215
-3346.927863
-3356.11443
-3364.675148
-3370.46425
-3380.45548
-3386.132823
-3390.737282
-3398.314523
-3407.299925
-3416.46414
-3428.645841
-3438.279443
-3450.394088
-3465.257998
-3477.909086
-3487.609743
-3498.919725
-3516.398789
-3534.794275
-3549.07704
-3561.772831
-3580.436537
-3600.731921
-3620.736733
-3634.393648
-3647.759992
-3664.926131
-3676.258466
-3684.819184
-3689.356588
-3697.537327
-3697.537327
-3692.19526
-3689.177774
-3685.623847
-3681.68994
-3669.575294
-3655.314881
-3642.529683
-3625.095323
-3599.368465
-3566.265531
-3530.033354
-3489.822565
-3445.029669
-3401.890803
-3364.764555
-3333.963851
-3304.616011
-3276.184592
-3254.481048
-3239.505379
-3227.569548
-3218.338277
-3210.448111
-3209.598745
-3209.330524
-3203.474367
-3205.530728
-3211.565699
-3212.10214
-3215.387847
-3216.907765
-3219.455864
-3222.294536
-3223.88151
-3223.166254
-3226.943699
-3233.403353
-3233.023373
-3231.972841
-3234.431533
-3236.398487
-3234.275071
-3235.057382
-3243.573397
-3253.788144
-3252.58115
-3242.567568
-3237.516074
-3243.729859
-3253.09524
-3265.679272
-3275.514039
-3272.094223
-3259.286673
-3286.399339
-3311.701514
-3313.44495
-3309.645153
-3302.604354
-3282.666598
-3264.271112
-3252.089411
-3236.890225
-3222.249832
-3202.401483
-3190.666818
-3185.078881
-3183.626018
-3184.29657
-3185.861192
-3184.520088
-3179.714463
-3180.072091
-3184.877716
-3182.351969
-3179.602704
-3179.848573
-3181.86023
-3179.625056
-3175.244114
-3173.075995
-3174.059471
-3186.419986
-3224.417952
-3336.176674
-3467.381414
-3512.934269
-3484.480498
-3382.288323
-3061.876066
-2721.61546
-2530.172769
-2344.005089
-1969.501611
-1613.28186
-1306.459463
-1178.003988
-1419.849863
-1799.58365
-2218.991783
-2581.090043
-2845.935863
-3048.621481
-3159.664948
-3195.539498
-3215.81253
-3234.833865
-3251.351804
-3269.032034
-3285.974656
-3300.190365
-3315.970697
-3328.934709
-3338.545959
-3348.648947
-3357.164962
-3362.887009
-3372.52061
-3381.014273
-3387.742148
-3394.470023
-3400.236774
-3407.568146
-3417.045285
-3427.036515
-3439.039402
-3448.896521
-3461.145277
-3478.199658
-3492.527126
-3506.184042
-3522.500816
-3536.78358
-3553.122706
-3571.49584
-3585.957418
-3605.20227
-3625.274137
-3640.763896
-3651.090402
-3664.501448
-3672.458669
-3678.471288
-3689.401292
-3697.336161
-3699.1243
-3693.759882
-3691.189431
-3690.518879
-3680.237076
-3668.50241
-3655.605454
-3646.374183
-3629.386858
-3601.380122
-3567.249008
-3531.01683
-3489.956676
-3446.594292
-3404.796529
-3369.748994
-3340.937595
-3308.594621
-3282.130156
-3264.539333
-3252.178818
-3234.833865
-3222.585109
-3217.824187
-3218.941774
-3219.567623
-3217.935946
-3221.355763
-3229.737667
-3233.246891
-3229.983536
-3236.152617
-3240.846484
-3240.868836
-3242.545216
-3243.081658
-3247.060269
-3253.452868
-3253.028185
-3250.122458
-3252.804667
-3251.262397
-3250.614196
-3250.681251
-3248.580187
-3246.94851
-3245.741516
-3242.165237
-3239.013641
-3240.622966
-3242.20994
-3241.226463
-3247.84258
-3250.547141
-3248.49078
-3242.098181
-3240.175931
-3247.552007
-3257.45383
-3269.702586
-3279.425595
-3275.044653
-3265.768679
-3296.770548
-3328.353563
-3329.024116
-3321.379819
-3311.053313
-3286.578153
-3266.349824
-3260.180743
-3245.763868
-3226.898995
-3209.330524
-3206.447149
-3204.167271
-3206.089521
-3209.486986
-3211.900975
-3215.879585
-3213.242079
-3210.537518
-3217.444207
-3222.540405
-3221.601632
-3218.919422
-3217.73478
-3220.461693
-3219.098236
-3213.443245
-3216.84071
-3230.855254
-3281.906638
-3395.744073
-3501.400769
-3536.425952
-3529.742781
-3473.416385
-3223.993268
-2928.167931
-2769.224676
-2567.075499
-2177.819869
-1829.110304
-1522.466722
-1363.43406
-1521.662059
-1890.443491
-2257.593245
-2586.119185
-2849.86977
-3052.44363
-3182.061396
-3237.493722
-3256.671519
-3276.117537
-3296.189403
-3313.601412
-3329.426447
-3345.452648
-3360.316558
-3373.839363
-3383.674131
-3391.966628
-3401.130843
-3406.495262
-3413.223137
-3424.01903
-3434.166722
-3443.152123
-3447.041326
-3450.371736
-3461.368795
-3473.125812
-3482.5806
-3491.610705
-3506.586374
-3520.667973
-3531.53092
-3543.82438
-3558.196552
-3573.865124
-3587.477337
-3599.927258
-3618.121578
-3634.79598
-3650.486904
-3665.03789
-3676.616094
-3684.975646
-3699.50428
-3708.914364
-3712.110664
-3716.044571
-3714.837577
-3708.444978
-3703.34878
-3700.219536
-3695.726835
-3688.887201
-3681.913457
-3676.996073
-3667.876562
-3652.006823
-3629.275099
-3602.587116
-3569.975921
-3533.587281
-3494.516432
-3453.23276
-3415.525367
-3386.289285
-3361.903532
-3336.802523
-3316.350677
-3301.084435
-3292.05433
-3287.673388
-3282.934819
-3283.113633
-3281.772528
-3281.481955
-3285.102938
-3287.293409
-3288.142775
-3293.484842
-3296.524679
-3301.464415
-3302.04556
-3298.558688
-3302.514947
-3307.901717
-3308.505214
-3309.667505
-3309.131063
-3311.813272
-3311.768569
-3305.443025
-3300.257421
-3298.134005
-3299.877441
-3294.781243
-3291.54024
-3290.601467
-3292.613124
-3288.858031
-3288.701569
-3295.720016
-3296.837604
-3289.193307
-3281.191383
-3285.035883
-3293.46249
-3299.810386
-3310.271002
-3317.848243
-3304.236031
-3298.06695
-3335.729639
-3366.910323
-3369.257256
-3361.568256
-3345.743221
-3323.011496
-3297.754025
-3284.119461
-3277.101013
-3260.426612
-3250.033051
-3245.786219
-3245.40624
-3243.931025
-3243.305176
-3245.115667
-3243.886321
-3243.975728
-3243.729859
-3245.763868
-3246.792048
-3241.159408
-3236.376135
-3238.454847
-3237.873702
-3233.381001
-3232.688097
-3237.583129
-3248.289615
-3303.341961
-3412.060846
-3496.282219
-3522.724333
-3510.877909
-3449.857646
-3229.447094
-2953.872437
-2810.351886
-2591.751825
-2199.523413
-1855.015976
-1578.502545
-1472.756442
-1614.980592
-1955.330605
-2301.134443
-2605.699313
-2860.643311
-3059.193857
-3187.895201
-3250.189513
-3277.05631
-3297.061121
-3310.650982
-3320.597508
-3338.031869
-3351.666433
-3363.065822
-3375.605151
-3387.406872
-3394.537079
-3400.504994
-3406.517614
-3414.184262
-3421.917966
-3431.126884
-3437.98887
-3442.950957
-3452.316338
-3462.352271
-3471.896466
-3478.378472
-3490.157841
-3506.40756
-3518.678667
-3527.351144
-3540.270453
-3553.681499
-3570.378252
-3582.381139
-3595.859241
-3616.22168
-3633.477227
-3645.748335
-3657.170076
-3666.82603
-3680.41589
-3689.066015
-3690.809451
-3697.850251
-3702.298248
-3700.353646
-3693.469309
-3688.99896
-3684.550963
-3675.431451
-3666.96014
-3660.567541
-3649.458724
-3637.768762
-3621.787265
-3595.412206
-3564.656206
-3530.592147
-3488.503812
-3449.276501
-3414.430131
-3383.964704
-3353.521628
-3325.045505
-3302.313781
-3285.549973
-3268.85322
-3255.106897
-3248.446077
-3246.009737
-3242.411106
-3239.617138
-3240.310042
-3242.768734
-3242.679327
-3246.345013
-3250.167161
-3256.246836
-3260.359557
-3258.839638
-3258.638472
-3264.785202
-3268.115612
-3268.85322
-3267.512115
-3270.037862
-3273.837659
-3269.076737
-3267.690929
-3270.01551
-3270.686063
-3267.333301
-3266.17101
-3266.863914
-3266.506286
-3263.824077
-3257.230312
-3254.995138
-3256.738574
-3253.475219
-3249.027222
-3249.965996
-3257.163257
-3264.405222
-3260.650129
-3247.619062
-3240.198283
-3244.780391
-3251.105935
-3259.51019
-3270.954284
-3274.709377
-3262.572379
-3294.110691
-3332.265119
-3338.590662
-3329.269985
-3317.356505
-3297.418749
-3280.319665
-3266.55099
-3255.777449
-3238.611309
-3221.355763
-3213.063265
-3209.464635
-3210.17989
-3211.096312
-3210.001076
-3207.788254
-3206.000114
-3211.006905
-3210.872794
-3207.09535
-3204.189623
-3205.061341
-3206.536556
-3202.312076
-3200.009847
-3201.350951
-3203.072036
-3210.850443
-3252.916426
-3372.632369
-3492.080091
-3511.883737
-3468.61076
-3368.564352
-3071.420261
-2779.193554
-2623.714819
-2469.152506
-2115.749075
-1782.819841
-1476.757404
-1299.61983
-1517.951669
-1901.306439
-2292.797243
-2630.330936
-2881.89982
-3077.321121
-3183.13428
-3219.321754
-3235.526769
-3255.509228
-3270.686063
-3286.399339
-3301.307953
-3321.893909
-3337.204854
-3346.100848
-3357.14261
-3367.64793
-3372.52061
-3378.600285
-3386.22223
-3395.699369
-3402.427244
-3407.545794
-3412.463178
-3422.342649
-3432.535044
-3440.581672
-3449.723536
-3462.575789
-3475.02571
-3483.966408
-3494.427025
-3508.910955
-3525.004211
-3537.297671
-3551.580435
-3570.534715
-3590.450119
-3608.309163
-3624.022439
-3640.115695
-3655.896027
-3668.010672
-3676.034948
-3684.439204
-3688.797794
-3691.81528
-3687.613152
-3684.416853
-3683.455728
-3674.112698
-3663.585027
-3652.230341
-3642.060297
-3628.872768
-3612.37718
-3588.527869
-3563.270398
-3530.793313
-3496.55044
-3455.646748
-3416.106512
-3381.282494
-3346.793753
-3318.004706
-3294.714188
-3274.150583
-3257.230312
-3241.718202
-3228.508321
-3220.729914
-3215.164329
-3210.626925
-3211.364533
-3215.544309
-3218.785312
-3218.919422
-3221.06519
-3224.373248
-3232.59869
-3234.655051
-3236.800818
-3240.913539
-3246.769696
-3249.988347
-3249.206036
-3253.385812
-3259.040804
-3257.297368
-3254.883379
-3253.855199
-3256.716222
-3255.308062
-3254.302234
-3252.71526
-3250.837714
-3247.686118
-3243.327527
-3239.505379
-3239.572434
-3237.381963
-3233.157484
-3229.78237
-3229.894129
-3233.828036
-3236.06321
-3236.800818
-3230.564681
-3221.57928
-3221.44517
-3227.658955
-3241.762905
-3252.983481
-3261.365385
-3252.33528
-3268.249723
-3306.113578
-3318.764665
-3308.147586
-3297.396397
-3285.214697
-3268.137964
-3253.922254
-3241.293519
-3231.548158
-3211.96803
-3197.171175
-3192.164384
-3194.131338
-3195.159518
-3192.901992
-3191.180908
-3193.930172
-3197.081768
-3195.69596
-3193.192565
-3191.873812
-3193.170213
-3194.041931
-3192.030274
-3189.303361
-3192.432605
-3189.392768
-3192.924344
-3218.293574
-3303.498424
-3457.837219
-3540.002232
-3509.961487
-3442.190998
-3184.453033
-2819.091418
-2572.685787
-2435.736649
-2186.224125
-1807.317353
-1490.101396
-1193.873727
-1298.546946
-1659.818192
-2075.337121
-2478.987274
-2773.024472
-3005.124987
-3149.785477
-3202.110911
-3224.328545
-3243.908673
-3257.520885
-3273.770603
-3295.116519
-3314.540185
-3326.408962
-3336.936633
-3348.716003
-3361.232979
-3371.067747
-3376.029834
-3384.523497
-3392.748939
-3400.996733
-3406.182338
-3414.094855
-3422.923794
-3428.534082
-3439.084105
-3450.192922
-3458.775992
-3472.745833
-3487.162708
-3498.360932
-3515.169444
-3533.386115
-3544.964319
-3557.28013
-3577.3967
-3598.317933
-3616.422846
-3633.52193
-3651.224512
-3666.781326
-3682.807527
-3694.296324
-3705.673362
-3717.609193
-3721.699562
-3724.113551
-3722.481873
-3720.850196
-3712.378885
-3699.347818
-3691.234135
-3683.142803
-3669.329425
-3648.989338
-3624.581233
-3598.02736
-3561.392851
-3520.600917
-3479.741929
-3443.308585
-3402.360189
-3363.781078
-3329.806427
-3303.006685
-3282.510135
-3262.348862
-3244.176894
-3236.622004
-3230.341164
-3222.450998
-3215.141978
-3215.834882
-3220.439341
-3219.679382
-3220.305231
-3222.138074
-3226.429609
-3229.223577
-3228.150693
-3229.894129
-3233.917443
-3235.146789
-3237.449019
-3241.874664
-3244.936853
-3248.289615
-3247.730821
-3242.612272
-3240.310042
-3243.349879
-3245.987385
-3239.974766
-3241.964071
-3242.634623
-3240.935891
-3235.325603
-3232.486931
-3235.280899
-3231.905786
-3231.257585
-3227.278975
-3225.379077
-3225.200263
-3221.1993
-3219.344106
-3219.947603
-3219.008829
-3213.152672
-3211.699809
-3214.605536
-3214.046742
-3208.056475
-3206.000114
-3208.570565
-3210.291649
-3208.883489
-3204.502547
-3205.329562
-3206.983591
-3212.34801
-3219.52292
-3219.411161
-3214.761998
-3211.252774
-3215.499606
-3226.854292
-3237.605481
-3246.233254
-3244.758039
-3267.869743
-3303.610182
-3320.23988
-3310.62863
-3290.065025
-3282.778356
-3271.557781
-3249.89894
-3237.069039
-3227.234271
-3204.591954
-3191.225611
-3186.263524
-3188.319884
-3193.237268
-3192.410254
-3187.537573
-3189.079844
-3190.912687
-3191.024445
-3190.555059
-3188.945733
-3188.074015
-3189.92921
-3190.331541
-3188.699864
-3187.828146
-3193.416082
-3195.137166
-3207.564736
-3280.587885
-3433.876149
-3521.517339
-3501.087845
-3446.594292
-3231.682269
-2868.71229
-2605.632258
-2458.669538
-2218.83532
-1828.864435
-1519.516292
-1217.030134
-1249.52957
-1579.910705
-1983.538506
-2390.429663
-2699.531937
-2945.33407
-3113.128616
-3182.419024
-3209.777559
-3236.398487
-3255.1516
-3272.630664
-3293.954229
-3313.06497
-3326.341906
-3335.684936
-3349.386555
-3361.680014
-3368.542
-3374.912247
-3382.89182
-3392.458366
-3398.985076
-3404.997695
-3412.351419
-3422.365001
-3430.970422
-3439.39703
-3446.929568
-3457.546646
-3470.957693
-3482.982931
-3494.605839
-3505.781711
-3522.098484
-3534.906034
-3548.630005
-3566.667863
-3584.839831
-3599.547279
-3613.695933
-3628.090456
-3644.720154
-3659.874637
-3674.716195
-3687.322579
-3693.916344
-3695.816242
-3695.235097
-3697.224402
-3697.850251
-3693.715178
-3680.550001
-3668.077727
-3656.164248
-3642.842608
-3626.168206
-3605.984581
-3582.962284
-3556.341357
-3520.75738
-3482.357083
-3446.884864
-3414.139559
-3377.25918
-3341.831665
-3313.422598
-3289.036845
-3265.723975
-3247.216731
-3231.05642
-3222.585109
-3216.371324
-3211.185719
-3211.252774
-3213.934983
-3213.197376
-3212.415065
-3214.426722
-3221.020486
-3223.479178
-3225.200263
-3229.402391
-3232.0846
-3236.376135
-3240.80178
-3241.271167
-3244.601577
-3247.641414
-3247.4626
-3247.909635
-3248.110801
-3251.374155
-3249.027222
-3243.707507
-3243.886321
-3244.422763
-3243.059307
-3236.95728
-3234.252719
-3235.526769
-3233.135132
-3230.139998
-3228.910652
-3230.564681
-3228.37421
-3224.239138
-3221.623984
-3222.048667
-3219.455864
-3215.477254
-3214.382018
-3214.158501
-3211.520995
-3210.291649
-3207.564736
-3203.608478
-3202.334428
-3203.519071
-3199.696922
-3201.596821
-3204.569603
-3203.519071
-3198.624039
-3196.388864
-3198.333466
-3198.378169
-3195.025408
-3203.362608
-3210.55987
-3207.788254
-3196.21005
-3197.23823
-3204.703713
-3216.572489
-3222.786274
-3233.693926
-3238.030164
-3270.820173
-3306.359447
-3307.968772
-3291.02615
-3281.481955
-3274.776432
-3250.591844
-3233.425705
-3230.832902
-3214.314963
-3192.142033
-3181.837878
-3183.022521
-3187.671684
-3186.375283
-3186.263524
-3185.391806
-3187.023483
-3186.889373
-3186.062358
-3188.096367
-3190.130376
-3184.765957
-3184.073053
-3186.487041
-3189.459823
-3187.761091
-3189.459823
-3195.427739
-3220.796969
-3303.45372
-3433.652631
-3505.379379
-3491.811871
-3462.285216
-3259.711356
-2920.121303
-2677.15784
-2526.7306
-2240.069478
-1857.720537
-1557.670719
-1268.059166
-1298.971629
-1624.793008
-2027.414981
-2408.244003
-2707.757379
-2943.992966
-3114.022686
-3189.683341
-3215.879585
-3237.940757
-3259.912522
-3280.185554
-3295.965886
-3312.774397
-3328.934709
-3341.675203
-3356.829686
-3367.156192
-3375.180468
-3382.109509
-3391.318427
-3400.750864
-3406.584669
-3415.592422
-3425.851873
-3431.059829
-3437.161855
-3445.521408
-3457.166667
-3468.186077
-3478.490231
-3490.090786
-3505.669952
-3518.119874
-3529.698077
-3547.624176
-3567.763098
-3583.409319
-3596.440386
-3611.103131
-3631.689087
-3646.016556
-3659.382899
-3675.185582
-3690.652989
-3701.761806
-3705.315734
-3705.606306
-3706.925059
-3707.774425
-3697.738492
-3689.222478
-3684.148632
-3676.906666
-3665.641387
-3652.811486
-3634.416
-3622.569576
-3606.498671
-3579.251895
-3550.261682
-3518.477502
-3484.592257
-3446.281367
-3411.837329
-3378.443823
-3346.011441
-3315.88129
-3290.556763
-3269.121441
-3253.09524
-3241.56174
-3228.396562
-3222.965088
-3225.267318
-3221.512225
-3221.154597
-3224.887338
-3228.843597
-3234.610347
-3236.867873
-3242.58992
-3244.713336
-3246.926158
-3247.820228
-3250.41303
-3257.96792
-3261.343033
-3257.297368
-3256.738574
-3257.990272
-3264.159353
-3262.080641
-3260.046632
-3257.58794
-3256.93974
-3254.101068
-3246.546179
-3247.663766
-3250.211865
-3248.177856
-3242.500513
-3241.69585
-3243.305176
-3238.901882
-3235.079734
-3238.007812
-3235.727934
-3235.54912
-3232.196359
-3229.335335
-3229.089466
-3227.793065
-3223.590937
-3222.696867
-3223.032143
-3225.669649
-3222.965088
-3220.841673
-3220.282879
-3222.294536
-3220.126417
-3221.534577
-3230.810551
-3235.9291
-3229.737667
-3219.187643
-3221.57928
-3230.922309
-3237.292556
-3248.177856
-3263.980539
-3261.343033
-3281.213734
-3318.675258
-3330.61109
-3320.329287
-3308.639325
-3293.641304
-3269.859048
-3255.956263
-3254.749269
-3239.728897
-3216.103103
-3206.067169
-3206.603611
-3208.324696
-3208.369399
-3213.085617
-3214.493777
-3213.75617
-3214.426722
-3214.717295
-3218.517091
-3219.187643
-3217.533614
-3217.712428
-3218.941774
-3215.857234
-3213.934983
-3210.716332
-3214.650239
-3235.213844
-3306.605316
-3407.769311
-3474.399862
-3474.601027
-3468.454298
-3376.543924
-3108.211232
-2854.943616
-2717.815664
-2454.668576
-2085.440109
-1781.970475
-1525.975946
-1454.718584
-1651.995081
-2019.234242
-2349.101287
-2644.233721
-2884.358511
-3070.593246
-3179.468594
-3226.764885
-3250.860065
-3269.523772
-3289.126252
-3301.062083
-3314.98722
-3331.058124
-3342.971604
-3351.666433
-3358.03668
-3367.357357
-3375.314578
-3382.422433
-3389.68675
-3397.867489
-3407.858718
-3410.160948
-3411.72557
-3419.861605
-3433.63028
-3443.576806
-3448.963576
-3455.870265
-3469.460126
-3483.720539
-3493.644714
-3506.944002
-3521.092656
-3535.062496
-3548.227674
-3564.946778
-3580.235372
-3597.267401
-3615.1935
-3628.157512
-3641.188579
-3654.733736
-3662.869771
-3669.999977
-3674.067995
-3675.92319
-3674.984416
-3669.351777
-3664.65791
-3660.612245
-3653.616149
-3638.528721
-3625.251785
-3616.266384
-3603.883517
-3586.695026
-3564.611502
-3535.129551
-3500.77492
-3463.3581
-3425.226024
-3389.843212
-3355.08625
-3322.67622
-3295.518851
-3274.955246
-3255.106897
-3236.219673
-3221.847501
-3216.19251
-3212.8621
-3207.788254
-3205.217803
-3205.30721
-3205.553079
-3208.972896
-3211.498643
-3213.577356
-3219.52292
-3223.143902
-3225.535539
-3228.553024
-3230.67644
-3231.972841
-3230.967013
-3233.157484
-3234.766809
-3233.716277
-3234.565644
-3233.87274
-3237.001984
-3240.421801
-3235.325603
-3231.145827
-3232.285766
-3232.241062
-3230.721144
-3227.301327
-3226.362553
-3227.994231
-3223.255661
-3218.181815
-3217.868891
-3215.767827
-3210.068132
-3207.430626
-3203.876698
-3203.854347
-3202.513242
-3197.886431
-3196.388864
-3197.10412
-3196.880602
-3191.247963
-3188.90103
-3188.275181
-3190.242134
-3193.170213
-3190.130376
-3185.749434
-3183.26839
-3182.687245
-3186.21882
-3195.18187
-3205.486024
-3214.896108
-3215.544309
-3255.620987
-3288.656865
-3291.383778
-3273.502382
-3258.504362
-3249.586016
-3229.804722
-3210.112835
-3204.681361
-3188.990437
-3170.997282
-3160.357852
-3157.787401
-3162.25775
-3165.07407
-3159.977872
-3156.200428
-3157.988567
-3160.983701
-3159.016747
-3154.121715
-3155.216951
-3157.89916
-3159.486134
-3153.138239
-3149.919587
-3153.697032
-3154.613454
-3158.033271
-3190.108024
-3295.138871
-3426.656535
-3463.313396
-3428.735248
-3367.849096
-3103.070331
-2775.885496
-2577.714929
-2439.536445
-2120.17472
-1766.65953
-1476.913867
-1233.682183
-1374.900505
-1743.056088
-2138.927834
-2505.094112
-2775.438461
-2989.612876
-3118.761256
-3173.27716
-3197.729969
-3220.640507
-3234.431533
-3246.255606
-3263.801725
-3279.760871
-3290.400301
-3299.542165
-3313.601412
-3325.649002
-3332.935671
-3336.958985
-3345.296186
-3353.789849
-3359.400136
-3363.535209
-3372.654721
-3383.741186
-3390.156137
-3396.86166
-3408.618678
-3419.615736
-3431.015126
-3440.9393
-3451.914007
-3467.761394
-3482.692359
-3497.735083
-3513.448359
-3530.748609
-3549.278206
-3566.198476
-3581.643532
-3600.575459
-3616.422846
-3629.699782
-3640.808599
-3649.838704
-3659.27114
-3663.316806
-3662.132163
-3658.354718
-3655.069012
-3645.413058
-3635.555939
-3623.173073
-3611.170186
-3596.194517
-3578.156659
-3555.35788
-3528.647545
-3500.797272
-3464.810963
-3423.862567
-3387.473927
-3352.024061
-3315.724828
-3286.578153
-3262.1924
-3239.751248
-3216.818359
-3198.109948
-3184.453033
-3174.528858
-3165.58816
-3156.938035
-3154.725212
-3158.994396
-3157.429774
-3155.686337
-3159.553189
-3164.984663
-3165.051718
-3164.448221
-3169.43266
-3177.993378
-3183.693073
-3185.861192
-3186.263524
-3187.761091
-3191.359722
-3189.459823
-3187.537573
-3193.527841
-3194.578373
-3193.25962
-3190.845631
-3192.454957
-3194.444262
-3190.152727
-3183.067224
-3178.954503
-3180.362663
-3178.01573
-3176.272294
-3174.215934
-3172.181925
-3174.618265
-3171.109041
-3168.248018
-3166.459878
-3163.397689
-3160.626073
-3159.419079
-3157.742698
-3155.172247
-3153.227646
-3152.177114
-3159.486134
-3164.04589
-3160.111983
-3148.131448
-3152.244169
-3165.141125
-3178.283951
-3186.241172
-3197.439396
-3201.194489
-3232.062248
-3264.226409
-3266.148659
-3250.480086
-3238.834827
-3226.228443
-3204.502547
-3190.800928
-3185.592972
-3167.644521
-3142.945843
-3137.089686
-3139.727192
-3139.436619
-3139.369564
-3137.78259
-3138.81077
-3138.341384
-3134.228663
-3132.306413
-3133.155779
-3132.865206
-3132.619337
-3133.848683
-3137.357907
-3135.525064
-3130.205349
-3128.797189
-3135.100381
-3160.581369
-3252.536446
-3403.611887
-3473.48344
-3444.26971
-3367.13384
-3088.117014
-2730.153826
-2497.38276
-2354.219836
-2064.205952
-1683.24282
-1371.815964
-1096.710693
-1229.189483
-1601.144862
-2030.700687
-2430.908672
-2719.5591
-2954.140658
-3095.917773
-3142.588215
-3161.900122
-3184.564791
-3204.569603
-3222.562757
-3234.833865
-3250.234216
-3271.691891
-3283.85124
-3291.249668
-3298.357522
-3307.834662
-3317.781188
-3323.793807
-3330.387572
-3340.043526
-3346.167904
-3352.895779
-3359.757764
-3369.525477
-3376.521573
-3385.998712
-3394.850003
-3407.568146
-3424.644878
-3440.04523
-3452.316338
-3464.833315
-3484.614609
-3498.293876
-3514.23067
-3533.900205
-3554.575569
-3576.547334
-3595.300447
-3610.678448
-3629.431561
-3646.485942
-3656.343061
-3661.506314
-3669.150611
-3675.900838
-3673.464498
-3669.150611
-3665.060242
-3658.175905
-3647.447067
-3629.565672
-3612.444235
-3594.585192
-3569.461831
-3537.16356
-3503.501833
-3470.912989
-3430.098704
-3385.551677
-3343.508046
-3309.309877
-3279.917333
-3249.608368
-3223.523882
-3202.803815
-3187.001131
-3172.070166
-3158.435602
-3153.808791
-3153.92055
-3151.730079
-3148.466724
-3148.42202
-3155.46282
-3155.440468
-3152.579445
-3158.167381
-3161.721308
-3165.543457
-3167.264541
-3169.253846
-3172.874829
-3173.567733
-3174.752375
-3177.658102
-3181.100271
-3182.687245
-3183.402501
-3183.357797
-3182.88841
-3184.631847
-3178.619227
-3175.154707
-3170.617303
-3172.472498
-3168.873867
-3165.766974
-3165.297588
-3163.352986
-3163.464745
-3158.994396
-3154.121715
-3152.6465
-3151.931244
-3151.640672
-3150.992471
-3150.657195
-3148.086744
-3144.644576
-3143.795209
-3142.52116
-3140.509503
-3138.386087
-3135.569767
-3138.609605
-3136.910872
-3141.425924
-3148.42202
-3146.455067
-3142.744677
-3137.469666
-3140.151875
-3149.539608
-3162.078936
-3174.573561
-3180.049739
-3196.522975
-3242.232292
-3257.744403
-3243.014603
-3224.462655
-3218.338277
-3199.831033
-3177.188716
-3168.762108
-3159.799058
-3138.251977
-3123.276308
-3118.470683
-3120.124712
-3123.410418
-3123.276308
-3119.543567
-3118.94007
-3121.577575
-3121.354058
-3119.58827
-3118.962421
-3119.655325
-3117.308392
-3116.973116
-3116.682543
-3115.74377
-3114.536776
-3113.083913
-3125.019744
-3183.670721
-3322.944441
-3435.485475
-3437.117152
-3404.081274
-3261.968882
-2910.152425
-2607.845081
-2447.15839
-2249.926597
-1860.290988
-1519.002201
-1191.973828
-1110.725237
-1401.655543
-1797.504937
-2220.75757
-2561.19699
-2820.633688
-3016.010286
-3107.406569
-3139.146047
-3163.66591
-3181.971989
-3198.51228
-3220.886376
-3239.795952
-3253.430516
-3265.120478
-3279.470298
-3290.355598
-3296.614086
-3303.140796
-3315.411903
-3324.889043
-3329.560558
-3337.02604
-3344.402116
-3349.990052
-3359.95893
-3370.508953
-3381.416605
-3391.229021
-3401.22025
-3411.390294
-3426.07539
-3441.945129
-3456.18319
-3469.482478
-3485.39692
-3506.608725
-3525.63006
-3543.533807
-3560.699947
-3575.072119
-3596.149814
-3612.176014
-3624.625936
-3637.701707
-3645.9495
-3648.855227
-3649.726945
-3650.777477
-3647.648233
-3642.663794
-3637.478189
-3627.978698
-3616.691067
-3601.73775
-3581.308255
-3560.09645
-3539.130514
-3511.503757
-3476.769147
-3436.536007
-3397.085178
-3359.198971
-3322.54211
-3286.15347
-3255.91156
-3233.246891
-3209.218765
-3187.537573
-3172.830125
-3162.213047
-3154.211122
-3145.248073
-3141.895311
-3145.359831
-3144.845741
-3144.622224
-3152.221817
-3158.346195
-3160.737832
-3160.514314
-3163.196524
-3167.197486
-3172.673663
-3175.937018
-3175.981721
-3181.502602
-3184.408329
-3182.128451
-3178.596876
-3178.775689
-3182.396672
-3179.312131
-3178.306303
-3177.434585
-3177.099309
-3173.79125
-3167.555114
-3166.86221
-3166.34812
-3165.431698
-3159.664948
-3156.491
-3155.932207
-3155.284006
-3148.980814
-3145.762163
-3149.003166
-3148.712593
-3146.946805
-3145.404535
-3144.041079
-3142.185884
-3139.391916
-3135.905044
-3138.229625
-3140.889483
-3137.559073
-3136.061506
-3135.502712
-3138.341384
-3140.442448
-3137.827294
-3137.290852
-3137.000279
-3134.653346
-3139.973061
-3153.02648
-3153.741736
-3142.074125
-3134.83216
-3140.73302
-3152.892369
-3164.738794
-3175.132355
-3184.587143
-3210.135187
-3250.904769
-3253.162295
-3236.487894
-3226.31785
-3219.411161
-3197.23823
-3176.831088
-3166.973968
-3159.262617
-3137.2685
-3120.147064
-3117.576613
-3120.236471
-3118.493035
-3119.498863
-3121.219947
-3122.069314
-3120.10236
-3117.487206
-3116.481378
-3119.767084
-3117.53191
-3116.347267
-3117.308392
-3120.057657
-3121.622279
-3119.364753
-3118.828311
-3136.016802
-3200.389826
-3334.299127
-3436.4466
-3434.300832
-3405.601192
-3255.509228
-2909.906555
-2625.100628
-2471.298274
-2248.004347
-1844.510656
-1504.518271
-1178.585133
-1130.193607
-1430.422238
-1838.967423
-2253.1676
-2580.352435
-2833.284775
-3023.431065
-3117.330744
-3152.579445
-3172.137221
-3190.219783
-3210.515167
-3230.028239
-3244.601577
-3260.538371
-3273.412975
-3286.712263
-3296.010589
-3301.754987
-3312.059142
-3323.637345
-3331.706325
-3337.40602
-3344.223302
-3350.437087
-3359.936578
-3366.597398
-3379.337892
-3393.173622
-3401.22025
-3408.819843
-3420.330992
-3435.731344
-3449.455315
-3463.380452
-3481.239495
-3497.332751
-3513.604821
-3531.441513
-3549.300557
-3569.439479
-3588.639628
-3604.799939
-3615.70759
-3627.174035
-3641.613262
-3649.838704
-3652.565617
-3655.538399
-3657.438297
-3656.052489
-3649.570483
-3641.07682
-3631.286756
-3622.413113
-3604.732884
-3584.4375
-3568.433651
-3548.987633
-3522.389057
-3490.984856
-3456.652577
-3419.638088
-3382.087157
-3341.027002
-3310.271002
-3285.237048
-3258.839638
-3231.414048
-3207.944716
-3195.047759
-3185.078881
-3172.76307
-3170.103213
-3170.438489
-3170.058509
-3171.623131
-3171.913704
-3177.613399
-3180.250905
-3182.642541
-3182.396672
-3186.263524
-3190.4433
-3191.292666
-3189.504527
-3193.304323
-3198.601687
-3202.289725
-3202.535594
-3203.228498
-3204.301382
-3205.30721
-3204.077864
-3201.149786
-3201.909745
-3202.669704
-3199.383998
-3194.80189
-3196.053588
-3195.31598
-3189.459823
-3186.107062
-3185.436509
-3182.933114
-3180.228553
-3176.09348
-3176.495812
-3175.512335
-3172.852477
-3171.913704
-3171.064338
-3169.522067
-3166.012843
-3165.230532
-3165.185829
-3165.208181
-3162.928303
-3158.167381
-3159.910817
-3162.660082
-3160.804887
-3154.166419
-3152.624148
-3156.423945
-3161.520143
-3160.626073
-3154.836971
-3160.469611
-3171.466669
-3170.550247
-3159.776707
-3159.776707
-3163.263579
-3170.214971
-3182.419024
-3196.455919
-3207.564736
-3209.039951
-3243.796914
-3276.318702
-3273.770603
-3259.89017
-3248.379022
-3228.575376
-3205.597783
-3197.305286
-3186.665855
-3163.956483
-3150.165457
-3145.873922
-3146.209198
-3146.209198
-3148.980814
-3148.556131
-3146.678584
-3147.416192
-3149.852532
-3151.573616
-3151.573616
-3150.567788
-3152.020651
-3153.406459
-3152.445334
-3150.120753
-3152.624148
-3153.473515
-3157.273311
-3194.712483
-3295.161223
-3403.030742
-3446.013146
-3437.675945
-3412.932564
-3213.689114
-2902.105797
-2718.732085
-2560.705252
-2218.008306
-1849.986833
-1523.807826
-1291.327332
-1366.026862
-1707.248593
-2086.781214
-2433.568529
-2712.339486
-2934.292309
-3089.614581
-3158.815582
-3187.291704
-3211.856271
-3226.653126
-3243.416934
-3259.845467
-3277.548048
-3293.551897
-3306.068874
-3312.819101
-3324.576119
-3335.461418
-3338.478904
-3343.150418
-3354.929788
-3365.993901
-3372.408852
-3376.74509
-3386.602209
-3396.325218
-3405.288268
-3412.418474
-3423.102608
-3435.440771
-3447.153085
-3458.060736
-3473.550495
-3489.554344
-3502.56306
-3517.56108
-3533.006136
-3552.474505
-3573.93218
-3589.533697
-3603.905869
-3622.681334
-3636.606471
-3646.374183
-3651.71625
-3659.896989
-3666.133126
-3666.133126
-3662.959178
-3660.209913
-3654.197294
-3643.066125
-3633.141951
-3624.313012
-3615.662887
-3602.721227
-3586.829136
-3572.00993
-3550.462848
-3518.07517
-3478.423176
-3439.419382
-3406.428207
-3370.508953
-3332.354526
-3301.419711
-3277.011606
-3253.60933
-3229.469446
-3210.224594
-3198.936963
-3194.332504
-3191.426777
-3190.130376
-3190.711521
-3193.661951
-3193.974876
-3195.047759
-3197.4841
-3201.015675
-3201.909745
-3206.357742
-3212.906803
-3218.427684
-3219.388809
-3216.483082
-3216.170158
-3220.193472
-3221.422818
-3218.561795
-3215.209033
-3214.985515
-3218.941774
-3218.897071
-3217.73478
-3215.81253
-3216.460731
-3212.683286
-3207.22946
-3202.826166
-3202.692056
-3203.094387
-3198.959315
-3195.204222
-3194.176041
-3190.465652
-3187.515222
-3186.710559
-3187.11289
-3183.983646
-3179.513297
-3177.903971
-3178.596876
-3179.647407
-3175.892314
-3172.003111
-3174.797079
-3173.701843
-3170.617303
-3167.912742
-3166.99632
-3171.466669
-3180.876753
-3179.714463
-3174.819431
-3174.305341
-3176.205239
-3181.793175
-3192.969047
-3205.150748
-3214.538481
-3225.334373
-3267.355653
-3287.427519
-3279.179726
-3262.281807
-3254.950435
-3237.136094
-3216.460731
-3201.529765
-3190.689169
-3172.740718
-3156.759221
-3150.903064
-3152.51239
-3155.440468
-3156.043965
-3153.786439
-3150.053698
-3151.797134
-3154.926378
-3153.67468
-3151.327747
-3153.071183
-3154.211122
-3155.887503
-3152.802962
-3153.518218
-3152.713555
-3147.036212
-3152.668852
-3175.177059
-3260.851295
-3376.007483
-3436.871283
-3421.023896
-3402.11432
-3257.766754
-2950.631434
-2724.43178
-2596.646857
-2310.611583
-1924.440494
-1623.988345
-1364.283426
-1344.368022
-1614.220633
-1999.698818
-2353.281063
-2659.477611
-2891.555773
-3060.490258
-3149.003166
-3187.649332
-3208.548213
-3222.383943
-3240.578263
-3258.839638
-3275.670502
-3288.478051
-3298.245764
-3310.427464
-3320.038714
-3329.493502
-3333.762686
-3341.809314
-3350.615901
-3358.081383
-3364.384575
-3370.46425
-3379.382596
-3386.87043
-3393.754768
-3403.120149
-3414.765407
-3425.583652
-3434.367887
-3443.710916
-3457.21137
-3475.539801
-3488.324998
-3499.098539
-3519.148054
-3536.962394
-3554.9779
-3573.507497
-3588.885497
-3608.487977
-3623.642459
-3630.839721
-3641.07682
-3651.58214
-3652.029175
-3652.722079
-3654.01848
-3652.275044
-3645.055431
-3632.806675
-3622.234299
-3612.868919
-3600.32959
-3584.750424
-3566.332587
-3551.043993
-3525.853577
-3491.67776
-3454.372699
-3419.056942
-3384.188221
-3346.436125
-3311.165072
-3283.515964
-3260.851295
-3236.085562
-3213.353838
-3195.69596
-3187.895201
-3177.479288
-3168.337425
-3172.450146
-3174.059471
-3171.243152
-3174.014768
-3178.149841
-3179.401538
-3182.396672
-3186.710559
-3189.191602
-3193.818413
-3199.428701
-3198.288762
-3200.278068
-3204.211975
-3204.636658
-3200.367475
-3203.094387
-3204.524899
-3204.591954
-3205.217803
-3203.094387
-3204.860175
-3210.917498
-3207.385922
-3203.563774
-3204.837823
-3207.542385
-3202.35678
-3199.674571
-3197.037065
-3195.450091
-3191.516184
-3188.945733
-3185.57062
-3183.201335
-3182.62019
-3177.278123
-3172.047814
-3173.455974
-3174.081823
-3169.879695
-3169.320902
-3169.991454
-3169.276198
-3167.644521
-3166.214009
-3167.242189
-3164.18
-3163.040061
-3162.280102
-3161.654253
-3162.928303
-3160.559018
-3158.189733
-3157.273311
-3160.246093
-3159.106154
-3156.647462
-3163.084765
-3174.215934
-3169.320902
-3157.25096
-3155.909855
-3161.408384
-3170.594951
-3179.513297
-3191.739701
-3204.100216
-3242.9699
-3270.708414
-3262.1924
-3246.277958
-3240.466504
-3231.861083
-3209.419931
-3192.678475
-3188.677512
-3179.490945
-3160.246093
-3147.438544
-3145.873922
-3142.990547
-3139.950709
-3140.710669
-3143.303471
-3142.968195
-3139.213102
-3136.285023
-3139.257805
-3139.302509
-3135.636823
-3136.128561
-3141.358869
-3143.41523
-3138.140218
-3135.659174
-3140.397744
-3152.937073
-3209.710504
-3337.182502
-3444.470876
-3444.828504
-3407.657553
-3281.504307
-2961.740251
-2688.17725
-2541.4604
-2348.900121
-1969.993349
-1650.206941
-1332.856874
-1205.183709
-1459.412451
-1852.601987
-2252.631158
-2586.923848
-2832.502464
-3027.387324
-3132.641689
-3165.58816
-3182.843707
-3203.519071
-3221.556928
-3239.728897
-3253.542275
-3269.255551
-3288.746272
-3295.272982
-3301.66558
-3309.533395
-3318.809368
-3324.777284
-3330.208758
-3337.964813
-3349.744183
-3358.662529
-3364.295168
-3370.173677
-3383.40591
-3395.431148
-3403.254259
-3413.51371
-3426.433018
-3439.218216
-3452.271635
-3464.341577
-3480.613647
-3497.980952
-3513.515414
-3528.647545
-3547.087735
-3568.143078
-3587.164412
-3603.056503
-3614.791169
-3629.275099
-3642.797904
-3650.218684
-3656.208951
-3660.411079
-3663.808544
-3658.689995
-3653.102059
-3648.274082
-3638.104038
-3623.016611
-3603.28002
-3587.276171
-3573.395738
-3547.646528
-3515.661182
-3484.88283
-3450.282329
-3413.603117
-3372.967645
-3338.501255
-3307.477034
-3278.151545
-3246.702641
-3222.227481
-3204.323733
-3193.125509
-3178.105137
-3163.777669
-3156.245131
-3151.528913
-3145.918625
-3145.963329
-3150.679547
-3154.077012
-3155.552227
-3158.368547
-3161.453088
-3168.203314
-3166.593989
-3165.565808
-3172.338387
-3178.261599
-3181.368492
-3179.42389
-3180.228553
-3180.273256
-3185.391806
-3191.359722
-3186.5988
-3187.694035
-3187.694035
-3184.631847
-3182.553134
-3182.866059
-3182.173155
-3181.413195
-3182.307265
-3180.519126
-3176.98755
-3174.595913
-3169.097384
-3165.543457
-3168.829163
-3165.96814
-3160.737832
-3161.60955
-3159.732003
-3159.82141
-3155.798096
-3151.23834
-3153.004128
-3152.892369
-3151.730079
-3150.277215
-3149.606663
-3150.098401
-3149.226683
-3146.36566
-3148.958462
-3148.891407
-3146.097439
-3141.783552
-3142.409401
-3141.738849
-3139.816599
-3137.313203
-3139.347212
-3144.175189
-3143.169361
-3138.050811
-3135.994451
-3141.090648
-3140.665965
-3134.630994
-3136.195616
-3137.760238
-3136.977927
-3132.328764
-3138.743715
-3149.629015
-3149.092573
-3138.67666
-3134.005145
-3144.912797
-3150.992471
-3161.341329
-3175.57939
-3199.004018
-3226.563719
-3257.654996
-3247.395545
-3228.038934
-3219.299402
-3212.750341
-3203.027332
-3181.72612
-3167.085727
-3162.570675
-3154.836971
-3137.447314
-3127.523139
-3123.700991
-3122.851625
-3123.052791
-3123.343363
-3125.131503
-3124.349192
-3118.604793
-3120.370581
-3123.700991
-3118.94007
-3118.873014
-3120.415285
-3120.147064
-3118.202462
-3119.431808
-3117.487206
-3127.545491
-3156.692166
-3255.084545
-3398.381579
-3453.322167
-3417.089989
-3339.909415
-3060.378499
-2729.460922
-2521.165016
-2380.997226
-2078.9134
-1708.209718
-1404.04718
-1125.387982
-1257.822067
-1631.654993
-2047.620958
-2428.472332
-2707.332695
-2935.767524
-3078.528116
-3133.424
-3153.294701
-3175.0653
-3195.226573
-3211.789216
-3226.004925
-3244.154542
-3260.650129
-3272.965941
-3279.582057
-3285.371159
-3298.06695
-3307.924069
-3315.50131
-3318.876424
-3330.253462
-3337.853055
-3343.440991
-3350.370032
-3359.355433
-3373.124107
-3384.121166
-3391.385483
-3402.11432
-3418.38639
-3431.573919
-3442.034536
-3457.792515
-3473.148164
-3489.017902
-3506.92165
-3526.904109
-3549.322909
-3566.511401
-3582.403491
-3599.971962
-3620.200291
-3632.963137
-3642.529683
-3648.363489
-3657.371242
-3662.869771
-3660.008748
-3656.477172
-3650.889236
-3643.155532
-3630.169169
-3613.092436
-3595.568668
-3576.480279
-3553.94972
-3523.528996
-3492.415368
-3462.262864
-3423.862567
-3380.321369
-3343.508046
-3308.505214
-3278.397414
-3250.860065
-3223.188606
-3205.575431
-3189.281009
-3172.584256
-3155.731041
-3147.90793
-3141.068297
-3135.972099
-3131.233529
-3132.373468
-3136.687355
-3141.135352
-3141.269462
-3144.622224
-3145.762163
-3150.992471
-3152.624148
-3158.770878
-3162.905951
-3168.158611
-3169.611474
-3170.773765
-3176.294646
-3178.552172
-3177.546344
-3176.428756
-3178.105137
-3178.552172
-3176.696977
-3175.825259
-3174.282989
-3172.696015
-3169.611474
-3166.571637
-3163.844724
-3163.978835
-3161.408384
-3156.848628
-3157.943864
-3158.41325
-3157.51918
-3153.02648
-3150.388974
-3150.008994
-3149.494904
-3146.164494
-3146.320957
-3146.522122
-3145.181018
-3141.247111
-3138.363735
-3137.916701
-3140.017765
-3137.760238
-3136.039154
-3136.642651
-3138.006108
-3133.312241
-3130.47357
-3132.90991
-3132.976965
-3131.300584
-3130.674735
-3132.999317
-3134.698049
-3136.575596
-3134.809808
-3132.172302
-3133.781628
-3132.52993
-3131.948785
-3131.300584
-3127.903119
-3127.321974
-3125.712648
-3121.555224
-3126.293793
-3125.198558
-3124.796227
-3126.338497
-3129.981831
-3132.351116
-3130.831198
-3130.160645
-3128.730134
-3127.523139
-3131.233529
-3127.009049
-3128.886596
-3141.157704
-3147.930282
-3144.465762
-3141.403573
-3144.130486
-3142.163532
-3159.709651
-3188.789271
-3215.589013
-3227.033106
-3235.996155
-3213.934983
-3198.64639
-3200.501585
-3195.606553
-3182.799003
-3171.019634
-3158.949692
-3154.881675
-3142.945843
-3126.964346
-3124.170378
-3121.152892
-3118.828311
-3118.828311
-3123.589232
-3124.952689
-3122.382238
-3122.941032
-3124.952689
-3125.489131
-3123.723343
-3119.990602
-3122.605756
-3123.276308
-3121.018782
-3128.752485
-3165.07407
-3276.944551
-3410.026838
-3438.055925
-3403.298963
-3326.744238
-3031.321231
-2708.584393
-2521.969679
-2386.182831
-2060.987301
-1696.475052
-1378.119156
-1134.149865
-1315.087237
-1693.211698
-2104.752017
-2473.846373
-2739.720373
-2955.995852
-3084.563087
-3132.731096
-3155.46282
-3176.853439
-3187.872849
-3203.139091
-3224.954394
-3245.339184
-3256.783278
-3267.847391
-3281.191383
-3287.360464
-3295.429444
-3304.99599
-3313.623764
-3319.72579
-3326.453665
-3333.159188
-3343.217473
-3355.354471
-3361.054165
-3368.92198
-3383.092986
-3394.090044
-3403.231907
-3414.92187
-3428.735248
-3445.81198
-3458.910103
-3475.606856
-3495.90224
-3513.20249
-3529.340449
-3544.450229
-3566.734918
-3588.483165
-3605.112863
-3616.266384
-3630.973832
-3646.173018
-3652.744431
-3654.934902
-3659.427602
-3660.567541
-3657.550056
-3647.245901
-3641.412096
-3632.002012
-3614.031209
-3593.914639
-3572.948703
-3550.373441
-3524.467769
-3492.05774
-3456.898446
-3423.035553
-3386.468099
-3346.391421
-3305.532432
-3275.13406
-3252.156467
-3228.843597
-3203.854347
-3185.771785
-3171.332559
-3157.653291
-3145.315128
-3139.526026
-3137.804942
-3133.982794
-3130.786494
-3132.01584
-3136.419134
-3143.281119
-3141.783552
-3141.470628
-3147.706765
-3158.41325
-3158.212085
-3158.659119
-3163.218875
-3168.40448
-3166.99632
-3166.415175
-3173.634788
-3177.12166
-3179.759166
-3182.106099
-3182.933114
-3184.005998
-3183.804832
-3181.569658
-3178.373358
-3179.93798
-3177.211067
-3173.903009
-3170.483192
-3171.153745
-3170.594951
-3166.281064
-3161.006053
-3158.055622
-3159.106154
-3156.491
-3150.947768
-3151.305396
-3153.294701
-3149.383145
-3146.767991
-3146.320957
-3147.639709
-3147.550302
-3143.437581
-3142.543512
-3143.325823
-3144.331651
-3145.024555
-3142.275291
-3141.783552
-3141.671794
-3136.352078
-3135.033326
-3135.234491
-3137.13439
-3135.927395
-3133.513407
-3136.732058
-3135.413305
-3135.905044
-3136.88852
-3136.128561
-3137.939052
-3139.369564
-3133.446352
-3134.787456
-3138.877826
-3137.067334
-3135.234491
-3135.189788
-3138.050811
-3136.37443
-3130.831198
-3129.71361
-3132.90991
-3135.010974
-3136.195616
-3135.949747
-3137.40261
-3140.822427
-3141.045945
-3137.2685
-3137.380259
-3140.956538
-3140.844779
-3137.313203
-3143.817561
-3157.988567
-3160.760183
-3156.133372
-3153.67468
-3151.461858
-3166.191657
-3192.477309
-3221.892205
-3234.699754
-3240.734725
-3233.313946
-3210.761036
-3209.15171
-3206.58126
-3197.23823
-3188.163422
-3176.339349
-3169.007977
-3159.329672
-3140.375392
-3133.133427
-3128.931299
-3127.478436
-3128.774837
-3134.027497
-3138.721363
-3135.145084
-3130.540625
-3134.027497
-3136.530892
-3136.463837
-3135.256843
-3136.285023
-3137.670831
-3137.581424
-3140.442448
-3162.347157
-3257.789106
-3399.320352
-3457.658405
-3424.778989
-3376.074538
-3147.595006
-2810.977734
-2590.522479
-2461.195285
-2183.519564
-1799.181318
-1489.073216
-1183.234296
-1253.843457
-1606.509281
-2017.53551
-2404.645372
-2697.006189
-2925.97746
-3072.649607
-3136.575596
-3164.872904
-3184.587143
-3200.121605
-3218.047704
-3237.896054
-3253.721089
-3265.65692
-3277.413938
-3290.64617
-3304.236031
-3310.941554
-3316.216566
-3324.889043
-3333.159188
-3341.339927
-3348.80541
-3357.611997
-3367.558523
-3375.426337
-3380.611942
-3393.508898
-3408.730436
-3420.509806
-3429.383448
-3442.660384
-3459.223027
-3473.394033
-3488.883792
-3503.658295
-3522.612574
-3542.885607
-3561.817534
-3582.627008
-3604.3082
-3622.144892
-3637.925224
-3650.732774
-3667.563637
-3678.203068
-3681.377015
-3683.209858
-3682.382844
-3684.12628
-3679.52182
-3665.976663
-3657.818277
-3650.151628
-3635.175959
-3615.148796
-3591.277133
-3566.734918
-3535.889511
-3501.467824
-3466.219123
-3427.86353
-3390.513765
-3352.068764
-3316.842415
-3290.824984
-3265.031071
-3240.779429
-3217.041876
-3199.048722
-3185.235344
-3172.405442
-3166.10225
-3161.900122
-3161.788364
-3160.000224
-3157.876808
-3161.922474
-3164.738794
-3165.901085
-3169.030329
-3169.790288
-3175.132355
-3180.139146
-3180.921457
-3182.866059
-3188.051663
-3194.131338
-3198.713446
-3196.59003
-3198.467576
-3202.759111
-3201.08273
-3203.630829
-3205.910707
-3207.140053
-3209.956373
-3207.162405
-3205.329562
-3207.900012
-3206.447149
-3203.027332
-3199.272239
-3199.272239
-3197.61821
-3192.23144
-3192.119681
-3195.405387
-3192.790233
-3190.130376
-3188.118719
-3185.481213
-3184.318922
-3177.278123
-3175.467631
-3181.390844
-3179.602704
-3176.138184
-3174.528858
-3177.166364
-3178.9098
-3175.512335
-3173.813602
-3172.293684
-3174.953541
-3174.282989
-3168.896218
-3170.349082
-3178.753338
-3177.144012
-3173.903009
-3174.908838
-3178.082785
-3182.62019
-3172.472498
-3174.528858
-3175.422928
-3176.361701
-3176.227591
-3173.344216
-3173.500678
-3176.920495
-3176.696977
-3174.305341
-3174.864134
-3173.970064
-3174.17123
-3172.964236
-3176.294646
-3175.601742
-3173.008939
-3172.517201
-3172.807774
-3177.50164
-3179.669759
-3175.847611
-3175.914666
-3178.39571
-3178.775689
-3177.255771
-3176.205239
-3178.105137
-3176.361701
-3186.174117
-3199.071073
-3198.802852
-3196.277105
-3192.790233
-3190.800928
-3197.282934
-3217.488911
-3243.908673
-3254.659862
-3262.32651
-3286.108766
-3273.837659
-3256.515057
-3257.275016
-3247.84258
-3233.224539
-3215.611364
-3208.883489
-3208.12353
-3193.974876
-3174.014768
-3169.611474
-3172.852477
-3177.054605
-3178.39571
-3179.379187
-3180.630884
-3180.519126
-3177.88162
-3177.278123
-3177.233419
-3181.413195
-3181.971989
-3182.463727
-3185.592972
-3189.459823
-3197.595858
-3230.855254
-3329.71702
-3427.215329
-3466.375585
-3454.439754
-3435.597233
-3268.920275
-2981.230972
-2805.501557
-2659.656424
-2334.460894
-1973.748442
-1666.277846
-1432.098619
-1460.708852
-1756.914169
-2119.928851
-2437.390678
-2712.250079
-2931.900672
-3088.988732
-3171.869
-3205.68719
-3229.13417
-3247.283786
-3259.241969
-3276.050481
-3294.87065
-3306.806482
-3317.401209
-3328.979412
-3340.490561
-3346.905511
-3352.672261
-3362.596436
-3370.46425
-3379.315541
-3382.064805
-3388.546811
-3398.895669
-3408.350457
-3411.300887
-3417.648782
-3434.52435
-3448.740059
-3461.704071
-3470.756527
-3478.60199
-3495.164632
-3509.402693
-3525.093618
-3541.566854
-3559.58236
-3577.463755
-3597.557974
-3616.646363
-3635.243015
-3652.587968
-3668.256541
-3676.43728
-3687.948428
-3693.201088
-3693.469309
-3695.100986
-3697.827899
-3694.76571
-3685.66855
-3674.895009
-3663.003881
-3650.665718
-3640.070992
-3621.608451
-3600.039017
-3578.42488
-3550.194627
-3513.001324
-3474.846897
-3441.118114
-3405.332971
-3370.620712
-3339.820008
-3314.517834
-3290.288543
-3267.355653
-3249.541312
-3234.789161
-3224.462655
-3214.851405
-3206.983591
-3205.1731
-3205.530728
-3205.396617
-3201.46271
-3206.380094
-3211.744513
-3215.074922
-3213.487949
-3215.052571
-3223.970917
-3226.384905
-3224.037972
-3229.089466
-3233.358649
-3235.41501
-3235.012679
-3237.516074
-3239.326565
-3241.137056
-3241.539388
-3239.371269
-3241.964071
-3241.025298
-3238.164274
-3240.064173
-3244.266301
-3243.707507
-3240.242987
-3237.896054
-3234.699754
-3234.789161
-3233.403353
-3230.005888
-3227.882472
-3229.692963
-3226.720181
-3221.981611
-3217.913594
-3220.282879
-3220.819321
-3214.046742
-3214.046742
-3212.973858
-3210.291649
-3207.005943
-3205.843652
-3204.547251
-3202.580297
-3199.495757
-3194.600725
-3198.244059
-3203.809643
-3203.362608
-3199.361646
-3202.245021
-3202.088559
-3197.327637
-3196.031236
-3195.539498
-3197.61821
-3197.953486
-3196.120643
-3195.003056
-3195.427739
-3198.601687
-3204.636658
-3205.486024
-3200.412178
-3200.456882
-3209.352876
-3213.353838
-3219.567623
-3236.018507
-3253.966958
-3262.460621
-3298.804557
-3307.231165
-3287.114595
-3272.809478
-3268.808516
-3255.553932
-3234.38683
-3217.22069
-3216.483082
-3208.704675
-3194.15369
-3185.660027
-3183.156631
-3186.531745
-3188.185774
-3185.660027
-3186.554097
-3185.682378
-3188.632809
-3190.711521
-3189.191602
-3189.392768
-3194.421911
-3192.812585
-3189.169251
-3186.777614
-3187.671684
-3187.045835
-3197.75232
-3258.370251
-3365.300997
-3444.515579
-3461.078222
-3451.198751
-3395.654666
-3167.532762
-2878.18943
-2717.63685
-2511.129083
-2150.550741
-1822.203615
-1553.20037
-1417.055895
-1528.456989
-1860.738022
-2212.867405
-2528.205815
-2792.09051
-2992.22803
-3126.360849
-3195.427739
-3224.954394
-3242.388754
-3258.727879
-3269.389661
-3283.33715
-3300.212717
-3310.315706
-3322.318592
-3337.294261
-3344.692689
-3346.212607
-3349.922997
-3357.835514
-3363.66932
-3370.397195
-3377.63916
-3384.076462
-3391.385483
-3399.789739
-3408.193995
-3416.59825
-3426.008335
-3434.814922
-3446.214312
-3462.575789
-3476.791498
-3489.286123
-3501.043141
-3518.678667
-3536.560063
-3551.222807
-3573.351034
-3593.311142
-3613.450064
-3634.505407
-3650.241035
-3666.222533
-3682.584009
-3696.710312
-3702.924097
-3702.745283
-3705.919231
-3707.103873
-3698.833728
-3690.7871
-3682.740472
-3673.598608
-3662.467439
-3640.898006
-3619.149759
-3592.394721
-3557.950682
-3518.924537
-3475.606856
-3434.211425
-3392.592477
-3354.505104
-3319.815197
-3293.574249
-3271.80365
-3243.439286
-3224.596766
-3216.952469
-3205.217803
-3192.522012
-3184.073053
-3178.261599
-3177.50164
-3173.52303
-3168.806811
-3169.656178
-3172.964236
-3174.260637
-3174.528858
-3176.495812
-3182.687245
-3187.090538
-3186.241172
-3188.610457
-3190.890335
-3193.6396
-3197.059416
-3198.780501
-3200.680399
-3202.133262
-3204.323733
-3206.111873
-3208.347047
-3208.749379
-3208.347047
-3206.603611
-3208.592917
-3210.17989
-3206.648315
-3208.458806
-3207.654143
-3206.380094
-3206.268335
-3203.787292
-3201.954448
-3201.46271
-3201.172137
-3196.634733
-3195.807719
-3194.936001
-3191.98557
-3189.124547
-3186.710559
-3188.722216
-3187.850498
-3185.101233
-3182.731948
-3185.950599
-3186.777614
-3182.910762
-3181.614361
-3182.307265
-3182.910762
-3185.548268
-3182.575486
-3181.994341
-3182.977817
-3182.575486
-3179.848573
-3177.36753
-3179.535649
-3180.787346
-3179.513297
-3176.674625
-3177.50164
-3181.413195
-3189.795099
-3189.057492
-3183.78248
-3184.095405
-3188.208126
-3192.499661
-3204.547251
-3235.459713
-3258.705528
-3281.884287
-3296.435272
-3277.212772
-3259.621949
-3253.274054
-3250.41303
-3235.482065
-3218.137111
-3206.514204
-3203.496719
-3197.819376
-3181.167326
-3167.018672
-3165.45405
-3168.829163
-3171.645483
-3171.377262
-3170.907875
-3172.561904
-3173.232457
-3171.041986
-3170.460841
-3171.824297
-3172.964236
-3170.796117
-3170.773765
-3174.372396
-3180.541477
-3190.555059
-3258.750231
-3399.119186
-3489.37553
-3477.84203
-3441.788666
-3280.923162
-2949.335033
-2697.27441
-2560.325272
-2342.976909
-1963.913675
-1671.798727
-1364.104612
-1274.854097
-1553.468591
-1942.657166
-2327.844778
-2647.340613
-2892.293381
-3076.583514
-3162.280102
-3193.90782
-3218.76296
-3238.119571
-3251.061231
-3266.93097
-3285.102938
-3300.995028
-3312.1709
-3318.429389
-3325.403133
-3337.786
-3346.257311
-3351.353508
-3358.55077
-3366.418584
-3373.705253
-3379.56141
-3389.351474
-3398.672151
-3407.88107
-3415.614774
-3425.538948
-3433.898501
-3446.840161
-3459.111268
-3472.477612
-3488.593219
-3507.56985
-3525.674763
-3542.03624
-3566.690214
-3591.545354
-3609.449102
-3631.130294
-3654.823143
-3676.034948
-3692.172908
-3704.175795
-3717.810359
-3731.646089
-3740.698545
-3745.101839
-3745.995908
-3747.895807
-3746.219426
-3735.557644
-3720.358458
-3706.455673
-3688.060187
-3662.243922
-3631.264404
-3598.317933
-3561.281092
-3515.415313
-3462.866361
-3421.828559
-3384.903477
-3350.504142
-3320.776322
-3293.395435
-3272.563609
-3254.63751
-3235.616176
-3222.585109
-3213.778521
-3205.933059
-3198.780501
-3193.77371
-3189.437472
-3185.548268
-3181.279085
-3179.781518
-3182.597838
-3187.045835
-3186.375283
-3187.694035
-3192.320847
-3198.802852
-3199.942791
-3200.345123
-3208.771731
-3210.224594
-3213.666763
-3215.589013
-3217.511263
-3223.143902
-3225.133207
-3222.09337
-3221.1993
-3226.273146
-3228.105989
-3224.77558
-3223.568585
-3223.635641
-3226.854292
-3224.194434
-3222.98744
-3220.461693
-3218.271222
-3217.243042
-3212.817396
-3210.626925
-3210.246946
-3207.162405
-3204.189623
-3201.060379
-3204.211975
-3203.876698
-3199.831033
-3200.836861
-3203.273201
-3202.177966
-3196.277105
-3192.812585
-3194.533669
-3195.025408
-3192.119681
-3190.376245
-3190.30919
-3186.911724
-3184.609495
-3184.028349
-3183.469556
-3188.878678
-3186.107062
-3184.184812
-3188.096367
-3189.996265
-3189.057492
-3184.408329
-3185.078881
-3185.928248
-3186.643504
-3183.424852
-3180.921457
-3185.436509
-3186.21882
-3184.564791
-3181.748471
-3185.592972
-3187.761091
-3182.083748
-3175.020596
-3174.394748
-3181.994341
-3190.733873
-3197.797024
-3197.886431
-3194.086634
-3190.219783
-3187.828146
-3213.264431
-3242.008775
-3266.908618
-3274.150583
-3277.525696
-3265.880438
-3252.424687
-3251.351804
-3245.473295
-3236.353783
-3226.943699
-3213.018562
-3208.101178
-3208.034123
-3194.064283
-3176.719329
-3169.723233
-3174.126527
-3182.955466
-3183.111928
-3180.206201
-3179.558001
-3179.066262
-3176.384053
-3177.725157
-3177.211067
-3178.596876
-3175.489983
-3173.210105
-3174.975893
-3183.693073
-3213.197376
-3310.360409
-3461.257036
-3518.365743
-3479.652522
-3395.922887
-3104.903174
-2769.671711
-2557.553656
-2415.910651
-2138.23493
-1782.283399
-1501.567841
-1203.328514
-1310.505129
-1677.811346
-2093.576144
-2485.670446
-2763.547333
-2988.830565
-3135.435657
-3189.437472
-3206.648315
-3225.088504
-3242.634623
-3258.951397
-3279.224429
-3296.010589
-3308.438159
-3322.095075
-3329.962889
-3339.440029
-3348.671299
-3356.740279
-3364.228113
-3368.206724
-3376.74509
-3391.653704
-3397.800433
-3403.790701
-3414.452483
-3423.326126
-3433.049134
-3443.330937
-3455.892617
-3468.051966
-3481.373606
-3493.08592
-3508.97801
-3527.060572
