Detector 2,,,,,,,,Detector 4,,,,,,,,Detector 6,,,,,,,,Detector 8,,,,,,,,Detector 10,,,,,,,,Detector 12,,,,,,,,Detector 14,,,,,,,,Detector 16,,,,,,,
"RED1,2,3,4","IR1,2,3,4 ","RED5,6,7,8","IR5,6,7,8 ","RED9,10,11,12","IR9,10,11,12 ","RED13,14,15,16","IR13,14,15,16 ","RED1,2,3,4","IR1,2,3,4 ","RED5,6,7,8","IR5,6,7,8 ","RED9,10,11,12","IR9,10,11,12 ","RED13,14,15,16","IR13,14,15,16 ","RED1,2,3,4","IR1,2,3,4 ","RED5,6,7,8","IR5,6,7,8 ","RED9,10,11,12","IR9,10,11,12 ","RED13,14,15,16","IR13,14,15,16 ","RED1,2,3,4","IR1,2,3,4 ","RED5,6,7,8","IR5,6,7,8 ","RED9,10,11,12","IR9,10,11,12 ","RED13,14,15,16","IR13,14,15,16 ","RED1,2,3,4","IR1,2,3,4 ","RED5,6,7,8","IR5,6,7,8 ","RED9,10,11,12","IR9,10,11,12 ","RED13,14,15,16","IR13,14,15,16 ","RED1,2,3,4","IR1,2,3,4 ","RED5,6,7,8","IR5,6,7,8 ","RED9,10,11,12","IR9,10,11,12 ","RED13,14,15,16","IR13,14,15,16 ","RED1,2,3,4","IR1,2,3,4 ","RED5,6,7,8","IR5,6,7,8 ","RED9,10,11,12","IR9,10,11,12 ","RED13,14,15,16","IR13,14,15,16 ","RED1,2,3,4","IR1,2,3,4 ","RED5,6,7,8","IR5,6,7,8 ","RED9,10,11,12","IR9,10,11,12 ","RED13,14,15,16","IR13,14,15,16 "
3508,33831,666,171,161,157,157,156,34047,65535,3780,214,178,172,172,162,522,5512,229,196,185,184,188,185,4851,19970,511,332,308,308,308,309,1278,1280,33366,32481,9887,10624,1419,1292,1285,1284,15166,10531,15571,14386,1425,1306,545,2551,34302,34844,32073,33319,30021,18141,1715,5851,32515,35359,32726,33248,31189,46549
3465,33925,663,168,159,156,154,155,33902,65535,3764,213,180,173,169,171,515,5522,228,195,190,184,189,184,4821,20070,509,330,311,307,308,309,1287,1287,33446,32582,9929,10689,1423,1298,1290,1292,15220,10581,15625,14459,1429,1314,776,2575,34427,35021,32245,33617,30075,18190,2187,5918,32619,35511,32817,33399,31259,46706
3475,34028,672,166,161,159,157,159,34094,65535,3814,215,180,173,167,171,518,5535,230,196,186,187,186,185,4838,20169,515,331,310,307,309,311,1290,1291,33517,32696,9974,10763,1427,1300,1296,1299,15273,10636,15676,14536,1437,1319,783,2587,34542,35206,32433,33939,30138,18245,2200,5972,32719,35675,32912,33577,31333,46881
3484,34121,667,167,160,157,155,157,34308,65535,3793,217,183,173,169,171,518,5545,229,196,186,183,189,185,4857,20271,514,331,311,309,307,310,1294,1294,33600,32811,10010,10822,1431,1303,1301,1303,15313,10682,15732,14593,1439,1321,784,2596,34671,35400,32606,34166,30183,18259,2213,6032,32814,35830,33019,33726,31379,46910
3480,33986,669,169,164,160,157,157,33853,65535,3771,214,184,172,165,168,519,5521,233,193,186,183,187,185,4821,19946,509,330,309,308,307,309,1293,1292,33509,32554,9911,10568,1423,1300,1300,1297,15195,10550,15604,14361,1427,1308,789,2589,34541,34975,31931,32809,30071,18141,2196,5905,32871,35646,32764,33135,31158,46403
3472,33780,664,167,161,159,156,159,33282,65535,3699,214,179,173,172,162,521,5486,231,196,186,182,186,185,4775,19694,509,331,310,309,308,312,1289,1286,33377,32317,9809,10432,1421,1296,1287,1290,15095,10440,15509,14236,1421,1300,789,2558,34300,34566,31558,32305,30013,18095,2170,5769,32597,35283,32559,32842,31090,46294
3471,33769,670,171,162,159,159,158,33351,65535,3743,217,179,171,172,169,518,5483,231,194,185,185,185,183,4777,19702,506,333,308,308,309,309,1290,1287,33375,32312,9808,10446,1421,1297,1284,1286,15083,10428,15491,14222,1420,1304,783,2555,34267,34545,31618,32421,30005,18100,2165,5765,32507,35219,32547,32838,31103,46313
3476,33813,663,169,163,158,160,159,33558,65535,3723,214,179,174,167,157,516,5485,232,195,187,176,185,184,4788,19763,509,329,312,307,308,310,1291,1290,33421,32393,9838,10509,1427,1301,1287,1289,15109,10452,15525,14272,1425,1307,782,2557,34322,34658,31796,32704,30034,18115,2174,5797,32514,35262,32597,32939,31157,46413
3479,33825,666,172,159,157,156,158,33713,65535,3764,215,183,161,168,168,517,5491,227,196,189,185,185,184,4797,19782,510,326,309,306,304,309,1293,1292,33435,32403,9855,10510,1423,1298,1288,1293,15115,10453,15525,14260,1421,1305,786,2567,34359,34691,31795,32654,30042,18112,2177,5812,32581,35321,32620,32937,31153,46366
3485,33846,661,168,159,158,156,158,33663,65535,3727,213,179,175,169,167,520,5486,228,191,186,184,187,184,4791,19745,507,328,309,306,307,307,1291,1289,33441,32397,9847,10513,1422,1299,1287,1287,15105,10445,15518,14252,1421,1303,785,2565,34367,34675,31789,32676,30048,18119,2177,5797,32583,35294,32598,32926,31159,46395
3487,33904,670,167,158,157,155,156,33777,65535,3771,214,179,174,167,167,518,5491,229,194,184,185,186,184,4800,19807,509,328,307,307,306,307,1291,1291,33471,32468,9878,10571,1428,1301,1289,1287,15137,10477,15543,14303,1424,1307,786,2567,34412,34777,31946,32955,30085,18150,2179,5831,32600,35362,32641,33032,31207,46507
3495,33997,664,167,163,162,160,156,33965,65535,3751,215,179,171,167,168,519,5503,229,193,186,185,185,184,4817,19893,513,329,311,306,307,307,1294,1293,33531,32563,9917,10639,1428,1303,1290,1293,15182,10520,15585,14366,1429,1311,788,2574,34495,34937,32127,33271,30133,18189,2189,5875,32671,35485,32720,33171,31263,46631
3506,34112,674,167,161,157,158,156,34156,65535,3803,211,177,168,171,168,519,5517,230,194,185,189,185,179,4833,19988,511,330,307,307,307,309,1296,1295,33585,32660,9954,10705,1435,1307,1295,1296,15221,10565,15628,14436,1436,1317,788,2587,34585,35091,32292,33559,30180,18230,2196,5920,32733,35593,32807,33324,31323,46762
3517,34229,669,168,160,158,157,158,34315,65535,3777,216,183,173,170,169,525,5533,229,196,182,185,187,186,4844,20071,509,329,308,306,310,309,1300,1298,33647,32766,9993,10773,1439,1312,1300,1303,15273,10617,15674,14509,1440,1323,791,2598,34696,35269,32462,33867,30236,18274,2209,5971,32812,35739,32902,33486,31383,46915
3524,34335,673,169,160,157,158,156,34523,65535,3828,212,178,174,171,168,522,5550,230,196,185,185,185,181,4865,20175,515,329,309,308,309,309,1304,1303,33715,32883,10038,10844,1443,1315,1307,1307,15328,10676,15730,14590,1450,1329,788,2613,34807,35463,32658,34199,30297,18323,2215,6023,32908,35910,33018,33687,31454,47058
3528,34331,669,168,163,157,157,159,34567,65535,3778,214,179,173,171,166,524,5554,230,198,183,188,184,185,4865,20119,513,329,309,307,305,308,1305,1303,33718,32799,10014,10721,1433,1305,1310,1309,15294,10628,15691,14467,1439,1313,798,2620,34825,35356,32377,33441,30236,18229,2221,6014,33033,35943,32945,33407,31301,46634
3521,34080,672,170,162,159,156,156,33575,65535,3747,213,175,176,170,168,522,5497,227,195,185,188,186,189,4789,19669,507,328,307,306,304,307,1297,1294,33535,32449,9853,10464,1422,1297,1295,1295,15121,10451,15534,14239,1420,1304,793,2583,34518,34754,31667,32356,30134,18149,2179,5796,32771,35443,32606,32857,31149,46342
3516,33993,663,167,161,160,158,155,33538,65535,3710,213,180,173,170,168,521,5486,229,197,188,187,187,188,4779,19630,507,329,307,306,305,307,1287,1286,33485,32365,9815,10438,1419,1295,1283,1283,15091,10414,15494,14200,1416,1300,792,2570,34410,34622,31633,32336,30103,18131,2173,5760,32607,35286,32544,32785,31135,46309
3519,34004,669,169,164,158,159,157,33665,65535,3756,215,181,176,172,168,523,5485,228,195,186,187,185,185,4784,19650,507,327,307,308,307,308,1290,1289,33491,32395,9835,10476,1423,1300,1282,1287,15095,10417,15503,14224,1422,1304,792,2571,34399,34639,31717,32513,30114,18141,2171,5768,32577,35265,32557,32823,31163,46372
3521,34033,665,168,161,157,155,156,33853,65535,3732,218,180,172,170,171,526,5491,227,193,184,187,187,177,4797,19715,505,327,307,308,305,308,1294,1293,33539,32453,9864,10513,1427,1304,1289,1289,15119,10439,15527,14241,1423,1305,790,2577,34452,34714,31815,32632,30127,18146,2182,5804,32604,35333,32599,32881,31180,46367
3521,33999,671,168,161,158,160,155,33839,65535,3763,212,178,173,174,167,522,5490,229,195,187,189,190,185,4793,19673,508,326,305,306,305,307,1293,1290,33528,32432,9851,10497,1425,1300,1287,1286,15102,10418,15507,14221,1424,1303,787,2579,34435,34678,31769,32551,30122,18141,2173,5784,32651,35318,32579,32837,31159,46340
3520,34011,665,167,160,157,159,158,33874,65535,3733,223,179,173,168,167,521,5489,229,196,186,188,185,181,4795,19706,507,328,306,306,305,307,1293,1291,33547,32479,9867,10537,1427,1302,1281,1285,15122,10437,15527,14252,1421,1302,792,2575,34454,34728,31873,32756,30142,18161,2179,5800,32619,35326,32591,32907,31192,46421
3527,34073,672,169,161,158,157,157,34042,65535,3784,215,181,173,170,169,522,5493,229,194,191,187,185,184,4813,19788,507,327,306,305,304,307,1293,1292,33591,32563,9907,10605,1429,1302,1287,1289,15161,10478,15563,14310,1425,1307,788,2585,34519,34869,32052,33073,30190,18199,2184,5839,32661,35422,32658,33026,31243,46535
3528,34133,665,171,160,157,162,159,34239,65535,3763,213,183,173,169,166,521,5506,228,195,186,184,187,182,4826,19878,508,328,307,307,306,308,1295,1297,33650,32663,9947,10672,1433,1307,1289,1294,15205,10520,15604,14378,1430,1312,791,2594,34612,35033,32228,33372,30233,18233,2195,5889,32734,35547,32737,33179,31297,46662
3531,34181,671,169,160,157,159,156,34408,65535,3810,218,182,173,172,167,523,5518,230,196,187,186,190,185,4840,19961,514,329,311,307,310,308,1300,1297,33699,32756,9983,10738,1437,1311,1295,1299,15253,10572,15654,14448,1437,1317,792,2603,34696,35196,32385,33659,30285,18276,2203,5933,32791,35657,32823,33335,31351,46789
3536,34269,670,170,159,162,159,157,34577,65535,3787,214,178,171,169,169,524,5530,230,193,187,185,183,191,4854,20052,506,330,309,307,305,308,1301,1300,33759,32859,10022,10804,1439,1312,1299,1301,15299,10622,15702,14523,1442,1326,797,2609,34811,35377,32567,33976,30335,18327,2214,5984,32875,35804,32924,33516,31418,46942
3543,34347,675,169,160,160,160,157,34767,65535,3837,214,180,176,173,168,523,5543,230,194,184,189,184,183,4868,20141,517,328,309,309,309,307,1304,1305,33825,32943,10056,10838,1440,1310,1307,1307,15332,10657,15742,14552,1445,1319,796,2622,34911,35520,32669,34028,30355,18309,2223,6036,32919,35898,33007,33615,31411,46842
3542,34144,667,167,162,159,155,159,33984,65535,3726,215,181,175,170,167,526,5498,228,195,188,183,190,184,4812,19715,505,334,306,306,305,307,1301,1301,33695,32617,9905,10527,1427,1300,1303,1302,15172,10480,15580,14275,1424,1305,799,2605,34708,34962,31827,32493,30223,18180,2199,5851,32918,35592,32657,32907,31167,46327
3533,33962,671,169,163,158,155,158,33630,65535,3740,212,183,174,169,173,522,5468,228,196,189,183,179,185,4775,19525,504,326,306,304,305,308,1291,1293,33566,32391,9816,10414,1418,1295,1286,1284,15069,10377,15487,14158,1414,1297,797,2576,34501,34625,31559,32142,30163,18140,2169,5737,32638,35251,32482,32659,31103,46191
3531,33933,664,176,163,158,157,157,33685,65535,3709,215,179,173,172,168,523,5459,227,196,184,184,188,184,4775,19515,501,328,306,305,303,307,1287,1287,33557,32373,9805,10407,1421,1297,1280,1281,15055,10355,15466,14131,1415,1297,795,2572,34467,34589,31564,32150,30140,18124,2167,5724,32564,35169,32449,32607,31095,46158
3532,33932,668,169,159,160,157,157,33810,65535,3753,213,179,175,171,168,523,5465,228,193,186,185,184,185,4782,19544,505,327,306,306,304,306,1287,1292,33586,32432,9831,10454,1426,1301,1282,1283,15066,10369,15489,14163,1420,1302,791,2574,34502,34656,31672,32335,30144,18130,2167,5742,32547,35171,32470,32669,31121,46199
3534,33917,663,170,160,158,158,158,33910,65535,3721,213,184,174,170,169,522,5465,228,195,184,186,185,184,4786,19557,499,330,306,305,305,306,1293,1292,33608,32446,9840,10456,1421,1297,1286,1286,15069,10362,15478,14148,1415,1296,794,2581,34541,34687,31663,32299,30144,18119,2174,5748,32578,35180,32473,32647,31102,46155
3531,33897,667,168,160,157,159,159,33875,65535,3754,214,180,175,173,171,524,5459,232,194,185,187,186,184,4784,19535,506,320,305,305,304,310,1289,1287,33611,32455,9836,10461,1421,1295,1280,1282,15057,10357,15468,14145,1413,1296,793,2577,34555,34703,31672,32355,30139,18125,2167,5737,32560,35146,32451,32642,31105,46176
3535,33926,663,168,163,158,158,157,33990,65535,3729,214,179,174,169,172,524,5461,230,202,184,182,187,183,4793,19591,503,327,305,305,304,305,1289,1287,33655,32534,9861,10517,1421,1297,1278,1279,15093,10388,15495,14193,1415,1298,793,2581,34631,34819,31820,32625,30167,18156,2177,5767,32579,35202,32493,32735,31144,46269
3537,33986,669,173,158,161,158,155,34168,65535,3785,215,177,177,171,166,524,5471,229,196,185,183,187,184,4807,19681,504,326,305,307,305,306,1288,1288,33710,32639,9897,10582,1423,1293,1282,1283,15128,10428,15535,14252,1417,1297,795,2589,34733,35003,31999,32942,30211,18188,2183,5813,32630,35306,32563,32877,31189,46383
3542,34044,665,171,159,159,160,157,34345,65535,3759,213,179,173,168,170,526,5483,228,194,185,184,185,183,4821,19764,505,327,305,307,305,307,1286,1287,33767,32734,9931,10643,1422,1294,1282,1284,15179,10471,15576,14319,1418,1302,799,2601,34847,35177,32157,33223,30250,18227,2189,5856,32685,35422,32641,33022,31243,46506
3546,34114,670,169,159,159,156,156,34502,65535,3809,217,177,173,170,169,525,5491,229,195,185,184,186,186,4835,19845,509,329,304,304,304,306,1286,1285,33829,32840,9967,10707,1427,1298,1286,1285,15220,10520,15615,14382,1425,1306,796,2613,34966,35369,32316,33519,30295,18268,2194,5899,32766,35557,32727,33179,31298,46643
3553,34189,668,169,164,157,157,157,34666,65535,3783,214,179,173,171,168,525,5504,229,193,185,183,185,183,4848,19943,509,326,306,305,307,308,1290,1291,33904,32961,10008,10779,1431,1301,1287,1293,15276,10579,15673,14466,1433,1313,799,2624,35110,35583,32509,33844,30352,18318,2210,5952,32865,35717,32833,33375,31370,46807
3558,34246,674,169,164,161,158,159,34832,65535,3827,215,184,176,170,172,522,5514,229,194,185,183,183,185,4866,20003,509,328,309,309,305,310,1294,1294,33967,33013,10035,10772,1430,1300,1300,1299,15294,10592,15697,14451,1431,1309,800,2634,35206,35683,32507,33639,30341,18271,2212,5991,32880,35813,32889,33363,31308,46563
3548,33957,662,169,160,158,158,156,33853,65535,3710,211,183,174,169,169,527,5454,228,193,185,180,184,182,4790,19516,502,325,304,303,304,305,1293,1289,33794,32618,9861,10447,1415,1291,1289,1289,15103,10393,15516,14166,1413,1294,803,2602,34937,35028,31627,32150,30203,18149,2184,5775,32806,35355,32490,32635,31078,46101
3539,33779,667,173,160,160,156,158,33621,65535,3729,215,178,171,170,169,527,5424,226,191,185,184,186,183,4764,19370,502,327,305,304,304,306,1286,1282,33679,32434,9790,10357,1414,1289,1276,1275,15019,10305,15435,14066,1408,1290,798,2578,34758,34755,31431,31891,30154,18109,2161,5684,32551,35056,32341,32433,31016,45975
3535,33720,660,166,159,159,157,158,33650,65535,3693,215,183,177,170,169,525,5415,231,195,185,178,187,183,4762,19341,501,327,306,303,304,305,1280,1279,33667,32403,9775,10347,1414,1293,1272,1271,14996,10277,15412,14032,1406,1292,800,2571,34718,34686,31402,31847,30126,18087,2157,5664,32483,34959,32302,32360,31000,45915
3537,33707,664,169,159,158,156,156,33719,65535,3736,213,181,171,169,169,525,5412,230,192,185,183,183,187,4767,19356,501,324,311,302,303,306,1287,1283,33689,32447,9794,10384,1417,1294,1275,1277,15003,10284,15424,14050,1408,1291,796,2575,34728,34722,31491,31990,30121,18089,2157,5673,32456,34948,32321,32398,31023,45941
3534,33691,657,171,163,159,157,156,33784,65535,3705,212,180,173,174,168,524,5413,226,193,185,185,182,185,4769,19361,500,325,309,303,303,307,1286,1283,33694,32450,9799,10385,1417,1288,1273,1275,14999,10274,15410,14033,1406,1287,802,2576,34746,34721,31482,31964,30121,18081,2160,5680,32486,34948,32315,32371,31006,45895
3536,33657,664,169,160,157,159,157,33765,65535,3737,214,177,173,171,169,523,5407,230,193,184,189,184,187,4766,19348,503,325,302,302,303,305,1281,1279,33700,32457,9800,10393,1413,1290,1271,1273,14995,10267,15400,14034,1406,1289,799,2575,34747,34730,31499,32041,30115,18085,2159,5669,32461,34918,32292,32373,31005,45923
3535,33686,658,168,160,157,155,156,33877,65535,3712,223,179,174,174,168,524,5407,227,193,193,184,182,184,4773,19402,498,325,305,304,301,307,1281,1283,33743,32544,9830,10457,1419,1294,1274,1275,15031,10307,15437,14086,1412,1295,798,2578,34801,34839,31653,32319,30143,18119,2164,5700,32481,34972,32339,32471,31049,46020
3537,33732,664,169,161,157,156,156,34035,65535,3763,215,183,173,170,168,525,5419,229,194,186,183,185,180,4789,19483,503,326,307,303,303,306,1287,1286,33788,32641,9871,10524,1421,1297,1276,1277,15081,10353,15473,14152,1415,1299,797,2584,34885,35005,31824,32628,30187,18152,2169,5740,32537,35075,32413,32605,31103,46138
3539,33783,662,171,162,157,156,155,34209,65535,3740,213,179,175,173,168,528,5429,230,193,185,183,183,188,4801,19567,502,327,310,301,304,307,1287,1288,33837,32733,9907,10594,1426,1298,1284,1283,15133,10403,15523,14221,1422,1302,799,2593,34983,35171,32001,32931,30228,18191,2181,5783,32611,35202,32497,32759,31155,46263
3543,33846,668,171,159,159,157,159,34362,65535,3788,216,180,172,171,171,525,5435,228,193,185,183,184,182,4814,19650,507,328,303,303,304,309,1292,1291,33890,32833,9945,10657,1430,1301,1287,1289,15181,10454,15571,14292,1427,1308,801,2602,35069,35326,32162,33223,30271,18233,2188,5826,32673,35329,32585,32922,31210,46398
3549,33919,663,172,159,158,159,157,34511,65535,3765,213,181,175,170,172,525,5448,229,194,182,183,184,185,4830,19742,506,328,305,309,304,306,1297,1293,33958,32942,9985,10731,1434,1306,1291,1293,15235,10510,15624,14373,1432,1315,801,2610,35180,35523,32351,33561,30337,18287,2196,5875,32771,35499,32687,33116,31283,46571
3552,34015,670,167,161,158,158,156,34687,65535,3816,215,179,175,172,168,527,5459,229,194,187,187,188,186,4849,19849,508,327,309,305,305,307,1301,1299,34024,33050,10031,10793,1437,1309,1298,1300,15283,10565,15681,14445,1440,1314,800,2620,35300,35721,32538,33833,30377,18307,2205,5937,32860,35639,32811,33288,31331,46625
3547,33843,661,167,160,156,155,159,34239,65535,3725,214,179,172,170,167,527,5429,227,194,184,188,185,183,4811,19549,501,321,307,299,306,305,1296,1295,33927,32788,9925,10527,1422,1296,1297,1296,15160,10430,15560,14205,1416,1298,805,2612,35162,35276,31846,32424,30263,18180,2195,5817,32906,35447,32552,32702,31090,46060
3532,33551,663,168,160,158,158,157,33516,65535,3713,213,181,174,171,166,527,5381,228,194,188,183,187,183,4756,19235,500,325,313,303,306,308,1287,1282,33731,32443,9791,10343,1411,1287,1279,1279,15005,10274,15426,14025,1405,1287,798,2570,34842,34751,31356,31742,30186,18117,2156,5653,32569,34969,32285,32301,30984,45837
3526,33444,655,168,160,161,157,157,33465,65535,3672,214,181,171,170,171,525,5366,226,193,184,184,184,185,4747,19184,498,324,303,299,303,303,1278,1278,33666,32341,9759,10301,1411,1287,1270,1271,14967,10227,15386,13965,1400,1286,795,2555,34735,34594,31297,31635,30149,18085,2151,5616,32419,34796,32223,32201,30951,45745
3515,33354,658,167,161,156,157,156,33481,65535,3709,212,179,172,171,169,523,5356,229,194,184,183,191,186,4746,19165,500,323,304,301,302,305,1279,1278,33645,32326,9758,10314,1414,1292,1266,1267,14948,10211,15374,13963,1402,1288,794,2546,34675,34531,31311,31695,30134,18085,2143,5601,32374,34733,32201,32183,30950,45751
3511,33331,653,167,163,161,156,155,33585,65535,3682,217,179,173,171,167,523,5357,227,193,185,185,187,181,4756,19199,495,324,305,308,302,306,1287,1282,33663,32358,9779,10342,1414,1290,1271,1272,14969,10223,15381,13970,1402,1287,793,2547,34683,34559,31381,31787,30139,18083,2149,5619,32381,34737,32228,32211,30951,45728
3511,33298,658,167,160,158,157,156,33587,65535,3715,213,179,173,170,166,523,5351,228,194,180,190,183,183,4750,19178,499,325,304,302,302,307,1283,1281,33653,32349,9781,10348,1413,1288,1271,1269,14963,10217,15377,13967,1401,1286,796,2546,34663,34542,31391,31799,30134,18084,2150,5609,32388,34726,32225,32201,30940,45724
3506,33283,653,168,162,158,158,157,33635,65535,3688,214,178,174,171,167,524,5350,226,193,184,183,184,180,4755,19213,497,325,300,303,302,305,1280,1280,33667,32391,9792,10387,1410,1286,1269,1268,14987,10237,15392,13997,1399,1284,791,2545,34670,34586,31494,32023,30154,18103,2150,5626,32381,34755,32248,32267,30979,45807
3507,33324,658,169,164,161,159,156,33787,65535,3737,213,180,176,172,168,524,5357,231,195,186,185,182,183,4771,19293,501,324,305,305,303,307,1279,1278,33701,32482,9829,10456,1414,1286,1270,1270,15029,10278,15431,14059,1403,1286,791,2550,34717,34716,31677,32339,30191,18142,2157,5665,32470,34879,32313,32399,31022,45926
3512,33380,654,169,159,158,157,156,33959,65535,3718,214,179,173,171,170,523,5367,226,195,189,188,187,187,4786,19383,499,327,309,306,307,307,1280,1279,33750,32574,9884,10549,1442,1316,1269,1271,15083,10332,15491,14158,1438,1324,792,2557,34795,34874,31863,32668,30237,18183,2166,5712,32556,35023,32405,32561,31091,46070
3519,33457,661,169,162,157,158,156,34135,65535,3767,213,179,171,170,166,525,5379,228,195,179,181,188,183,4801,19479,504,327,308,305,308,314,1310,1309,33826,32695,9938,10620,1443,1315,1307,1309,15169,10417,15560,14237,1446,1328,793,2567,34886,35038,32043,32980,30281,18223,2176,5763,32627,35147,32499,32727,31148,46208
3521,33521,657,171,163,161,156,156,34297,65535,3746,213,179,171,170,170,525,5390,227,195,186,185,187,185,4818,19563,504,329,307,305,307,307,1311,1308,33884,32790,9975,10687,1452,1327,1311,1314,15220,10471,15609,14311,1457,1342,794,2576,34977,35200,32214,33279,30336,18272,2183,5805,32698,35287,32603,32907,31215,46359
3521,33592,665,167,163,159,157,157,34458,65535,3796,214,183,177,168,168,525,5400,228,195,185,193,183,184,4834,19665,507,327,308,310,305,306,1319,1317,33943,32916,10028,10775,1460,1331,1325,1328,15281,10540,15670,14406,1468,1348,795,2588,35081,35396,32415,33635,30408,18327,2193,5856,32798,35466,32720,33119,31295,46552
3525,33669,656,169,160,160,159,156,34637,65535,3774,215,182,172,170,173,526,5412,230,194,186,184,186,185,4853,19775,508,329,307,307,307,309,1326,1326,34016,33022,10061,10828,1461,1332,1331,1335,15335,10593,15735,14473,1470,1351,798,2594,35185,35575,32583,33853,30439,18339,2205,5916,32864,35587,32835,33288,31337,46563
3524,33493,663,168,159,159,159,157,34031,65535,3743,213,181,170,173,168,527,5380,227,195,184,189,184,187,4805,19415,503,327,307,306,315,306,1323,1321,33891,32706,9943,10533,1445,1319,1330,1328,15193,10441,15597,14212,1448,1323,798,2582,34997,35049,31807,32329,30315,18215,2184,5771,32877,35337,32542,32628,31083,46002
3509,33243,648,170,159,158,156,157,33435,65535,3665,213,180,177,170,169,525,5335,230,194,189,183,186,184,4758,19151,503,327,316,304,306,305,1309,1305,33702,32381,9810,10357,1433,1309,1306,1307,15052,10295,15470,14047,1432,1317,794,2548,34691,34559,31379,31729,30244,18159,2153,5622,32543,34891,32299,32287,31007,45835
3505,33163,654,168,161,158,160,158,33421,65535,3701,217,178,174,173,172,522,5323,226,195,183,185,188,187,4752,19113,501,326,307,304,301,307,1300,1303,33643,32303,9783,10327,1432,1307,1298,1297,15015,10258,15437,14002,1429,1313,791,2534,34588,34429,31343,31659,30215,18135,2148,5595,32427,34757,32260,32200,30989,45762
3500,33113,648,172,161,157,155,155,33461,65535,3665,213,180,178,169,169,523,5316,227,194,188,184,188,186,4754,19116,499,326,306,304,305,309,1301,1299,33630,32297,9787,10347,1434,1311,1294,1296,15011,10247,15441,14013,1431,1315,791,2531,34542,34395,31393,31780,30211,18139,2145,5587,32395,34734,32261,32221,31007,45802
3501,33126,654,170,163,160,160,159,33591,65535,3713,216,179,177,172,172,523,5319,226,194,185,185,183,183,4762,19157,499,329,305,303,309,310,1303,1303,33645,32325,9811,10373,1435,1311,1298,1301,15029,10263,15444,14021,1433,1318,790,2534,34552,34428,31451,31856,30215,18138,2151,5610,32410,34748,32287,32252,30995,45783
3503,33092,648,169,160,158,157,159,33586,65535,3675,215,182,174,172,167,524,5317,227,193,184,185,184,184,4761,19135,498,326,306,304,304,307,1306,1302,33645,32323,9812,10381,1436,1311,1299,1301,15035,10263,15446,14021,1434,1316,791,2534,34538,34407,31466,31888,30219,18142,2152,5606,32421,34731,32296,32259,31006,45796
3498,33101,654,171,160,158,156,158,33657,65535,3721,213,179,173,167,167,526,5315,226,192,188,185,183,186,4771,19195,499,327,305,304,301,306,1303,1302,33658,32374,9831,10428,1437,1314,1300,1301,15061,10289,15472,14061,1435,1319,789,2535,34554,34474,31591,32139,30241,18171,2149,5626,32455,34811,32335,32349,31037,45886
3501,33137,651,167,159,162,155,155,33807,65535,3698,213,180,172,170,168,523,5321,231,198,185,184,188,188,4789,19286,501,327,306,305,308,307,1306,1303,33703,32463,9866,10498,1440,1315,1303,1303,15115,10337,15519,14128,1438,1321,791,2539,34608,34610,31791,32471,30282,18211,2162,5666,32548,34939,32426,32501,31095,46019
3501,33191,657,169,161,158,160,155,33989,65535,3752,214,180,173,174,166,525,5329,227,197,186,187,186,185,4802,19380,501,328,306,304,307,309,1307,1306,33751,32567,9917,10574,1443,1318,1305,1307,15165,10391,15570,14212,1446,1327,791,2547,34687,34778,31983,32812,30333,18251,2169,5716,32626,35078,32525,32686,31160,46162
3503,33251,653,169,163,158,157,156,34171,65535,3728,217,179,174,173,170,524,5342,227,194,185,185,184,180,4819,19475,502,327,307,304,300,306,1313,1310,33810,32663,9952,10644,1446,1319,1309,1313,15225,10448,15623,14287,1449,1329,793,2557,34789,34955,32174,33137,30383,18297,2181,5765,32703,35218,32636,32870,31226,46319
3506,33306,657,165,160,159,156,158,34337,65535,3779,214,178,172,170,170,524,5354,231,195,185,185,185,188,4835,19573,505,327,307,303,306,307,1311,1311,33865,32763,9994,10711,1452,1324,1313,1315,15277,10507,15677,14364,1453,1336,793,2565,34885,35131,32344,33440,30430,18343,2187,5811,32778,35356,32751,33056,31295,46466
3508,33370,653,169,160,158,155,159,34490,65535,3756,210,181,174,169,167,526,5366,225,195,185,184,188,185,4851,19679,505,330,306,306,307,308,1316,1314,33917,32867,10035,10784,1454,1326,1318,1320,15331,10562,15729,14444,1461,1341,795,2575,34983,35310,32527,33767,30491,18396,2197,5862,32857,35511,32867,33270,31367,46640
3511,33460,662,167,160,160,156,157,34661,65535,3805,219,179,177,171,169,528,5381,227,196,185,185,187,188,4870,19800,509,328,309,311,306,310,1319,1317,33985,32991,10088,10872,1465,1333,1326,1327,15394,10640,15790,14540,1470,1350,794,2582,35123,35545,32743,34145,30555,18454,2207,5920,32974,35711,33023,33535,31465,46849
3516,33500,655,171,159,160,156,155,34823,65535,3772,213,179,171,173,167,529,5407,230,195,185,185,185,189,4882,19829,508,332,307,306,303,309,1322,1322,34018,32977,10098,10823,1462,1327,1334,1335,15395,10626,15809,14501,1465,1339,795,2593,35182,35563,32658,33746,30527,18393,2219,5953,32989,35772,33021,33407,31353,46509
3505,33204,655,170,159,159,159,159,33727,65535,3721,214,180,173,175,169,530,5349,228,195,189,185,186,183,4806,19342,503,328,303,305,306,307,1320,1314,33822,32581,9915,10497,1444,1317,1319,1322,15210,10434,15631,14226,1447,1325,795,2558,34853,34865,31770,32270,30419,18299,2177,5717,32831,35268,32622,32710,31166,46132
3498,33079,647,167,164,154,160,159,33559,65535,3673,216,179,177,167,167,527,5329,227,194,184,184,185,184,4791,19257,501,325,308,305,304,307,1309,1307,33721,32425,9849,10427,1439,1315,1308,1310,15152,10372,15571,14161,1439,1320,792,2538,34699,34643,31639,32115,30387,18277,2161,5645,32605,35031,32522,32582,31163,46103
3493,33045,653,167,163,159,157,155,33643,65535,3715,214,184,173,170,166,527,5319,227,196,185,183,183,185,4793,19278,502,328,305,306,305,306,1307,1305,33718,32436,9851,10443,1441,1317,1305,1305,15153,10370,15573,14167,1441,1324,790,2534,34671,34640,31699,32233,30396,18290,2159,5653,32563,35001,32536,32604,31182,46149
3495,33078,650,168,161,158,156,157,33787,65535,3692,214,181,175,170,170,526,5326,228,194,185,185,185,184,4811,19345,499,319,306,306,309,307,1310,1308,33761,32497,9883,10495,1443,1319,1307,1308,15185,10395,15616,14210,1442,1322,791,2539,34715,34728,31847,32445,30415,18305,2168,5689,32595,35061,32606,32706,31207,46179
3491,33055,654,166,160,157,158,159,33829,65535,3725,213,180,173,171,172,527,5324,227,194,186,185,185,188,4815,19341,503,328,311,307,306,310,1309,1308,33749,32481,9885,10483,1438,1313,1307,1307,15181,10386,15613,14198,1435,1319,791,2545,34704,34707,31827,32386,30417,18307,2168,5682,32634,35085,32618,32696,31190,46162
3493,33060,649,169,159,159,157,160,33818,65535,3690,214,179,172,174,166,527,5321,227,191,189,187,184,183,4819,19366,503,328,307,306,304,307,1306,1300,33759,32496,9880,10497,1431,1307,1299,1299,15181,10382,15610,14210,1432,1313,792,2543,34719,34749,31894,32539,30430,18324,2171,5688,32579,35059,32636,32756,31221,46239
3497,33115,655,165,160,157,156,157,33954,65535,3740,213,179,173,166,168,528,5327,229,193,186,184,185,183,4829,19440,504,327,308,305,303,307,1298,1298,33791,32571,9915,10559,1432,1304,1297,1297,15215,10418,15650,14270,1433,1315,791,2552,34783,34883,32065,32844,30472,18361,2175,5725,32675,35192,32709,32893,31269,46351
3501,33183,649,167,163,160,156,157,34129,65535,3721,218,179,173,172,169,527,5334,226,193,185,185,185,184,4845,19533,503,326,307,302,303,306,1296,1295,33844,32671,9951,10629,1430,1303,1297,1299,15268,10470,15697,14345,1435,1319,795,2557,34873,35055,32253,33177,30515,18401,2186,5771,32777,35344,32810,33073,31333,46487
3505,33259,657,172,160,158,159,162,34305,65535,3770,218,179,173,174,173,526,5348,229,194,184,185,186,183,4862,19633,507,329,306,305,305,310,1295,1295,33887,32768,9990,10694,1434,1306,1299,1300,15316,10519,15743,14413,1443,1320,793,2571,34973,35234,32431,33478,30557,18437,2193,5823,32862,35485,32919,33252,31389,46629
3510,33324,654,168,164,159,155,156,34458,65535,3746,215,179,175,169,172,533,5360,227,195,185,183,189,183,4879,19726,505,328,309,305,306,309,1298,1299,33951,32864,10026,10763,1438,1310,1305,1309,15367,10573,15799,14496,1447,1329,796,2579,35063,35392,32593,33751,30602,18481,2206,5868,32918,35601,33023,33425,31456,46770
3514,33402,662,168,160,158,157,161,34616,65535,3795,215,179,173,167,171,528,5369,227,194,187,185,184,185,4894,19815,508,328,308,303,306,307,1300,1300,34013,32970,10078,10818,1420,1304,1311,1315,15425,10635,15863,14561,1432,1326,796,2587,35177,35582,32773,34068,30660,18535,2213,5917,33024,35772,33145,33639,31528,46937
3520,33483,654,174,157,163,160,157,34789,65535,3775,217,178,175,168,169,528,5379,227,193,185,185,185,184,4911,19921,507,322,308,305,305,307,1303,1305,34092,33099,10120,10910,1445,1310,1319,1319,15481,10696,15927,14670,1459,1335,797,2596,35298,35794,32973,34379,30709,18566,2227,5977,33133,35950,33281,33847,31597,47037
3520,33415,660,166,159,158,157,161,34553,65535,3769,214,181,172,171,167,531,5369,227,196,187,184,186,183,4892,19722,508,327,307,304,303,308,1305,1300,34042,32913,10055,10713,1430,1301,1317,1319,15407,10605,15857,14500,1443,1321,802,2601,35226,35502,32461,33265,30627,18467,2219,5907,33156,35806,33107,33405,31390,46565
3509,33197,650,167,160,157,156,156,33799,65535,3691,215,179,173,173,169,529,5327,226,195,186,185,184,185,4835,19452,500,325,305,303,303,305,1290,1286,33891,32640,9921,10524,1415,1289,1303,1300,15291,10481,15746,14350,1431,1308,800,2567,34956,35029,31961,32552,30571,18428,2187,5739,32860,35389,32879,33071,31349,46461
3508,33165,655,171,163,157,157,152,33860,65535,3729,214,183,173,171,169,528,5320,231,195,184,188,187,185,4834,19462,505,325,306,303,302,305,1282,1281,33860,32620,9909,10530,1415,1289,1290,1290,15298,10484,15748,14356,1427,1307,795,2559,34919,35020,32023,32698,30574,18437,2182,5739,32769,35353,32887,33101,31353,46496
3504,33206,650,168,162,159,156,157,34007,65535,3708,214,179,174,170,169,527,5318,228,196,185,185,188,184,4845,19537,502,327,311,307,304,306,1280,1281,33913,32719,9949,10612,1418,1293,1290,1294,15355,10537,15802,14446,1433,1313,799,2567,34977,35167,32237,33083,30612,18472,2191,5779,32896,35537,32986,33294,31413,46617
3512,33253,657,169,161,159,157,153,34213,65535,3758,213,171,173,172,165,526,5331,226,192,185,184,186,183,4862,19603,505,327,305,304,303,307,1284,1282,33941,32751,9970,10626,1423,1292,1299,1296,15390,10561,15826,14465,1434,1314,795,2577,35035,35246,32279,33095,30621,18473,2195,5818,32859,35529,33042,33339,31390,46592
3515,33241,650,167,160,159,157,157,34131,65535,3714,218,183,174,170,172,528,5325,226,190,185,186,185,184,4853,19542,502,326,305,306,305,306,1287,1284,33939,32732,9961,10611,1418,1292,1295,1297,15406,10566,15833,14461,1432,1313,798,2579,35025,35214,32231,33041,30617,18479,2195,5796,32854,35505,33050,33343,31395,46613
3515,33269,656,165,158,158,162,157,34151,65535,3757,217,180,173,169,166,528,5319,227,197,183,184,184,183,4858,19603,506,326,305,305,303,305,1283,1281,33953,32783,9971,10649,1423,1296,1295,1296,15441,10600,15848,14501,1437,1319,797,2577,35071,35314,32357,33317,30645,18511,2198,5823,32951,35653,33124,33478,31438,46724
3520,33336,652,167,162,159,156,161,34330,65535,3734,213,180,177,171,166,531,5334,227,195,185,185,185,185,4870,19697,505,326,308,303,303,306,1290,1288,34021,32891,10019,10731,1436,1305,1304,1305,15508,10667,15910,14586,1449,1327,798,2581,35171,35505,32581,33685,30693,18548,2213,5873,33073,35829,33243,33687,31488,46854
3520,33400,659,166,159,161,158,156,34491,65535,3782,214,181,174,171,166,529,5347,227,192,188,183,185,185,4897,19809,508,327,307,306,305,307,1297,1300,34077,32999,10063,10800,1447,1317,1311,1315,15569,10729,15967,14665,1463,1339,800,2592,35281,35693,32769,34001,30732,18583,2218,5922,33152,35963,33358,33881,31547,47001
3527,33482,655,171,162,162,157,157,34669,65535,3760,214,179,171,171,173,531,5361,229,198,185,184,186,184,4907,19883,509,328,309,306,306,310,1311,1309,34154,33109,10105,10869,1450,1322,1323,1326,15632,10789,16023,14745,1467,1346,801,2605,35367,35866,32941,34315,30789,18635,2227,5970,33247,36136,33481,34092,31610,47160
3532,33575,663,181,161,161,156,156,34839,65535,3811,219,183,176,169,168,532,5372,229,195,188,187,185,185,4927,20019,511,332,308,309,314,306,1315,1314,34210,33234,10161,10959,1454,1323,1329,1333,15686,10861,16089,14841,1475,1351,801,2615,35482,36073,33147,34680,30839,18677,2238,6036,33378,36343,33629,34332,31697,47343
3541,33654,656,166,159,161,157,155,34982,65535,3777,215,180,171,171,170,533,5388,228,199,187,184,185,186,4940,20031,510,329,308,307,305,310,1315,1314,34238,33205,10158,10897,1445,1311,1334,1334,15684,10842,16093,14795,1463,1336,805,2631,35526,36060,33041,34255,30805,18622,2250,6058,33383,36366,33608,34192,31594,47035
3537,33439,660,170,163,158,154,158,33999,65535,3735,213,179,174,172,173,532,5339,229,194,184,187,189,186,4862,19589,506,326,307,304,307,311,1301,1295,34063,32857,9991,10609,1426,1297,1315,1314,15522,10664,15934,14558,1439,1321,806,2602,35235,35439,32267,32967,30706,18538,2211,5843,33236,35933,33267,33586,31488,46762
3534,33364,655,173,160,157,157,155,33866,65535,3694,214,181,177,171,169,531,5323,230,195,185,185,184,182,4841,19513,503,329,309,304,305,305,1287,1286,33971,32729,9937,10556,1419,1292,1299,1303,15470,10609,15890,14505,1434,1313,804,2587,35102,35257,32173,32873,30685,18528,2199,5792,33022,35743,33190,33500,31493,46766
3537,33383,660,167,162,161,158,158,33974,65535,3739,213,179,177,168,170,530,5321,227,194,185,186,184,188,4848,19558,505,327,307,306,308,307,1283,1283,33975,32760,9956,10604,1421,1296,1295,1297,15482,10618,15911,14550,1439,1318,801,2585,35092,35319,32310,33149,30705,18551,2201,5808,33041,35813,33231,33602,31532,46877
3542,33449,654,168,159,158,157,158,34177,65535,3722,214,180,173,174,171,529,5325,226,193,185,185,184,184,4867,19669,505,327,307,307,305,307,1289,1291,34030,32852,9997,10667,1426,1298,1301,1303,15520,10658,15955,14606,1443,1322,797,2589,35172,35467,32499,33425,30727,18566,2213,5869,33138,35923,33326,33756,31551,46915
3543,33460,661,164,163,153,158,159,34263,65535,3758,214,184,173,170,172,532,5337,226,194,185,184,184,183,4864,19662,506,327,308,302,306,311,1289,1290,34031,32853,10004,10669,1426,1298,1303,1302,15528,10662,15959,14603,1443,1321,803,2599,35187,35472,32481,33380,30730,18569,2210,5858,33058,35863,33357,33763,31542,46921
3545,33476,655,168,159,161,157,155,34261,65535,3725,216,182,172,173,167,533,5336,226,196,185,185,184,184,4863,19685,506,322,307,308,305,308,1289,1290,34047,32882,10011,10695,1427,1300,1301,1304,15544,10677,15972,14635,1442,1319,805,2597,35207,35523,32558,33559,30747,18589,2213,5869,33115,35945,33395,33855,31588,47014
3550,33538,660,167,159,157,157,155,34407,65535,3775,218,181,174,169,169,533,5341,232,197,186,183,184,186,4877,19780,511,331,308,300,305,309,1293,1289,34089,32980,10055,10776,1431,1307,1304,1306,15586,10727,16021,14708,1448,1325,800,2606,35276,35693,32765,33928,30794,18633,2220,5915,33233,36119,33497,34051,31651,47161
3563,33680,660,169,159,159,157,158,34609,65535,3753,213,180,173,171,168,533,5361,227,193,185,187,189,184,4902,19899,509,329,307,308,307,308,1293,1295,34162,33091,10111,10861,1435,1306,1311,1311,15641,10780,16078,14790,1455,1330,803,2617,35394,35882,32989,34300,30843,18671,2236,5977,33359,36305,33611,34255,31714,47327
3580,33866,667,171,164,158,156,158,34791,65535,3804,218,180,174,171,171,534,5384,227,194,184,185,187,186,4922,20020,513,333,309,307,306,309,1298,1297,34231,33213,10160,10945,1443,1311,1314,1317,15692,10840,16131,14869,1460,1340,805,2633,35506,36089,33183,34654,30893,18721,2243,6033,33452,36480,33726,34460,31789,47510
3602,34043,665,168,161,158,162,156,34971,65535,3781,213,179,172,170,168,536,5411,228,200,186,185,185,186,4952,20140,511,331,311,307,307,313,1303,1300,34316,33346,10218,11037,1450,1315,1321,1323,15748,10909,16192,14963,1471,1345,807,2646,35634,36313,33402,35025,30953,18769,2258,6101,33585,36694,33857,34697,31885,47707
3635,34328,675,168,162,159,158,160,35155,65535,3828,215,180,171,169,172,534,5448,229,192,183,185,183,184,4968,20218,517,333,310,306,306,310,1309,1308,34379,33397,10234,11022,1448,1316,1327,1332,15751,10909,16213,14953,1470,1342,812,2668,35718,36389,33410,34821,30933,18722,2267,6147,33575,36741,33858,34635,31818,47473
3649,34206,666,167,160,159,163,157,34089,65535,3705,214,181,176,170,170,542,5402,227,193,183,183,184,182,4898,19703,506,327,307,306,305,306,1305,1302,34219,33024,10068,10697,1437,1308,1323,1321,15580,10715,16041,14671,1451,1329,817,2643,35446,35717,32503,33239,30801,18605,2235,5916,33489,36323,33465,33870,31657,47083
3671,34244,674,169,163,158,157,156,33815,65535,3723,213,183,173,170,169,540,5387,228,194,186,183,183,186,4872,19551,506,325,307,304,303,306,1298,1297,34100,32827,9993,10597,1431,1304,1308,1308,15492,10621,15963,14571,1443,1322,811,2622,35260,35431,32283,32949,30755,18572,2209,5828,33223,36030,33303,33663,31642,47031
3693,34327,670,169,159,151,156,159,33897,65535,3693,213,179,175,174,167,540,5390,227,192,185,184,182,184,4879,19557,503,326,305,305,301,305,1297,1295,34091,32812,9984,10605,1434,1307,1302,1304,15471,10601,15942,14551,1445,1321,810,2624,35254,35425,32329,33039,30738,18568,2209,5828,33186,36009,33299,33657,31658,47078
3696,34343,675,170,163,157,157,157,34054,65535,3741,214,179,172,171,169,541,5391,229,193,185,183,184,183,4892,19627,506,327,305,302,304,306,1298,1298,34130,32882,10025,10661,1438,1308,1307,1309,15489,10620,15969,14595,1447,1325,810,2630,35307,35534,32491,33306,30748,18580,2215,5865,33285,36118,33359,33764,31691,47147
3704,34362,669,172,160,152,157,156,34195,65535,3715,214,179,173,173,171,543,5403,226,193,184,184,183,182,4897,19640,504,326,305,304,303,307,1301,1299,34151,32901,10027,10673,1438,1310,1309,1310,15493,10617,15967,14595,1452,1327,817,2641,35348,35574,32508,33311,30752,18579,2222,5875,33225,36063,33380,33777,31697,47144
3700,34325,677,167,163,159,159,158,34182,65535,3748,214,179,171,174,167,545,5406,227,193,182,184,184,182,4899,19637,505,327,307,303,307,307,1301,1298,34156,32916,10035,10688,1438,1307,1309,1310,15485,10616,15965,14601,1450,1327,814,2640,35373,35601,32549,33411,30749,18583,2219,5877,33245,36091,33391,33818,31719,47215
3700,34319,670,169,160,158,156,156,34302,65535,3726,215,179,175,171,168,543,5410,227,194,185,184,188,184,4915,19735,500,328,306,306,305,309,1303,1303,34190,32993,10063,10757,1445,1312,1308,1311,15520,10651,16000,14660,1452,1330,815,2643,35421,35731,32712,33735,30781,18615,2228,5915,33332,36195,33469,33968,31771,47327
3689,34271,673,165,162,158,156,165,34506,65535,3781,215,178,173,170,165,543,5408,226,192,184,184,184,183,4929,19843,510,329,308,307,306,310,1307,1306,34233,33096,10109,10834,1449,1317,1315,1316,15562,10697,16036,14732,1456,1336,814,2649,35511,35906,32920,34103,30815,18653,2233,5962,33392,36297,33584,34175,31818,47459
3678,34231,667,169,163,160,160,156,34694,65535,3757,216,180,171,167,172,543,5409,228,193,186,183,183,185,4936,19952,511,329,307,306,307,310,1309,1308,34287,33197,10157,10916,1453,1321,1321,1321,15621,10760,16089,14817,1464,1341,813,2651,35606,36099,33125,34484,30863,18690,2249,6015,33432,36409,33725,34423,31874,47621
3665,34196,673,174,163,158,160,157,34884,65535,3809,217,180,174,174,166,543,5403,228,194,183,186,184,185,4956,20052,513,332,309,307,307,309,1312,1311,34342,33309,10209,11011,1455,1323,1325,1324,15684,10823,16154,14912,1469,1344,810,2657,35718,36307,33341,34867,30908,18735,2254,6072,33535,36599,33859,34653,31949,47789
3656,34129,666,170,160,162,156,156,34975,65535,3767,213,182,173,169,168,545,5403,228,194,186,185,188,186,4967,20034,510,328,308,308,308,313,1314,1311,34363,33271,10211,10943,1450,1319,1328,1328,15663,10796,16146,14845,1458,1331,813,2664,35741,36252,33206,34383,30866,18658,2266,6099,33549,36643,33803,34446,31836,47451
3634,33765,667,170,159,161,161,156,33867,65535,3721,214,179,177,174,168,542,5338,227,194,184,183,186,185,4887,19557,508,330,310,311,310,309,1308,1309,34163,32882,10041,10648,1439,1310,1312,1313,15481,10598,15971,14582,1444,1320,813,2620,35373,35542,32388,33061,30743,18553,2223,5870,33354,36127,33430,33806,31705,47153
3616,33563,654,168,161,161,158,155,33687,65535,3676,213,180,173,169,172,544,5305,227,195,187,184,184,184,4866,19453,503,329,307,308,305,307,1300,1298,34051,32720,9978,10586,1431,1307,1303,1303,15407,10530,15907,14517,1437,1318,806,2599,35234,35337,32272,32923,30685,18516,2212,5809,33068,35841,33326,33684,31684,47111
3605,33462,659,169,158,161,161,152,33766,65535,3717,213,178,173,174,167,537,5291,227,194,185,183,187,183,4871,19474,505,327,306,306,305,307,1299,1297,34036,32716,9986,10611,1434,1305,1302,1301,15403,10521,15900,14527,1441,1319,803,2591,35212,35333,32337,33068,30669,18515,2207,5809,33043,35826,33335,33716,31691,47151
3598,33437,650,168,160,157,159,155,33929,65535,3697,215,181,172,167,168,538,5289,226,194,184,185,184,186,4881,19528,502,327,308,305,305,310,1297,1298,34071,32777,10023,10674,1437,1307,1301,1302,15430,10545,15938,14577,1441,1321,802,2590,35282,35459,32495,33302,30674,18514,2217,5850,33129,35915,33391,33812,31693,47171
3589,33361,658,167,160,158,155,158,33970,65535,3732,214,180,173,170,169,537,5278,223,194,187,184,184,183,4881,19509,505,326,307,305,307,309,1298,1295,34047,32743,10043,10685,1429,1299,1302,1301,15437,10547,15938,14573,1439,1314,804,2595,35410,35586,32499,33273,30658,18503,2215,5846,33060,35860,33391,33803,31686,47155
3587,33316,652,169,156,159,157,158,33945,65535,3699,214,179,167,171,168,537,5263,226,193,186,186,185,184,4880,19518,504,330,308,309,309,308,1291,1290,34011,32734,10053,10713,1423,1293,1298,1296,15448,10556,15947,14589,1434,1313,803,2592,35607,35759,32558,33406,30639,18504,2219,5854,33104,35914,33400,33849,31705,47225
3587,33321,658,168,159,159,157,156,34071,65535,3746,215,180,172,167,168,536,5257,226,197,188,184,183,184,4891,19594,508,327,307,305,305,307,1287,1284,34017,32790,10093,10783,1421,1291,1294,1295,15480,10589,15975,14651,1437,1314,799,2591,35738,35970,32724,33709,30667,18530,2223,5897,33199,36038,33455,33979,31742,47341
3582,33329,652,167,161,159,157,157,34251,65535,3728,215,181,171,170,169,534,5257,225,195,183,188,186,185,4903,19685,503,327,307,306,306,309,1285,1283,34051,32884,10139,10863,1423,1292,1300,1299,15531,10641,16025,14725,1440,1319,801,2597,35941,36217,32915,34042,30691,18556,2235,5944,33289,36180,33538,34151,31791,47471
3582,33376,658,167,161,166,157,155,34429,65535,3776,214,179,171,168,168,533,5258,228,195,186,184,185,187,4924,19791,509,328,306,306,306,307,1284,1284,34090,32984,10192,10955,1427,1298,1301,1303,15588,10703,16079,14815,1449,1327,802,2603,36066,36447,33127,34407,30722,18591,2242,6001,33371,36327,33645,34358,31853,47625
3580,33414,652,171,161,159,157,157,34618,65535,3755,214,182,172,171,167,536,5257,226,193,183,183,187,184,4936,19894,510,330,307,307,306,307,1285,1286,34148,33093,10251,11035,1428,1294,1312,1312,15649,10764,16139,14897,1456,1329,802,2614,36271,36721,33327,34703,30749,18605,2258,6060,33447,36463,33750,34517,31886,47682
3575,33265,657,165,164,159,164,156,34318,65535,3746,214,183,173,173,167,536,5228,226,192,185,186,185,184,4915,19652,506,327,307,305,307,306,1286,1283,34079,32891,10185,10839,1415,1282,1314,1313,15558,10657,16042,14703,1446,1317,803,2609,36311,36493,32773,33528,30631,18479,2241,5966,33432,36275,33529,34012,31697,47232
3562,33009,647,170,161,158,160,157,33598,65535,3665,213,181,177,167,172,532,5174,226,194,183,183,184,184,4854,19339,498,326,305,305,305,305,1273,1270,33918,32594,10067,10667,1404,1275,1299,1298,15419,10517,15927,14542,1433,1313,803,2569,36095,36036,32312,32844,30534,18408,2211,5811,33110,35837,33263,33630,31646,47094
3562,32966,653,169,160,157,161,159,33597,65535,3701,213,178,174,170,173,530,5163,224,195,186,183,183,183,4849,19317,500,326,303,303,303,306,1266,1264,33866,32549,10048,10661,1402,1275,1298,1294,15398,10492,15906,14520,1432,1313,797,2562,36009,35943,32314,32873,30494,18388,2204,5796,33001,35758,33216,33583,31630,47075
3567,33015,646,168,161,161,156,155,33737,65535,3680,215,174,169,174,168,530,5173,225,191,185,184,184,187,4864,19369,502,326,308,304,302,306,1269,1266,33895,32617,10077,10718,1407,1280,1295,1297,15416,10516,15930,14574,1443,1317,798,2563,36001,35986,32462,33133,30498,18395,2211,5823,33093,35881,33258,33691,31668,47153
3569,33041,652,168,163,161,155,157,33903,65535,3727,213,177,177,171,168,531,5178,221,193,186,183,185,184,4872,19404,503,326,304,305,303,305,1271,1270,33904,32633,10101,10745,1407,1275,1301,1301,15433,10528,15943,14582,1439,1317,797,2571,35995,36011,32512,33178,30491,18387,2216,5849,33055,35850,33284,33715,31647,47132
3567,33006,646,168,160,159,155,157,33876,65535,3691,216,179,173,174,169,535,5177,225,192,185,185,183,184,4862,19367,499,325,305,305,302,305,1267,1270,33903,32628,10095,10743,1399,1271,1302,1298,15426,10523,15932,14573,1437,1313,797,2570,36014,36005,32497,33181,30480,18382,2216,5838,33034,35835,33269,33706,31645,47147
3568,33020,654,170,155,161,157,157,33936,65535,3733,218,180,175,171,174,533,5176,226,194,185,184,184,182,4876,19427,502,326,305,304,307,306,1263,1264,33914,32675,10110,10782,1402,1271,1295,1295,15450,10548,15954,14617,1435,1314,796,2570,35982,36026,32604,33410,30492,18406,2218,5867,33131,35954,33303,33797,31673,47231
3570,33061,647,167,159,161,153,158,34091,65535,3711,217,183,171,172,168,532,5182,225,192,186,183,184,185,4890,19515,502,326,305,305,305,307,1263,1261,33953,32759,10136,10840,1399,1269,1295,1295,15492,10587,15994,14679,1431,1310,798,2578,35959,36098,32771,33719,30526,18437,2225,5908,33219,36081,33374,33935,31707,47342
3571,33126,655,169,160,153,160,155,34242,65535,3762,218,180,174,176,165,532,5193,223,194,187,187,187,186,4907,19613,507,328,308,307,307,309,1264,1261,34001,32849,10164,10898,1407,1278,1295,1295,15518,10625,16021,14735,1433,1309,797,2590,35925,36158,32935,34058,30558,18470,2235,5960,33298,36214,33454,34098,31755,47477
3577,33210,649,169,161,159,149,157,34386,65535,3741,215,181,173,172,168,533,5213,224,194,187,186,187,185,4926,19740,507,326,309,310,307,310,1269,1273,34077,32963,10197,10967,1421,1290,1294,1294,15553,10670,16059,14805,1439,1317,799,2602,35883,36221,33121,34423,30594,18513,2247,6019,33352,36340,33551,34281,31823,47635
3581,33275,657,168,160,159,156,158,34543,65535,3782,214,178,172,170,180,537,5250,228,194,185,183,187,183,4939,19767,510,327,306,306,305,310,1283,1280,34111,32957,10198,10923,1418,1282,1301,1297,15526,10646,16057,14759,1427,1302,799,2616,35729,36064,33044,34095,30563,18459,2253,6043,33306,36338,33567,34202,31734,47367
3570,32997,650,168,160,160,159,156,33594,65535,3666,213,183,172,171,167,536,5195,229,192,185,185,185,187,4863,19339,503,325,304,303,303,305,1271,1270,33907,32556,10022,10624,1402,1274,1281,1279,15312,10439,15871,14490,1407,1283,802,2584,35242,35287,32222,32791,30445,18354,2219,5839,33138,35878,33191,33569,31593,47057
3567,32902,651,167,160,160,157,155,33415,65535,3692,212,184,175,167,167,534,5175,225,193,185,183,184,184,4843,19239,498,325,310,303,303,305,1265,1264,33796,32406,9961,10561,1401,1272,1266,1268,15228,10367,15811,14427,1401,1279,800,2564,34997,35025,32105,32683,30409,18339,2206,5777,32863,35605,33083,33445,31579,47018
3565,32915,645,167,159,158,156,158,33521,65535,3669,214,180,177,171,167,536,5183,225,198,188,183,185,185,4849,19278,497,324,306,302,302,304,1262,1259,33796,32431,9967,10603,1388,1260,1264,1263,15246,10382,15815,14454,1396,1274,797,2564,35001,35113,32232,32949,30426,18361,2207,5793,32868,35659,33107,33517,31606,47106
3567,32951,649,167,161,161,158,155,33732,65535,3722,214,181,175,171,169,534,5185,226,197,183,182,185,185,4865,19371,499,325,303,303,301,305,1253,1251,33842,32513,10005,10655,1390,1262,1259,1262,15277,10414,15832,14485,1396,1276,795,2573,35155,35300,32386,33161,30440,18370,2214,5843,32946,35742,33167,33609,31606,47117
3565,32923,644,167,159,157,156,155,33795,65535,3683,214,179,173,171,168,535,5189,224,192,187,183,183,187,4867,19349,499,326,303,302,301,307,1253,1250,33855,32511,9996,10642,1378,1248,1257,1258,15272,10406,15823,14467,1387,1265,796,2578,35171,35301,32354,33111,30440,18365,2216,5833,32877,35691,33179,33603,31595,47103
3567,32924,651,168,163,158,155,159,33827,65535,3727,214,181,172,165,172,535,5190,226,191,184,183,184,187,4870,19379,499,323,303,301,301,303,1237,1235,33864,32545,9999,10667,1367,1237,1247,1248,15275,10414,15816,14478,1383,1262,798,2579,35238,35409,32439,33289,30449,18384,2214,5843,32920,35769,33182,33655,31615,47175
3571,32979,648,167,161,158,160,156,33972,65535,3703,214,180,177,178,167,535,5197,228,192,185,184,184,182,4885,19455,499,319,301,299,298,302,1228,1227,33915,32635,10029,10727,1367,1236,1244,1244,15310,10447,15849,14531,1383,1261,796,2582,35370,35597,32620,33595,30484,18419,2222,5883,33023,35901,33252,33783,31658,47279
3571,33049,653,169,164,158,160,156,34158,65535,3757,214,193,173,171,168,535,5203,226,194,184,181,186,183,4901,19541,499,322,301,301,301,302,1226,1226,33963,32739,10064,10791,1365,1233,1245,1246,15341,10489,15890,14603,1387,1261,796,2593,35468,35778,32801,33925,30533,18459,2228,5925,33113,36039,33343,33949,31707,47417
3579,33139,649,172,159,161,157,156,34339,65535,3734,213,181,173,168,170,535,5215,226,194,184,184,182,181,4915,19642,499,323,301,302,299,302,1227,1226,34035,32864,10112,10877,1367,1235,1247,1246,15392,10546,15953,14690,1389,1267,798,2602,35581,35982,33020,34289,30588,18510,2242,5980,33233,36228,33450,34150,31769,47563
3590,33259,656,167,162,158,157,159,34537,65535,3784,214,186,175,169,169,537,5231,228,193,183,186,183,187,4937,19733,503,321,303,298,298,301,1227,1226,34089,32927,10137,10898,1363,1232,1248,1251,15410,10567,15978,14699,1384,1259,800,2611,35669,36101,33083,34265,30587,18486,2248,6030,33254,36285,33515,34198,31754,47439
3584,33075,647,167,160,158,157,160,33849,65535,3683,214,179,173,171,163,539,5199,227,192,183,183,181,182,4879,19345,496,320,299,298,297,300,1222,1221,33956,32621,10007,10631,1346,1218,1240,1239,15254,10410,15836,14463,1365,1240,803,2596,35478,35611,32356,32981,30474,18387,2225,5865,33205,36011,33191,33604,31591,47089
3594,33061,652,171,159,161,157,156,33573,65535,3700,215,175,175,170,168,537,5185,226,192,185,181,182,186,4849,19213,497,319,299,297,296,299,1207,1206,33843,32447,9939,10549,1341,1217,1223,1224,15156,10323,15754,14377,1357,1240,800,2576,35350,35401,32202,32793,30432,18364,2204,5789,32959,35762,33052,33439,31576,47045
3602,33088,647,168,163,159,160,156,33647,65535,3674,213,178,175,169,170,537,5192,223,194,184,181,183,186,4861,19255,492,319,298,295,297,302,1205,1203,33835,32467,9942,10589,1342,1213,1221,1219,15159,10323,15750,14395,1359,1237,798,2576,35369,35469,32292,33005,30441,18383,2207,5801,32911,35759,33059,33477,31602,47119
3616,33213,658,169,161,160,159,157,33831,65535,3728,214,179,172,172,168,539,5196,224,193,183,184,188,182,4879,19354,495,319,298,298,298,299,1204,1205,33879,32555,9982,10650,1344,1213,1220,1224,15183,10355,15779,14439,1358,1238,802,2585,35436,35609,32465,33263,30458,18399,2215,5847,32988,35859,33125,33587,31611,47146
3614,33180,650,169,162,157,157,160,33920,65535,3695,215,181,177,170,165,540,5210,224,191,184,187,187,183,4880,19350,493,318,301,297,298,298,1202,1203,33878,32550,9984,10647,1339,1212,1217,1223,15179,10353,15768,14418,1356,1235,802,2591,35472,35632,32446,33199,30460,18397,2216,5842,32925,35813,33128,33568,31599,47128
3620,33211,655,168,161,160,157,159,33925,65535,3731,212,184,175,169,172,542,5218,228,192,185,181,183,182,4882,19367,497,318,299,297,297,302,1202,1201,33876,32563,9991,10663,1338,1211,1218,1219,15174,10354,15769,14428,1355,1235,799,2593,35482,35672,32489,33321,30471,18420,2214,5846,32920,35843,33127,33597,31622,47184
3631,33326,652,172,160,158,157,160,34045,65535,3705,212,180,169,170,164,542,5234,225,191,183,183,183,183,4893,19434,497,319,298,299,298,299,1203,1202,33923,32657,10023,10726,1343,1212,1219,1221,15207,10389,15806,14483,1360,1239,801,2599,35543,35805,32649,33594,30510,18447,2221,5882,33020,35966,33176,33705,31665,47291
3657,33538,661,177,160,161,156,156,34240,65535,3758,214,180,174,167,167,545,5261,221,191,183,182,183,182,4910,19523,497,319,300,297,300,301,1204,1203,33997,32777,10066,10795,1342,1211,1223,1225,15240,10426,15837,14542,1361,1240,801,2613,35652,35997,32820,33903,30557,18490,2228,5930,33119,36114,33243,33839,31711,47417
3697,33862,657,169,158,161,160,157,34451,65535,3739,217,180,174,168,170,545,5293,223,194,185,181,183,181,4931,19633,499,321,302,300,299,301,1205,1203,34062,32896,10107,10866,1347,1215,1223,1225,15283,10476,15885,14609,1368,1249,804,2630,35818,36238,33009,34235,30602,18534,2240,5985,33208,36256,33333,34010,31770,47558
3727,34047,669,167,164,157,158,159,34630,65535,3783,214,183,171,171,166,551,5325,228,193,182,183,183,185,4950,19715,503,320,302,297,301,300,1208,1210,34103,32924,10124,10849,1351,1219,1228,1231,15283,10479,15890,14583,1369,1248,807,2650,35884,36304,32969,33959,30581,18484,2247,6013,33195,36300,33369,33969,31718,47343
3714,33794,659,169,164,161,157,156,33843,65535,3677,214,180,171,171,171,550,5282,225,195,183,183,183,180,4886,19321,494,319,299,301,297,299,1210,1211,33959,32607,9979,10590,1346,1215,1228,1229,15116,10310,15740,14357,1362,1245,812,2627,35642,35759,32247,32805,30469,18402,2217,5829,33072,35877,33029,33411,31575,47039
3710,33687,665,169,163,157,157,158,33713,65535,3704,213,179,171,168,173,552,5270,225,191,182,182,183,185,4867,19225,494,319,302,299,297,300,1210,1207,33879,32489,9931,10537,1339,1211,1223,1221,15051,10255,15689,14303,1353,1237,808,2612,35517,35599,32141,32702,30448,18392,2200,5771,32832,35657,32940,33295,31560,46989
3709,33697,660,168,163,157,155,157,33811,65535,3677,213,179,170,169,169,548,5265,228,195,183,188,185,181,4880,19258,495,319,301,299,300,300,1204,1205,33893,32531,9938,10575,1342,1216,1218,1217,15051,10255,15681,14313,1359,1240,810,2614,35515,35650,32235,32924,30468,18413,2205,5783,32821,35703,32942,33346,31588,47071
3721,33763,665,171,159,159,158,157,34005,65535,3731,217,176,172,166,167,552,5275,221,191,184,183,181,182,4899,19359,497,323,299,298,298,301,1211,1212,33952,32627,9975,10629,1352,1224,1222,1226,15078,10290,15711,14349,1367,1247,807,2620,35581,35780,32369,33108,30483,18424,2210,5830,32843,35733,32997,33426,31576,47063
3717,33751,658,168,162,159,156,155,34065,65535,3694,217,180,171,169,169,551,5281,225,191,184,182,184,182,4901,19343,494,320,301,299,298,300,1217,1215,33966,32624,9971,10619,1356,1231,1232,1231,15076,10288,15703,14338,1370,1250,811,2626,35599,35789,32330,33045,30491,18427,2210,5815,32793,35691,32993,33404,31560,47036
3723,33787,665,168,160,157,159,156,34107,65535,3737,214,178,173,174,169,551,5284,224,192,183,183,185,186,4903,19351,498,319,299,300,298,301,1220,1219,33984,32679,9983,10650,1357,1229,1235,1233,15090,10299,15721,14371,1368,1249,811,2633,35612,35838,32415,33213,30511,18453,2209,5823,32780,35713,33007,33451,31586,47089
3722,33807,660,169,161,162,159,156,34222,65535,3710,214,178,171,169,171,554,5295,223,195,184,183,181,183,4914,19433,495,322,302,298,299,301,1218,1217,34039,32771,10011,10705,1360,1234,1233,1231,15119,10336,15743,14413,1374,1257,811,2637,35678,35977,32562,33495,30555,18487,2220,5857,32878,35852,33051,33558,31609,47186
3730,33873,666,169,161,159,159,157,34377,65535,3759,214,179,172,168,168,555,5304,225,191,184,183,182,182,4926,19523,499,321,300,301,298,303,1229,1229,34097,32887,10064,10789,1373,1245,1240,1242,15168,10387,15795,14492,1390,1269,810,2644,35765,36156,32753,33833,30612,18533,2223,5905,32952,35961,33135,33726,31654,47306
3727,33919,663,170,161,156,155,159,34571,65535,3738,214,178,172,174,165,555,5317,228,195,183,187,180,183,4948,19622,499,326,300,302,299,301,1239,1239,34180,33015,10102,10860,1384,1253,1253,1254,15231,10450,15853,14578,1399,1276,814,2651,35840,36325,32929,34145,30650,18567,2235,5952,33013,36081,33239,33901,31703,47395
3721,33828,668,168,160,158,157,161,34515,65535,3753,214,182,170,170,175,553,5317,224,192,186,183,184,184,4945,19514,499,319,301,298,298,300,1245,1243,34146,32887,10066,10713,1370,1240,1258,1256,15170,10383,15801,14438,1380,1261,815,2657,35789,36126,32540,33254,30586,18486,2231,5915,33071,36038,33130,33590,31554,47006
3702,33514,656,167,159,160,155,157,33731,65535,3662,216,183,170,171,168,553,5265,225,191,182,184,185,184,4886,19217,493,319,299,297,298,301,1233,1228,33951,32551,9932,10537,1365,1239,1238,1237,15022,10242,15669,14279,1371,1255,815,2622,35511,35638,32055,32600,30523,18439,2203,5764,32787,35595,32875,33229,31483,46850
3699,33481,658,169,160,159,157,155,33735,65535,3703,213,179,172,170,172,551,5258,225,191,183,183,182,184,4872,19194,495,319,299,298,298,300,1232,1234,33910,32516,9942,10559,1369,1241,1239,1240,15017,10232,15689,14304,1375,1255,809,2606,35419,35579,32078,32667,30529,18449,2196,5753,32612,35443,32852,33221,31475,46837
3751,33829,660,169,160,158,158,156,33838,65535,3678,212,179,172,171,169,551,5251,225,196,183,189,184,182,4875,19249,493,325,300,300,298,300,1233,1231,33980,32640,9991,10662,1369,1240,1235,1235,15051,10273,15760,14391,1370,1251,805,2605,35439,35687,32300,33071,30571,18495,2200,5778,32766,35682,32941,33391,31507,46935
3771,34023,669,166,161,158,155,157,34038,65535,3727,214,178,173,171,168,550,5258,225,191,185,184,183,183,4895,19333,500,323,302,300,302,303,1233,1233,34020,32693,10030,10695,1378,1251,1232,1235,15071,10289,15774,14406,1375,1255,807,2618,35435,35739,32363,33135,30586,18498,2210,5819,32775,35723,32975,33422,31486,46899
3798,34124,663,167,161,161,160,155,34011,65535,3686,213,183,174,163,173,554,5271,224,197,183,185,183,183,4895,19284,497,324,305,305,304,306,1245,1248,34021,32670,10021,10681,1410,1286,1243,1248,15053,10287,15778,14413,1398,1285,809,2621,35375,35647,32279,33014,30585,18499,2207,5797,32759,35657,32973,33397,31467,46866
3780,34023,669,169,161,158,158,158,34028,65535,3723,217,180,174,170,168,555,5268,227,193,185,186,189,186,4894,19276,502,330,306,306,305,308,1281,1284,34047,32718,10065,10747,1455,1328,1271,1276,15103,10339,15838,14501,1435,1319,807,2626,35326,35646,32334,33131,30609,18524,2205,5806,32681,35606,32992,33450,31475,46895
3781,34050,662,167,160,158,158,156,34146,65535,3697,214,183,175,177,169,556,5275,228,194,186,182,187,189,4905,19307,501,329,310,309,307,311,1326,1332,34113,32843,10162,10881,1492,1365,1307,1313,15211,10427,15967,14649,1468,1345,809,2635,35323,35715,32495,33378,30666,18570,2214,5845,32757,35702,33053,33569,31512,46959
3779,34099,671,168,163,162,158,156,34303,65535,3746,214,181,177,175,168,557,5289,229,195,186,185,185,186,4913,19360,507,330,311,310,312,311,1358,1358,34191,32950,10242,10984,1509,1379,1334,1333,15303,10504,16083,14783,1484,1360,811,2649,35359,35837,32662,33659,30740,18625,2223,5892,32894,35883,33145,33725,31539,47046
3791,34241,667,167,163,159,158,157,34465,65535,3724,217,179,174,164,170,557,5298,228,192,185,191,188,186,4923,19437,507,331,312,313,309,310,1371,1372,34261,33033,10290,11043,1512,1378,1345,1347,15357,10552,16169,14865,1485,1360,815,2662,35406,35945,32762,33771,30781,18645,2233,5938,32969,35971,33212,33838,31542,47028
3793,34145,672,169,159,159,158,156,34189,65535,3727,214,182,170,172,167,557,5295,229,196,186,186,188,187,4891,19275,507,330,308,308,309,310,1367,1367,34143,32794,10221,10893,1497,1361,1340,1339,15282,10468,16118,14767,1467,1338,815,2653,35321,35690,32270,32921,30722,18578,2221,5861,33011,35891,33065,33510,31425,46771
3800,34111,665,167,162,161,157,156,33838,65535,3670,213,178,171,173,167,558,5273,229,199,183,187,185,187,4867,19174,502,326,307,307,305,308,1348,1343,34052,32649,10191,10840,1473,1343,1317,1315,15188,10376,16149,14757,1450,1326,813,2625,35511,35791,32108,32775,30696,18572,2205,5774,32953,35670,32925,33327,31404,46765
3811,34206,673,169,159,158,161,161,33901,65535,3725,214,175,171,174,172,554,5269,228,195,188,187,189,187,4893,19368,506,329,308,307,308,309,1335,1338,34058,32756,10218,10930,1489,1360,1310,1312,15315,10503,16150,14807,1469,1347,807,2613,35562,35983,32390,33399,30740,18625,2207,5824,32971,35870,33039,33630,31425,46906
3794,34157,667,169,160,158,156,157,34144,65535,3707,214,180,175,168,167,555,5279,228,201,188,185,187,189,4917,19480,500,333,311,308,307,310,1353,1355,34144,32879,10226,10957,1511,1381,1333,1337,15411,10589,16162,14837,1497,1373,807,2621,35575,36076,32559,33603,30761,18637,2219,5874,32897,35875,33162,33781,31427,46911
3789,34103,671,169,162,159,157,159,34215,65535,3740,215,176,171,169,173,557,5280,231,194,188,185,188,185,4920,19460,507,331,311,310,309,315,1375,1374,34173,32900,10226,10935,1521,1392,1356,1359,15451,10621,16143,14818,1508,1387,810,2637,35519,36030,32480,33517,30759,18644,2217,5860,32793,35837,33198,33802,31382,46884
3776,34083,665,171,160,156,158,156,34200,65535,3705,215,181,172,171,169,558,5288,229,197,192,187,187,189,4923,19504,510,332,313,310,310,315,1383,1384,34198,32956,10218,10945,1519,1386,1370,1371,15511,10671,16157,14855,1514,1387,815,2644,35524,36083,32551,33687,30776,18663,2221,5883,32770,35875,33254,33904,31401,46953
3773,34094,672,178,160,159,155,158,34324,65535,3754,215,177,177,169,170,558,5303,228,195,187,188,186,185,4938,19587,510,332,311,310,309,313,1376,1372,34242,33037,10225,10979,1503,1371,1371,1370,15561,10719,16174,14899,1506,1381,813,2650,35583,36230,32703,33990,30811,18703,2224,5926,32871,36042,33345,34057,31434,47078
3772,34143,665,168,160,159,159,156,34456,65535,3734,215,183,175,171,171,558,5318,227,195,186,184,186,186,4953,19682,509,332,310,309,310,311,1363,1359,34291,33136,10247,11042,1501,1369,1363,1359,15606,10772,16214,14963,1506,1382,813,2659,35663,36394,32907,34339,30849,18745,2235,5971,33013,36255,33454,34252,31506,47237
3775,34206,673,171,160,157,157,159,34635,65535,3784,216,179,171,170,173,561,5328,228,195,187,186,186,183,4965,19778,514,334,313,310,308,311,1361,1359,34348,33236,10279,11087,1499,1363,1365,1365,15649,10815,16265,15029,1506,1380,814,2670,35736,36558,33067,34539,30882,18757,2243,6027,33085,36386,33553,34392,31534,47243
3763,34011,663,169,165,158,160,159,34169,65535,3686,215,179,175,168,167,560,5307,222,194,186,186,185,191,4933,19465,505,332,309,307,307,310,1355,1350,34217,32906,10156,10795,1482,1349,1358,1358,15513,10663,16120,14750,1485,1357,819,2663,35567,36049,32277,33001,30771,18638,2230,5901,33107,36158,33247,33719,31307,46709
3745,33716,663,167,161,158,159,159,33492,65535,3677,214,179,174,175,172,558,5255,224,198,191,187,187,187,4879,19173,507,329,308,306,305,309,1339,1334,33977,32538,10030,10618,1458,1328,1338,1337,15359,10519,15985,14577,1464,1340,812,2622,35255,35570,31895,32490,30713,18593,2197,5760,32765,35721,33003,33383,31243,46533
3733,33638,659,168,159,159,154,156,33460,65535,3637,213,180,176,170,168,555,5241,230,194,186,185,189,183,4878,19143,497,327,304,305,307,307,1319,1318,33912,32461,9991,10585,1450,1323,1321,1321,15320,10476,15942,14530,1455,1333,811,2613,35185,35478,31872,32467,30694,18584,2193,5731,32681,35655,32953,33303,31222,46485
3727,33609,663,164,161,159,159,155,33468,65535,3675,214,180,172,173,167,556,5237,226,200,181,186,186,186,4897,19181,500,325,306,305,306,307,1315,1312,33903,32477,10001,10613,1451,1322,1315,1317,15315,10478,15940,14543,1459,1334,813,2612,35157,35493,31941,32603,30692,18590,2192,5738,32679,35681,32954,33331,31231,46505
3721,33553,655,167,160,158,157,157,33529,65535,3642,213,184,174,173,167,554,5242,227,194,186,184,185,185,4904,19197,499,329,308,306,306,309,1318,1317,33895,32467,10005,10610,1451,1323,1317,1318,15315,10477,15936,14524,1458,1334,810,2614,35116,35454,31933,32573,30688,18583,2195,5745,32702,35675,32958,33317,31206,46443
3715,33495,661,161,160,157,158,157,33503,65535,3676,213,179,172,170,167,556,5231,225,196,184,182,186,185,4893,19165,501,328,306,305,304,306,1317,1312,33861,32437,9997,10606,1444,1316,1316,1319,15299,10469,15915,14511,1453,1331,808,2610,35094,35451,31926,32609,30682,18589,2191,5738,32618,35587,32942,33311,31190,46442
3705,33454,655,168,159,158,157,158,33544,65535,3646,213,183,173,170,169,554,5222,226,193,185,187,185,189,4898,19185,498,325,306,306,305,308,1308,1306,33873,32488,10010,10649,1443,1315,1315,1314,15325,10492,15935,14549,1452,1333,808,2609,35126,35526,32041,32835,30699,18610,2198,5753,32635,35643,32983,33393,31209,46495
3697,33446,659,167,160,159,157,156,33680,65535,3693,213,179,174,170,168,551,5222,227,200,187,187,189,187,4909,19257,501,326,305,304,303,306,1309,1309,33898,32559,10047,10711,1446,1319,1316,1315,15367,10539,15971,14607,1458,1337,806,2612,35173,35648,32203,33121,30731,18639,2197,5789,32700,35761,33042,33508,31240,46586
3699,33485,655,169,160,158,159,159,33832,65535,3673,215,183,174,169,168,553,5231,228,193,185,187,185,186,4919,19338,502,326,306,307,303,307,1307,1308,33925,32635,10081,10774,1446,1315,1323,1319,15429,10592,16020,14679,1458,1337,809,2620,35242,35803,32371,33401,30755,18661,2209,5829,32753,35859,33127,33659,31280,46670
3694,33419,658,167,159,158,158,156,33801,65535,3693,213,179,173,171,169,554,5221,227,195,185,180,185,185,4912,19245,500,325,304,303,301,303,1307,1306,33865,32485,10043,10637,1431,1304,1318,1318,15372,10535,15955,14528,1443,1319,808,2624,35241,35678,32025,32625,30696,18585,2205,5806,32857,35867,33021,33364,31158,46319
3678,33157,648,168,161,158,156,158,33135,65535,3601,217,182,174,169,168,551,5171,224,195,184,185,186,184,4854,18932,492,324,303,301,306,305,1294,1290,33637,32119,9917,10463,1419,1293,1301,1299,15194,10382,15822,14352,1429,1307,809,2587,35009,35237,31623,32047,30619,18528,2179,5666,32595,35434,32762,32982,31053,46107
3669,33064,655,168,160,157,160,155,33059,65535,3627,215,182,171,173,166,549,5156,225,201,187,181,183,182,4841,18880,494,325,306,301,303,304,1284,1282,33553,32023,9884,10427,1415,1287,1289,1291,15144,10341,15772,14295,1426,1303,805,2579,34912,35132,31558,31981,30581,18507,2171,5632,32435,35263,32699,32890,31007,46011
3661,33017,647,167,161,159,157,159,33085,65535,3599,215,180,175,170,166,547,5151,223,192,184,183,184,184,4845,18876,491,322,303,299,301,303,1281,1279,33542,32037,9886,10454,1411,1285,1283,1288,15133,10343,15773,14308,1419,1300,804,2578,34896,35143,31605,32109,30574,18510,2169,5628,32405,35264,32703,32919,31008,46031
3661,33008,651,168,159,159,159,155,33174,65535,3639,213,180,171,174,169,546,5152,229,196,187,183,187,184,4851,18907,495,322,301,302,301,303,1277,1274,33541,32055,9901,10466,1413,1289,1281,1284,15120,10351,15771,14302,1416,1297,804,2577,34901,35172,31638,32138,30562,18502,2173,5645,32439,35313,32711,32916,30994,45995
3657,32977,647,167,159,158,159,156,33154,65535,3599,213,178,176,169,170,545,5149,228,196,185,177,182,183,4852,18894,491,324,302,301,300,301,1276,1273,33525,32037,9894,10471,1404,1281,1280,1279,15097,10341,15759,14299,1408,1291,803,2576,34893,35164,31637,32164,30557,18503,2173,5638,32432,35292,32685,32895,30985,45998
3657,32983,651,168,160,160,155,156,33182,65535,3642,214,178,174,169,167,543,5149,225,193,185,183,185,183,4853,18916,494,321,302,300,299,302,1271,1269,33534,32087,9914,10512,1404,1276,1271,1272,15108,10360,15777,14333,1409,1288,802,2576,34919,35247,31741,32367,30563,18525,2173,5655,32432,35334,32706,32956,30999,46059
3658,33036,648,170,163,161,156,156,33292,65535,3621,213,179,170,174,170,546,5155,226,194,185,184,176,183,4860,18957,491,325,301,299,299,300,1271,1268,33562,32159,9940,10566,1397,1269,1271,1271,15150,10398,15810,14387,1405,1283,801,2580,34967,35373,31884,32631,30585,18545,2179,5684,32475,35429,32763,33075,31030,46142
3659,33090,653,171,159,157,157,159,33423,65535,3669,216,181,172,169,172,546,5165,225,193,187,183,184,185,4879,19050,493,322,301,298,298,301,1259,1260,33610,32253,9969,10619,1397,1268,1266,1266,15197,10444,15841,14434,1405,1286,804,2585,35063,35541,32054,32938,30602,18577,2185,5723,32563,35574,32831,33203,31079,46269
3665,33143,648,168,160,161,157,155,33563,65535,3649,214,179,171,171,168,546,5175,223,193,187,187,185,187,4894,19105,491,320,299,300,301,301,1264,1263,33647,32311,9989,10632,1401,1274,1269,1272,15226,10476,15867,14449,1409,1288,803,2596,35107,35619,32107,32875,30604,18555,2191,5754,32587,35652,32893,33247,31090,46193
3662,33000,653,169,159,159,156,157,33093,65535,3623,212,178,173,169,168,550,5151,225,192,184,183,183,181,4851,18807,485,319,299,297,299,298,1264,1263,33493,31988,9879,10416,1381,1254,1269,1266,15033,10316,15739,14236,1387,1265,803,2580,34938,35219,31545,31927,30522,18478,2174,5640,32610,35407,32612,32749,30947,45887
3671,32991,646,166,161,157,157,157,32831,65535,3566,213,179,172,171,167,550,5148,224,193,182,187,182,182,4825,18697,484,319,298,296,296,300,1244,1243,33377,31826,9809,10340,1371,1245,1247,1243,14917,10238,15656,14139,1374,1255,802,2570,34808,35035,31403,31785,30473,18454,2164,5584,32410,35208,32487,32597,30925,45825
3681,33022,652,169,161,162,157,157,32880,65535,3607,213,179,175,169,170,548,5155,223,192,183,182,183,186,4823,18680,486,317,298,298,296,297,1236,1237,33383,31854,9808,10355,1368,1245,1238,1240,14885,10225,15642,14142,1373,1255,806,2576,34733,34990,31441,31875,30455,18454,2160,5585,32372,35179,32479,32597,30946,45865
3695,33143,648,171,162,158,156,155,33012,65535,3587,214,180,172,173,171,550,5165,225,191,183,181,182,180,4832,18726,484,318,299,298,295,299,1236,1235,33448,31959,9825,10384,1372,1249,1242,1241,14878,10243,15656,14161,1378,1261,806,2586,34753,35055,31538,32015,30450,18453,2167,5613,32367,35222,32526,32665,30949,45862
3707,33211,655,166,163,157,157,157,33076,65535,3624,212,179,171,170,167,549,5173,224,189,179,183,183,181,4821,18707,490,319,301,298,299,301,1241,1239,33455,31969,9826,10386,1377,1250,1245,1246,14853,10239,15653,14163,1383,1266,808,2595,34722,35037,31513,31987,30433,18447,2161,5604,32351,35164,32526,32660,30937,45843
3705,33180,648,169,159,158,158,156,33108,65535,3594,213,179,175,170,171,547,5171,222,196,180,179,182,181,4804,18695,490,323,303,301,299,301,1245,1243,33487,32026,9834,10421,1379,1254,1247,1249,14865,10258,15677,14201,1384,1271,811,2594,34713,35073,31583,32143,30425,18458,2163,5611,32295,35145,32559,32725,30937,45881
3704,33192,655,169,163,158,158,157,33204,65535,3641,214,183,174,171,169,551,5179,222,190,183,181,181,182,4801,18759,493,324,306,302,307,305,1246,1247,33534,32132,9863,10468,1387,1265,1252,1251,14901,10301,15709,14252,1395,1276,809,2599,34747,35184,31715,32406,30438,18477,2165,5639,32298,35199,32631,32855,30955,45954
3704,33233,652,167,163,158,160,156,33331,65535,3620,217,178,173,168,171,550,5187,227,185,180,183,182,183,4796,18829,495,328,306,307,301,308,1256,1259,33624,32271,9908,10543,1405,1283,1263,1269,14966,10363,15763,14339,1413,1299,811,2614,34808,35327,31876,32686,30461,18505,2174,5665,32334,35277,32724,33011,30992,46053
3701,33255,656,169,161,159,157,155,33501,65535,3674,212,180,173,171,169,551,5211,225,190,182,181,184,178,4806,18931,498,328,308,306,306,306,1278,1279,33734,32426,9962,10623,1425,1298,1285,1287,15055,10445,15833,14426,1434,1314,812,2622,34899,35509,32043,32979,30497,18541,2176,5705,32407,35413,32821,33173,31041,46182
3742,33487,653,167,162,160,157,160,33712,65535,3656,217,181,173,170,167,561,5317,220,192,187,182,184,183,4841,19066,497,325,307,304,299,305,1292,1291,33767,32501,9999,10679,1433,1302,1302,1302,15136,10510,15895,14503,1441,1317,812,2621,34980,35656,32173,33193,30531,18563,2189,5748,32467,35511,32909,33315,31081,46246
3723,33339,658,167,160,158,159,156,33517,65535,3654,212,180,173,173,169,562,5333,225,191,185,185,188,181,4848,18942,496,325,303,303,301,303,1291,1290,33652,32250,9925,10485,1418,1290,1298,1298,15019,10407,15785,14298,1421,1301,807,2591,34959,35458,31666,32194,30459,18484,2179,5693,32547,35450,32725,32916,30938,45895
3726,33330,652,168,160,158,159,157,32933,65535,3571,210,180,174,169,170,569,5355,227,192,185,182,183,183,4794,18691,489,324,303,305,302,304,1280,1277,33439,31943,9816,10350,1413,1287,1283,1281,14867,10287,15684,14167,1415,1298,794,2534,34761,35123,31373,31810,30419,18455,2158,5583,32273,35083,32542,32675,30910,45812
3806,33802,664,169,164,159,159,156,32953,65535,3613,213,184,171,172,169,574,5401,228,192,184,182,188,179,4793,18686,493,325,308,305,302,304,1282,1282,33413,31936,9807,10353,1418,1291,1278,1280,14847,10280,15667,14162,1417,1299,789,2525,34711,35099,31405,31888,30402,18452,2155,5582,32149,34996,32536,32669,30904,45821
3850,34076,664,167,162,158,159,157,33099,65535,3589,218,180,172,167,171,570,5352,226,191,185,185,184,186,4827,18778,490,323,306,304,301,304,1283,1283,33512,32071,9841,10411,1419,1293,1283,1283,14871,10310,15716,14215,1419,1301,793,2541,34730,35161,31553,32116,30419,18465,2162,5617,32253,35150,32571,32743,30943,45889
3868,34213,671,169,161,160,157,156,33211,65535,3634,213,179,172,169,169,570,5367,225,191,188,183,179,186,4845,18784,493,318,302,303,299,302,1284,1281,33519,32072,9848,10405,1405,1281,1281,1280,14843,10297,15699,14187,1407,1286,797,2560,34707,35153,31531,32061,30411,18459,2164,5622,32297,35194,32565,32718,30944,45879
3881,34201,667,168,163,158,157,157,33203,65535,3597,214,177,173,173,169,565,5321,225,192,183,183,182,185,4854,18798,487,323,302,297,297,300,1270,1268,33534,32093,9833,10404,1394,1266,1268,1268,14831,10286,15685,14180,1398,1277,800,2568,34699,35167,31550,32148,30410,18466,2166,5632,32275,35177,32550,32727,30965,45945
3863,34162,673,167,160,157,157,157,33237,65535,3639,212,179,171,171,168,561,5287,224,191,189,178,189,183,4866,18890,490,319,300,298,297,300,1258,1256,33557,32156,9847,10438,1388,1265,1259,1257,14856,10311,15667,14186,1394,1275,802,2569,34744,35271,31675,32423,30411,18481,2173,5661,32274,35240,32590,32820,31007,46062
3856,34157,666,168,162,160,160,157,33377,65535,3623,212,180,171,167,172,555,5272,223,192,183,183,183,179,4888,18969,491,319,301,298,298,301,1262,1259,33593,32237,9870,10495,1398,1273,1261,1262,14902,10349,15702,14238,1402,1285,802,2575,34764,35375,31837,32697,30431,18510,2180,5701,32339,35332,32671,32953,31075,46194
3854,34124,670,170,161,161,156,155,33570,65535,3672,213,179,173,169,168,559,5253,227,186,181,178,181,184,4897,19021,494,321,300,301,299,301,1264,1262,33613,32306,9896,10540,1399,1271,1266,1265,14942,10388,15729,14291,1403,1285,798,2577,34801,35483,31971,32939,30467,18534,2185,5738,32370,35396,32765,33103,31129,46316
3840,33945,665,167,160,160,157,155,33719,65535,3653,215,179,171,172,168,558,5336,229,193,188,185,186,186,4892,19082,494,321,302,300,302,305,1265,1265,33636,32375,9917,10598,1405,1277,1269,1271,15009,10441,15776,14369,1411,1291,796,2562,34871,35631,32141,33261,30493,18571,2195,5777,32392,35447,32903,33329,31182,46441
3641,32729,648,170,160,158,157,159,33824,65535,3697,214,180,174,170,169,583,5616,233,200,190,191,184,188,4884,19187,497,324,304,301,303,309,1270,1271,33725,32492,9945,10631,1408,1280,1275,1276,15040,10473,15815,14411,1414,1293,781,2508,34959,35783,32259,33290,30518,18568,2199,5806,32335,35405,33027,33453,31195,46369
3598,32607,645,171,160,159,157,161,32869,65535,3569,213,182,174,172,166,616,5983,238,199,190,191,191,190,4835,19034,496,327,305,307,306,308,1273,1269,33617,32214,9828,10388,1397,1273,1272,1271,14862,10322,15693,14203,1395,1277,775,2462,34953,35531,31631,32175,30447,18495,2177,5682,32308,35166,32785,33005,31041,46061
3645,32854,651,169,160,162,158,159,32431,65535,3576,214,180,176,169,171,626,6020,240,199,190,186,188,189,4788,18919,497,327,307,308,305,309,1263,1262,33528,32097,9781,10347,1389,1267,1258,1259,14791,10265,15664,14172,1388,1269,764,2427,34901,35435,31549,32124,30437,18497,2162,5624,32119,35011,32726,32945,31022,46046
3739,33372,652,169,160,159,157,157,32753,65535,3576,213,182,173,174,169,619,5874,234,198,187,186,186,185,4808,18970,495,328,306,306,305,307,1257,1256,33619,32235,9821,10421,1399,1272,1251,1252,14822,10294,15695,14220,1395,1277,764,2433,34912,35517,31709,32450,30473,18526,2168,5652,32198,35191,32747,33015,31070,46175
3835,34094,671,167,160,158,160,156,33094,65535,3637,213,180,174,175,167,595,5619,230,188,184,186,187,182,4824,18979,501,330,309,309,307,309,1268,1267,33759,32399,9873,10480,1410,1283,1261,1266,14870,10342,15743,14263,1403,1283,773,2488,34999,35665,31824,32572,30463,18519,2181,5717,32347,35384,32793,33072,31112,46210
3812,33830,659,167,160,159,157,154,33118,65535,3595,217,180,173,174,168,583,5475,229,193,188,186,183,187,4822,18900,497,329,312,307,307,309,1276,1276,33786,32401,9861,10447,1414,1287,1268,1270,14857,10329,15726,14237,1407,1287,784,2517,35039,35666,31736,32424,30435,18505,2184,5705,32379,35375,32771,33025,31119,46227
3771,33557,661,169,159,161,155,158,33152,65535,3637,217,179,176,168,169,577,5426,228,195,185,183,185,187,4828,18933,498,327,308,307,308,308,1279,1278,33833,32477,9878,10479,1414,1289,1272,1273,14883,10350,15744,14269,1407,1289,785,2529,35081,35755,31820,32609,30443,18517,2185,5732,32397,35441,32787,33085,31159,46321
3753,33412,653,170,161,158,155,159,33305,65535,3617,214,179,176,171,166,573,5415,228,195,186,185,189,184,4851,19016,498,329,308,307,309,307,1281,1280,33871,32554,9891,10532,1415,1289,1271,1273,14936,10384,15780,14329,1405,1286,788,2533,35130,35875,31971,32887,30457,18543,2198,5773,32451,35497,32873,33224,31209,46423
3730,33392,658,170,163,160,158,157,33255,65535,3656,212,185,177,171,169,580,5491,231,196,187,186,187,187,4875,19219,503,329,311,309,306,307,1279,1277,33865,32599,9924,10593,1413,1285,1265,1270,14971,10415,15823,14401,1403,1281,781,2517,35197,36021,32130,33165,30498,18579,2197,5795,32487,35585,32988,33410,31255,46547
3767,33780,659,169,160,159,157,156,33201,65535,3627,215,179,173,175,171,585,5559,231,192,191,187,186,186,4884,19329,500,332,312,310,310,316,1278,1276,33893,32683,9952,10655,1413,1286,1265,1266,15024,10471,15875,14481,1405,1286,779,2507,35289,36199,32323,33494,30538,18617,2205,5829,32541,35683,33117,33628,31310,46679
3887,34646,679,163,163,158,158,157,33306,65535,3676,213,180,174,170,168,585,5566,233,197,188,190,187,186,4904,19421,508,331,312,309,310,311,1277,1275,33934,32746,9981,10693,1412,1283,1271,1271,15079,10511,15926,14522,1408,1285,776,2510,35388,36351,32415,33565,30557,18615,2212,5868,32569,35742,33207,33731,31327,46669
3915,34638,673,168,161,161,156,158,33039,65535,3594,212,181,172,171,169,585,5535,231,200,188,187,189,187,4864,19181,497,333,308,308,308,309,1273,1270,33802,32466,9871,10460,1396,1271,1265,1263,14933,10384,15803,14318,1387,1269,781,2499,35335,36089,31821,32498,30461,18530,2201,5786,32553,35555,32995,33320,31203,46413
3895,34378,675,170,160,158,158,156,32766,65535,3603,216,180,174,169,169,588,5546,235,197,187,188,186,190,4837,19063,503,334,310,304,311,309,1262,1257,33669,32296,9797,10380,1389,1265,1251,1247,14851,10310,15737,14251,1382,1262,772,2475,35228,35915,31658,32333,30419,18502,2185,5723,32324,35315,32910,33229,31195,46386
3868,34179,667,169,162,160,159,155,32772,65535,3573,214,181,174,171,168,593,5639,236,198,187,188,188,190,4831,19058,500,329,307,310,305,311,1256,1255,33662,32314,9797,10404,1389,1261,1244,1246,14852,10311,15754,14280,1383,1263,771,2462,35233,35952,31731,32488,30413,18505,2183,5724,32258,35289,32954,33289,31214,46443
3934,34622,680,168,160,162,157,155,33222,65535,3641,214,179,177,172,167,599,5649,234,200,187,186,188,186,4831,19035,501,329,309,313,305,309,1252,1253,33751,32441,9831,10458,1387,1260,1247,1247,14882,10347,15798,14337,1385,1265,771,2470,35287,36048,31876,32705,30404,18504,2193,5780,32359,35412,33014,33391,31214,46471
3951,34770,677,169,162,161,156,157,33346,65535,3609,218,179,172,175,169,595,5631,231,195,187,185,184,183,4846,19073,497,328,309,305,311,306,1252,1252,33759,32458,9829,10446,1378,1253,1247,1252,14889,10356,15781,14319,1381,1260,778,2487,35275,36051,31875,32707,30399,18502,2197,5789,32293,35375,33033,33408,31207,46482
3969,34824,683,173,160,158,158,159,33363,65535,3649,217,181,173,170,173,589,5583,230,197,184,188,184,185,4865,19135,501,324,307,305,302,310,1243,1243,33833,32550,9827,10460,1373,1245,1245,1243,14913,10379,15779,14339,1377,1256,779,2508,35279,36104,31952,32906,30385,18504,2199,5811,32340,35452,33061,33491,31229,46574
3941,34673,678,172,162,157,159,157,33458,65535,3625,211,180,172,168,173,595,5613,233,193,186,186,185,182,4893,19261,501,328,307,306,303,304,1236,1232,33855,32607,9833,10492,1357,1231,1235,1233,14974,10414,15781,14343,1360,1245,782,2503,35299,36202,32099,33204,30407,18522,2207,5845,32444,35614,33145,33616,31262,46712
3956,34725,681,170,161,159,159,157,33591,65535,3675,213,180,173,173,168,586,5572,229,193,186,183,184,188,4934,19423,503,331,305,303,306,306,1223,1224,33917,32705,9853,10529,1360,1234,1227,1225,15032,10468,15763,14352,1369,1247,781,2511,35340,36327,32259,33539,30415,18542,2215,5897,32497,35733,33237,33783,31321,46874
3923,34629,676,172,162,156,157,156,33747,65535,3658,212,181,172,173,168,590,5637,234,194,186,189,184,189,4957,19548,503,325,307,305,303,306,1224,1223,33956,32801,9864,10577,1360,1231,1229,1231,15105,10529,15750,14371,1369,1251,777,2499,35485,36547,32463,33910,30445,18567,2225,5935,32513,35812,33386,34014,31398,47055
3907,34493,679,170,159,158,157,160,33823,65535,3690,214,178,173,171,171,597,5704,231,193,187,185,185,185,4963,19539,504,326,303,303,302,308,1223,1223,33928,32719,9842,10481,1352,1225,1237,1232,15088,10507,15694,14270,1361,1243,774,2491,35491,36508,32299,33389,30404,18506,2225,5942,32495,35823,33365,33869,31364,46888
3869,34158,666,169,161,160,159,156,33072,65535,3586,213,179,172,170,169,594,5637,229,195,186,185,185,183,4898,19186,496,329,301,303,303,303,1217,1214,33736,32391,9691,10243,1347,1223,1221,1222,14909,10346,15565,14090,1354,1237,773,2457,35250,36054,31730,32528,30318,18437,2204,5812,32333,35465,33109,33492,31321,46793
3857,33985,669,165,164,157,157,158,33021,65535,3614,213,182,170,170,168,584,5535,230,193,186,184,185,183,4878,19111,497,326,304,302,302,303,1217,1216,33690,32333,9662,10219,1353,1230,1219,1226,14886,10315,15539,14068,1359,1244,771,2458,35129,35927,31714,32543,30277,18413,2200,5799,32183,35338,33075,33466,31349,46822
3855,34132,666,166,161,158,157,155,33200,65535,3595,213,180,174,172,169,582,5497,229,194,186,183,183,184,4891,19121,500,325,307,303,304,308,1225,1227,33738,32419,9710,10303,1363,1237,1229,1230,14921,10339,15598,14142,1367,1252,771,2466,35109,35963,31879,32793,30291,18429,2209,5827,32272,35484,33116,33544,31431,46971
3983,34909,683,166,164,159,157,156,33485,65535,3655,213,183,173,171,169,578,5423,225,191,181,181,183,181,4933,19178,495,324,308,303,303,305,1234,1231,33867,32550,9763,10352,1366,1240,1233,1234,14944,10357,15653,14179,1368,1249,778,2505,35175,36046,31946,32837,30295,18423,2222,5882,32421,35643,33118,33545,31479,47020
3999,34929,678,167,164,157,155,159,33535,65535,3618,215,177,173,170,166,565,5305,223,189,180,182,182,180,4942,19108,497,321,303,302,304,305,1236,1231,33902,32577,9767,10351,1357,1232,1231,1230,14938,10343,15664,14181,1358,1242,793,2548,35191,36041,31927,32797,30277,18410,2227,5894,32522,35711,33083,33521,31511,47075
3962,34665,681,167,163,158,157,158,33584,65535,3659,214,182,174,169,171,563,5262,223,191,183,184,180,180,4943,19135,497,325,306,303,301,305,1224,1222,33943,32648,9778,10388,1359,1233,1223,1223,14941,10358,15663,14203,1364,1247,799,2571,35260,36158,32006,32992,30255,18409,2230,5916,32583,35792,33088,33579,31567,47190
3950,34653,674,169,163,159,158,159,33768,65535,3642,214,179,173,171,165,561,5256,221,190,185,180,181,180,4951,19165,494,326,303,302,299,303,1225,1223,34038,32784,9811,10449,1358,1231,1230,1231,14987,10391,15706,14263,1365,1246,805,2586,35328,36296,32171,33272,30271,18431,2242,5958,32677,35899,33161,33701,31623,47311
3933,34601,680,167,165,160,153,157,33970,65535,3697,214,183,176,167,167,561,5272,224,192,184,185,179,181,4964,19236,498,323,303,303,302,304,1224,1227,34073,32871,9854,10526,1360,1233,1231,1231,15041,10442,15754,14343,1372,1250,804,2594,35444,36474,32365,33600,30305,18459,2247,6006,32743,36007,33247,33858,31683,47449
3935,34599,671,167,161,158,156,155,34159,65535,3670,217,180,175,174,168,559,5259,224,190,184,181,182,185,4974,19266,500,323,302,303,299,305,1226,1223,34098,32876,9880,10528,1351,1223,1232,1234,15056,10448,15770,14331,1363,1242,810,2606,35547,36583,32358,33421,30291,18427,2259,6045,32746,36043,33293,33876,31701,47375
3915,34307,675,165,159,159,157,156,33495,65535,3636,213,181,173,169,165,555,5195,223,191,182,182,182,181,4912,18907,492,321,301,300,298,303,1214,1213,33885,32511,9763,10321,1343,1217,1225,1225,14880,10292,15650,14147,1351,1234,807,2581,35426,36208,31787,32472,30189,18340,2236,5916,32717,35793,33037,33442,31613,47191
3903,34102,661,168,159,159,159,156,33311,65535,3585,213,183,173,169,169,555,5150,222,190,181,182,182,181,4889,18770,490,319,299,298,299,301,1212,1208,33775,32358,9727,10283,1339,1212,1215,1216,14823,10236,15624,14109,1347,1229,807,2565,35304,36025,31695,32343,30148,18308,2229,5877,32580,35622,32962,33335,31614,47174
3887,33967,668,170,160,156,160,153,33364,65535,3623,212,181,172,170,167,552,5122,223,190,185,182,182,183,4879,18739,489,319,299,297,300,300,1206,1205,33734,32329,9742,10318,1340,1215,1210,1211,14823,10223,15639,14135,1350,1229,803,2562,35219,35944,31737,32450,30137,18300,2230,5880,32553,35594,32966,33363,31643,47229
3887,33953,661,167,159,157,156,155,33522,65535,3606,213,179,172,172,167,552,5119,222,195,183,186,183,185,4887,18771,487,321,305,301,298,299,1208,1207,33750,32364,9783,10380,1348,1217,1211,1213,14845,10245,15682,14181,1350,1229,806,2567,35213,35977,31841,32586,30145,18300,2239,5913,32602,35645,33011,33428,31646,47236
3875,33826,666,169,161,157,157,159,33544,65535,3637,216,178,173,170,168,551,5115,223,193,183,186,183,181,4878,18718,489,319,301,299,297,300,1208,1207,33729,32351,9810,10406,1339,1212,1215,1216,14842,10240,15697,14202,1349,1230,805,2572,35311,36071,31835,32547,30138,18291,2235,5909,32598,35610,32999,33413,31653,47238
3871,33783,659,168,156,157,155,157,33590,65535,3609,213,179,175,169,167,551,5110,222,193,186,183,187,182,4876,18705,486,323,302,296,298,302,1204,1202,33727,32357,9826,10445,1328,1204,1212,1212,14863,10251,15726,14239,1341,1224,808,2578,35418,36159,31898,32683,30141,18302,2239,5922,32610,35644,32997,33455,31663,47299
3873,33803,666,168,159,159,163,156,33708,65535,3659,213,180,171,172,169,553,5113,225,190,183,182,184,183,4879,18765,490,319,299,300,301,297,1195,1196,33726,32407,9862,10513,1333,1205,1206,1208,14904,10289,15765,14304,1348,1228,809,2585,35422,36214,32040,32947,30162,18319,2246,5958,32711,35772,33037,33551,31703,47401
3867,33743,661,167,163,159,156,156,33892,65535,3639,215,178,174,170,169,553,5105,225,191,182,180,182,182,4899,18847,489,319,302,297,298,300,1199,1199,33828,32551,9913,10601,1339,1212,1211,1213,14970,10350,15826,14394,1357,1238,814,2601,35441,36299,32228,33271,30197,18343,2255,6009,32830,35917,33098,33675,31750,47508
3850,33649,662,171,160,159,164,156,34043,65535,3682,216,179,172,168,167,557,5117,227,190,183,183,182,181,4909,18874,494,325,303,298,301,300,1206,1203,33875,32569,9930,10578,1341,1214,1221,1224,14982,10357,15831,14369,1358,1236,815,2621,35429,36289,32178,33021,30171,18301,2261,6031,32834,35967,33132,33647,31746,47414
3828,33353,651,170,160,160,157,160,33366,65535,3576,213,180,171,173,165,555,5069,221,188,180,181,181,180,4857,18556,484,318,299,298,298,300,1209,1205,33731,32273,9815,10378,1337,1213,1217,1219,14820,10211,15708,14179,1352,1235,818,2600,35242,35879,31635,32191,30070,18210,2241,5909,32799,35690,32874,33222,31643,47217
3808,33145,651,169,164,158,151,154,33229,65535,3598,212,182,172,170,168,556,5043,225,189,182,180,180,181,4836,18453,486,319,302,298,298,295,1204,1204,33658,32157,9777,10340,1336,1213,1217,1216,14778,10166,15664,14132,1353,1235,813,2585,35088,35681,31533,32081,30013,18173,2231,5868,32621,35486,32806,33127,31614,47171
3797,33024,646,171,159,158,159,157,33282,65535,3567,214,178,172,170,168,551,5031,222,190,185,183,181,182,4833,18445,486,322,301,301,298,301,1205,1205,33654,32182,9786,10372,1342,1217,1219,1220,14795,10179,15672,14160,1358,1242,817,2583,35023,35624,31582,32229,29998,18167,2231,5867,32565,35450,32814,33178,31620,47215
3782,32928,651,172,159,155,157,159,33465,65535,3622,212,180,173,169,172,550,5026,221,189,181,181,180,181,4844,18487,486,322,300,295,302,301,1210,1211,33700,32238,9818,10414,1352,1227,1225,1229,14827,10209,15700,14195,1368,1253,815,2589,35001,35633,31663,32329,29998,18162,2238,5895,32583,35499,32853,33223,31627,47228
3765,32781,643,168,160,162,157,159,33457,65535,3583,214,180,171,169,167,549,5015,220,190,182,182,183,181,4839,18450,483,319,301,299,300,301,1217,1218,33705,32231,9818,10419,1350,1227,1232,1232,14835,10211,15701,14195,1368,1251,818,2590,34967,35586,31633,32310,29983,18151,2235,5889,32609,35480,32838,33209,31624,47235
3750,32687,649,170,160,157,155,157,33508,65535,3626,212,179,171,168,170,550,5008,220,189,183,181,181,180,4841,18471,488,321,300,301,301,304,1218,1219,33723,32270,9836,10455,1355,1228,1235,1237,14869,10241,15721,14234,1373,1254,814,2587,34943,35600,31715,32495,29990,18159,2239,5908,32599,35507,32857,33272,31636,47300
3739,32611,639,167,162,159,155,153,33659,65535,3607,217,179,173,173,169,549,5001,219,190,183,182,180,181,4855,18539,486,321,302,303,299,304,1224,1219,33778,32357,9864,10515,1357,1231,1237,1240,14928,10290,15762,14305,1377,1259,814,2593,34949,35671,31866,32787,30023,18193,2247,5942,32650,35596,32913,33389,31668,47399
3731,32583,642,168,160,161,157,155,33853,65535,3663,214,179,171,169,168,549,5001,223,191,182,181,182,184,4867,18631,491,321,301,302,301,302,1226,1226,33841,32474,9910,10593,1363,1239,1244,1245,14993,10350,15816,14385,1383,1264,813,2597,34988,35797,32055,33126,30068,18224,2255,5987,32721,35712,32997,33547,31713,47503
3727,32538,637,168,162,157,168,160,33999,65535,3631,215,178,177,170,166,550,4995,220,189,181,182,183,181,4881,18657,486,317,302,300,301,302,1228,1229,33873,32460,9915,10555,1363,1236,1250,1249,14999,10349,15812,14345,1383,1260,815,2609,35018,35804,31973,32804,30046,18176,2262,6008,32787,35796,33017,33471,31685,47369
3706,32205,643,171,159,152,155,157,33250,65535,3587,216,180,173,167,167,549,4939,222,189,182,181,181,180,4822,18318,485,325,301,299,301,302,1227,1223,33677,32101,9781,10334,1355,1230,1242,1244,14825,10195,15666,14139,1373,1253,813,2576,34814,35355,31386,31905,29945,18089,2234,5865,32701,35467,32746,33027,31565,47149
3687,32006,630,167,163,157,157,155,33130,65535,3541,213,178,176,168,169,546,4921,220,188,181,180,182,185,4803,18221,482,320,301,299,299,304,1224,1217,33591,31978,9742,10298,1353,1227,1237,1235,14787,10152,15621,14090,1369,1250,811,2559,34682,35169,31306,31829,29908,18055,2223,5818,32531,35275,32679,32929,31537,47094
3678,31889,634,171,157,157,159,157,33204,65535,3581,213,178,171,171,169,546,4905,220,188,182,181,185,181,4807,18215,484,320,301,299,299,302,1218,1219,33578,31984,9754,10328,1358,1229,1234,1235,14796,10158,15626,14111,1370,1253,807,2553,34618,35118,31370,31991,29899,18054,2222,5819,32485,35231,32689,32964,31542,47138
3671,31835,629,176,160,159,160,159,33377,65535,3565,211,182,172,167,169,545,4897,219,190,180,181,181,181,4818,18259,484,316,301,302,299,301,1225,1226,33615,32029,9777,10365,1360,1235,1236,1238,14821,10179,15647,14129,1375,1257,807,2555,34614,35129,31459,32091,29906,18051,2226,5846,32523,35283,32725,33005,31555,47145
3662,31744,638,167,159,159,157,158,33370,65535,3598,212,182,172,171,167,543,4884,218,190,181,180,181,180,4813,18226,484,321,303,301,299,303,1227,1228,33609,32011,9777,10369,1359,1233,1237,1241,14817,10180,15641,14131,1376,1260,807,2555,34590,35091,31449,32087,29901,18051,2229,5836,32539,35270,32712,32983,31539,47131
3655,31689,624,168,159,159,155,151,33439,65535,3573,212,181,173,170,167,545,4880,220,190,181,182,183,183,4819,18260,483,321,302,301,301,302,1226,1226,33631,32050,9793,10408,1362,1236,1242,1242,14850,10208,15661,14171,1379,1261,805,2550,34595,35127,31547,32305,29923,18063,2230,5855,32515,35271,32730,33058,31550,47197
3654,31674,629,165,159,159,155,157,33611,65535,3628,213,179,172,167,167,545,4875,220,190,181,181,181,181,4833,18331,486,321,300,300,300,301,1229,1227,33677,32139,9828,10474,1362,1240,1245,1246,14909,10257,15701,14239,1382,1263,804,2555,34631,35225,31714,32602,29961,18093,2235,5889,32555,35353,32793,33174,31583,47289
3652,31681,623,170,157,160,157,156,33798,65535,3612,212,181,170,172,170,543,4880,219,189,181,181,181,179,4849,18415,485,321,302,301,300,302,1230,1231,33740,32234,9867,10544,1366,1238,1243,1249,14969,10306,15748,14308,1390,1271,803,2564,34697,35355,31889,32895,30015,18133,2243,5928,32607,35449,32863,33311,31618,47396
3651,31711,629,166,159,157,156,157,33994,65535,3668,214,179,174,169,165,545,4883,222,189,182,182,182,180,4867,18513,490,325,302,301,303,305,1231,1230,33801,32345,9906,10613,1367,1241,1250,1254,15034,10365,15797,14391,1393,1275,805,2569,34783,35514,32072,33235,30071,18181,2251,5978,32680,35590,32952,33475,31674,47526
3654,31743,627,168,160,159,155,158,34193,65535,3647,213,180,174,169,167,545,4886,219,193,182,181,182,180,4891,18610,488,324,303,301,301,303,1236,1236,33865,32414,9937,10636,1372,1240,1258,1260,15078,10402,15834,14415,1393,1272,807,2576,34871,35638,32167,33233,30085,18163,2261,6023,32728,35707,33039,33547,31674,47454
3640,31467,625,173,160,160,160,153,33411,65535,3590,212,179,175,173,168,544,4830,222,188,182,182,183,181,4828,18229,484,322,301,299,301,303,1232,1232,33682,32030,9790,10344,1359,1231,1252,1252,14881,10221,15663,14142,1377,1258,807,2554,34695,35173,31393,31917,29967,18051,2237,5869,32762,35435,32703,32932,31506,47103
3623,31225,617,167,163,159,157,156,33099,65535,3525,214,180,172,170,167,547,4798,218,189,182,182,185,185,4795,18056,481,320,305,302,300,305,1224,1222,33554,31827,9710,10258,1349,1226,1243,1239,14793,10146,15585,14046,1370,1252,802,2530,34531,34893,31206,31682,29909,18006,2218,5781,32533,35152,32581,32752,31450,46991
3620,31127,620,170,160,159,156,156,33159,65535,3568,213,179,170,169,166,544,4783,218,188,181,179,180,181,4796,18038,483,323,300,300,299,303,1219,1219,33523,31789,9707,10261,1353,1227,1235,1236,14783,10132,15569,14038,1369,1254,797,2520,34457,34807,31219,31734,29893,17996,2213,5772,32467,35075,32564,32733,31435,46982
3614,31089,615,171,159,157,156,155,33325,65535,3551,213,178,173,171,171,543,4775,218,189,185,184,180,179,4810,18090,475,319,301,300,299,303,1221,1220,33566,31844,9732,10309,1357,1232,1239,1239,14813,10153,15593,14075,1375,1261,799,2521,34461,34829,31349,31917,29901,17995,2225,5793,32471,35107,32602,32791,31454,47001
3608,31021,617,169,159,159,160,159,33359,65535,3585,216,179,172,174,168,546,4768,218,190,185,181,185,181,4811,18072,482,319,301,300,301,300,1229,1224,33559,31825,9739,10307,1358,1232,1240,1244,14807,10151,15586,14059,1373,1258,797,2521,34443,34793,31327,31869,29901,17985,2215,5785,32516,35115,32575,32754,31430,46965
3606,30969,611,168,163,156,160,157,33386,65535,3557,212,181,173,169,168,544,4771,218,189,180,182,182,180,4815,18082,479,321,302,303,299,303,1225,1222,33569,31842,9744,10333,1356,1231,1242,1243,14829,10165,15594,14085,1378,1260,799,2519,34454,34815,31390,32025,29907,17997,2216,5789,32492,35087,32575,32791,31435,47004
3606,30981,617,166,160,158,157,161,33544,65535,3611,211,183,172,167,172,545,4769,218,188,184,180,183,184,4831,18153,484,320,303,300,301,303,1225,1226,33609,31923,9775,10394,1358,1235,1242,1244,14879,10211,15628,14139,1379,1261,796,2521,34484,34903,31557,32314,29945,18026,2221,5817,32504,35154,32631,32893,31457,47078
3610,31011,615,167,153,157,157,157,33749,65535,3595,213,179,174,171,170,544,4774,220,189,182,182,182,179,4852,18248,484,319,303,300,299,301,1227,1227,33678,32028,9813,10469,1363,1235,1246,1251,14938,10259,15675,14214,1384,1268,794,2531,34554,35040,31740,32624,30000,18068,2229,5861,32563,35247,32702,33029,31499,47181
3614,31052,618,169,161,155,157,156,33949,65535,3652,213,180,172,168,168,546,4787,225,189,182,181,182,180,4869,18344,485,321,302,301,302,303,1231,1227,33738,32127,9855,10533,1366,1238,1249,1253,15000,10315,15720,14285,1389,1271,797,2538,34653,35195,31915,32933,30049,18109,2235,5907,32614,35355,32778,33186,31533,47287
3617,31104,614,168,161,158,156,159,34145,65535,3639,215,179,169,173,166,548,4794,219,189,182,180,181,181,4891,18446,485,321,305,301,301,303,1229,1231,33809,32233,9888,10600,1368,1241,1255,1259,15062,10374,15773,14366,1398,1276,800,2546,34746,35362,32090,33235,30112,18156,2248,5952,32674,35468,32869,33344,31580,47403
3620,31157,619,165,160,158,160,157,34337,65535,3690,215,180,172,169,170,547,4811,218,191,185,182,180,184,4909,18545,490,323,304,302,303,304,1233,1232,33878,32346,9932,10665,1372,1246,1258,1262,15119,10429,15827,14441,1401,1280,799,2553,34851,35530,32264,33521,30177,18204,2253,5998,32741,35603,32951,33504,31623,47531
3626,31243,616,165,159,158,156,157,34514,65535,3672,214,180,165,169,169,547,4827,218,189,185,183,180,181,4930,18651,489,323,305,305,302,307,1237,1236,33954,32465,9963,10733,1376,1245,1264,1263,15175,10486,15875,14522,1407,1285,803,2565,34972,35720,32457,33859,30239,18261,2263,6040,32821,35744,33049,33677,31689,47675
3633,31331,625,170,160,162,157,160,34734,65535,3727,217,179,177,171,172,551,4839,220,190,181,181,183,184,4957,18786,495,327,303,306,302,305,1238,1239,34039,32598,10012,10813,1378,1248,1269,1271,15235,10551,15941,14613,1412,1289,801,2575,35106,35937,32679,34214,30301,18296,2273,6103,32941,35939,33165,33881,31751,47789
3636,31233,615,167,160,157,157,156,34435,65535,3636,215,183,172,173,168,552,4818,218,189,180,183,180,182,4932,18545,486,324,303,301,301,307,1238,1238,33965,32359,9927,10564,1367,1238,1271,1270,15105,10428,15824,14372,1395,1272,806,2576,35085,35689,32072,32892,30206,18183,2270,6025,33084,35875,32946,33329,31563,47308
3621,30925,614,163,163,158,163,160,33470,65535,3593,213,181,171,172,173,550,4761,217,190,181,181,182,182,4854,18146,484,321,302,301,300,301,1229,1226,33747,31980,9763,10331,1356,1230,1254,1254,14916,10254,15667,14160,1383,1263,803,2537,34803,35159,31451,31999,30111,18108,2226,5824,32762,35395,32647,32871,31435,47050
3616,30821,609,167,162,157,159,158,33537,65535,3562,212,181,175,170,168,551,4747,218,190,181,185,182,181,4848,18103,481,323,300,300,300,302,1221,1223,33685,31889,9732,10297,1352,1228,1245,1245,14893,10219,15631,14120,1376,1256,800,2526,34706,35029,31417,31965,30086,18085,2220,5787,32624,35231,32593,32795,31412,46993
3614,30779,613,167,160,153,158,158,33652,65535,3609,213,180,173,171,169,549,4743,219,189,185,180,181,180,4858,18130,482,320,302,301,300,306,1219,1227,33693,31911,9749,10337,1357,1234,1242,1243,14907,10233,15645,14149,1381,1265,799,2523,34687,35023,31524,32148,30091,18094,2219,5788,32598,35223,32609,32839,31438,47029
3615,30748,608,167,163,158,156,157,33791,65535,3584,213,178,173,170,172,551,4738,217,188,182,181,183,179,4871,18150,481,320,302,301,300,301,1225,1225,33708,31919,9763,10346,1357,1234,1249,1249,14902,10234,15640,14139,1382,1265,797,2524,34700,35022,31544,32132,30095,18085,2224,5803,32678,35282,32607,32817,31431,46991
3613,30695,614,167,162,159,156,158,33751,65535,3615,213,180,176,166,172,550,4729,219,190,180,180,182,185,4870,18113,482,320,303,303,302,302,1225,1225,33701,31902,9757,10348,1358,1237,1247,1250,14891,10227,15633,14136,1383,1265,797,2523,34687,35002,31538,32149,30098,18082,2217,5787,32661,35231,32580,32801,31415,46975
3614,30691,607,169,162,156,166,158,33847,65535,3596,206,184,172,167,169,552,4730,217,189,181,185,181,181,4877,18162,480,319,301,301,298,302,1224,1226,33725,31961,9776,10394,1361,1235,1249,1249,14931,10256,15656,14178,1383,1268,796,2523,34719,35069,31679,32403,30117,18109,2223,5808,32647,35251,32611,32885,31437,47045
3617,30719,612,169,169,160,157,160,34046,65535,3648,214,183,172,173,168,551,4731,218,190,180,181,180,183,4895,18243,485,321,301,299,303,303,1227,1227,33784,32062,9818,10471,1365,1240,1250,1253,14981,10303,15696,14249,1391,1273,794,2525,34775,35197,31870,32729,30174,18149,2228,5851,32691,35351,32679,33011,31475,47147
3623,30774,607,172,161,157,159,155,34261,65535,3635,209,177,172,171,169,551,4742,218,189,182,183,183,181,4916,18337,483,322,304,301,300,303,1231,1228,33847,32166,9861,10539,1368,1241,1254,1256,15031,10355,15744,14318,1394,1278,799,2534,34869,35360,32065,33051,30226,18193,2238,5896,32735,35447,32749,33160,31522,47259
3632,30845,616,166,162,158,157,159,34467,65535,3690,212,183,173,170,165,555,4764,219,189,185,181,183,183,4934,18433,489,322,302,301,300,303,1234,1235,33903,32270,9901,10610,1373,1247,1261,1263,15093,10412,15796,14397,1402,1283,798,2543,34973,35533,32242,33362,30278,18234,2247,5946,32786,35558,32838,33330,31565,47382
3638,30909,610,167,158,162,153,159,34662,65535,3673,213,182,170,171,166,556,4777,218,189,184,180,182,181,4953,18525,486,323,303,301,301,303,1237,1234,33981,32382,9943,10681,1376,1249,1266,1269,15150,10470,15850,14473,1410,1288,799,2552,35081,35707,32427,33665,30339,18279,2257,5991,32855,35695,32927,33496,31622,47506
3643,30995,619,164,156,160,159,156,34858,65535,3725,214,179,175,168,168,558,4795,219,192,183,182,183,181,4973,18619,490,324,303,303,302,303,1241,1239,34044,32497,9980,10747,1381,1250,1271,1272,15198,10525,15891,14547,1414,1293,800,2565,35193,35893,32595,33967,30407,18332,2265,6034,32917,35826,33016,33665,31669,47643
3653,31089,612,167,162,159,156,162,35055,65535,3705,216,178,174,170,168,560,4808,217,189,182,180,182,182,4992,18739,490,323,304,302,301,305,1241,1242,34127,32630,10024,10830,1384,1255,1279,1280,15269,10589,15953,14641,1421,1300,800,2574,35338,36113,32807,34333,30481,18393,2277,6092,33035,36023,33133,33885,31746,47808
3661,31166,619,165,162,160,156,155,35269,65535,3753,213,181,172,168,167,564,4819,214,189,185,179,181,182,5018,18828,494,324,302,303,300,301,1246,1247,34191,32684,10060,10837,1384,1252,1287,1284,15293,10611,15983,14640,1419,1295,801,2585,35453,36239,32867,34214,30485,18361,2285,6143,33083,36165,33206,33917,31725,47652
3651,30905,609,166,161,158,157,165,34138,65535,3613,214,178,173,173,170,563,4771,218,189,181,184,182,180,4929,18312,485,323,301,302,302,305,1242,1239,34001,32287,9876,10491,1366,1240,1276,1274,15082,10409,15787,14333,1397,1277,806,2564,35269,35731,31950,32650,30373,18258,2254,5923,33067,35794,32807,33166,31509,47201
3641,30717,610,167,160,157,159,156,33805,65535,3625,213,176,171,173,167,559,4747,219,191,185,181,183,181,4893,18153,483,322,301,299,300,303,1233,1235,33875,32102,9799,10391,1366,1239,1261,1260,15000,10331,15715,14248,1394,1276,800,2541,35101,35465,31721,32364,30327,18229,2226,5818,32823,35499,32663,32982,31458,47098
3640,30678,607,170,160,158,156,157,33905,65535,3600,212,179,173,172,162,559,4737,218,188,182,181,180,180,4897,18154,487,321,301,301,299,302,1231,1230,33875,32099,9800,10411,1365,1240,1259,1261,15013,10332,15711,14259,1399,1279,799,2536,35071,35437,31786,32490,30333,18234,2225,5810,32757,35439,32674,33007,31465,47122
3643,30689,612,164,160,158,156,158,34109,65535,3655,212,180,174,170,171,559,4741,218,188,182,182,180,180,4914,18229,483,321,302,299,300,304,1232,1232,33921,32182,9832,10465,1368,1244,1262,1265,15042,10361,15741,14301,1399,1283,797,2540,35108,35525,31947,32715,30353,18246,2229,5845,32766,35497,32732,33105,31498,47150
3646,30667,606,170,163,157,156,159,34163,65535,3621,212,178,173,170,170,559,4739,216,188,181,185,181,181,4916,18217,481,321,301,301,300,302,1239,1235,33928,32171,9835,10455,1368,1241,1263,1265,15041,10359,15735,14290,1399,1278,801,2545,35122,35519,31920,32646,30359,18244,2229,5839,32841,35533,32733,33083,31479,47112
3645,30637,612,167,160,158,156,156,34172,65535,3657,213,177,176,169,168,562,4741,218,189,182,185,181,181,4918,18221,484,319,302,301,300,302,1233,1231,33932,32194,9839,10477,1369,1240,1262,1263,15056,10367,15740,14317,1401,1281,798,2542,35139,35543,31975,32781,30376,18261,2227,5840,32798,35511,32737,33128,31489,47162
3648,30668,606,167,160,157,155,157,34339,65535,3640,214,179,174,175,168,561,4743,217,190,182,179,179,180,4931,18297,482,320,301,300,299,303,1235,1233,33985,32284,9871,10545,1369,1243,1263,1265,15105,10408,15777,14378,1402,1283,797,2543,35194,35665,32155,33097,30415,18297,2238,5876,32823,35580,32795,33256,31529,47255
3656,30738,610,171,161,158,156,156,34562,65535,3697,212,173,168,171,169,560,4753,218,190,181,181,181,181,4954,18401,488,320,303,300,299,302,1235,1233,34041,32395,9916,10617,1373,1245,1266,1271,15159,10458,15829,14454,1408,1287,800,2549,35283,35834,32359,33439,30463,18338,2245,5925,32875,35692,32882,33417,31573,47373
3663,30802,607,166,159,159,156,157,34783,65535,3680,214,180,173,171,169,564,4771,217,192,185,181,185,182,4977,18511,487,327,302,302,303,304,1239,1237,34112,32507,9958,10695,1379,1249,1271,1272,15223,10513,15881,14532,1413,1293,797,2559,35393,36012,32555,33771,30519,18379,2255,5974,32946,35831,32982,33598,31625,47507
3669,30877,615,167,160,159,155,156,34985,65535,3735,213,184,171,171,168,565,4786,219,190,183,182,183,181,4998,18610,492,322,302,303,301,306,1244,1245,34174,32618,10005,10763,1384,1255,1279,1280,15291,10571,15934,14614,1423,1301,801,2572,35498,36183,32735,34066,30571,18421,2262,6023,33019,35965,33071,33770,31681,47629
3675,30959,611,168,159,156,158,160,35170,65535,3710,214,181,174,170,165,569,4799,219,199,185,183,181,181,5018,18709,492,324,304,304,302,305,1248,1247,34257,32743,10044,10835,1390,1261,1283,1290,15357,10631,15990,14696,1427,1309,801,2583,35615,36373,32910,34376,30635,18472,2274,6070,33115,36123,33183,33963,31739,47773
3687,31055,618,167,163,157,159,156,35375,65535,3765,216,180,170,174,167,570,4820,221,189,180,182,184,181,5036,18823,495,328,305,303,303,306,1253,1252,34335,32875,10095,10920,1397,1263,1292,1293,15421,10700,16046,14786,1437,1312,806,2592,35743,36587,33115,34725,30700,18520,2282,6128,33253,36334,33319,34190,31807,47935
3693,31074,612,167,158,157,156,155,35463,65535,3717,215,179,175,173,169,573,4825,219,189,186,183,182,181,5045,18797,491,321,305,306,301,305,1256,1254,34353,32821,10083,10817,1393,1259,1294,1297,15393,10665,16021,14685,1430,1307,806,2605,35798,36559,32898,34094,30666,18459,2290,6132,33366,36397,33272,33953,31698,47595
3683,30814,613,169,160,157,156,156,34264,65535,3664,216,181,175,170,168,569,4777,219,189,183,182,182,181,4954,18321,489,324,302,301,302,303,1248,1248,34173,32475,9913,10538,1378,1247,1283,1283,15205,10482,15850,14442,1413,1289,805,2573,35577,36065,32137,32895,30573,18378,2247,5902,33139,35940,32907,33372,31539,47285
3678,30721,606,169,163,158,158,156,34172,65535,3628,213,177,178,170,171,566,4761,217,189,182,180,182,180,4939,18268,483,321,303,300,301,303,1239,1241,34117,32405,9870,10506,1375,1247,1269,1272,15172,10447,15813,14408,1407,1291,802,2560,35478,35931,32077,32867,30556,18375,2234,5851,32959,35765,32844,33303,31532,47270
3681,30731,613,166,159,158,158,155,34333,65535,3678,213,180,173,172,167,567,4767,220,188,182,182,181,181,4952,18329,486,321,302,301,304,303,1237,1239,34143,32470,9896,10562,1378,1251,1269,1270,15202,10468,15835,14459,1412,1291,798,2560,35489,35999,32243,33179,30583,18399,2236,5871,32932,35801,32893,33423,31571,47364
3682,30767,607,170,158,162,157,158,34579,65535,3664,212,181,167,172,169,569,4777,218,190,182,181,182,181,4979,18427,485,323,303,302,303,303,1245,1242,34197,32539,9933,10605,1382,1256,1271,1277,15237,10501,15873,14495,1415,1295,801,2566,35551,36101,32371,33322,30604,18410,2245,5920,32989,35897,32956,33509,31607,47383
3688,30763,612,168,162,157,160,157,34587,65535,3694,214,185,173,173,169,571,4778,222,189,182,183,185,181,4974,18391,488,327,306,302,302,304,1250,1247,34204,32537,9935,10603,1385,1255,1278,1278,15234,10503,15867,14491,1415,1296,799,2571,35571,36103,32339,33267,30609,18408,2241,5903,33041,35919,32959,33494,31588,47368
3691,30777,609,167,160,159,155,159,34622,65535,3665,217,184,169,167,166,570,4785,222,190,180,181,184,181,4981,18433,489,325,303,302,303,304,1248,1246,34235,32597,9944,10640,1386,1257,1277,1277,15267,10525,15885,14536,1420,1299,802,2571,35613,36175,32447,33479,30635,18439,2246,5917,33009,35917,32989,33583,31617,47457
3695,30847,614,168,160,157,157,156,34818,65535,3718,213,180,174,169,167,569,4789,219,190,186,185,180,182,4999,18525,492,323,304,302,301,305,1251,1252,34291,32703,9993,10719,1392,1264,1281,1284,15324,10575,15942,14611,1426,1309,801,2574,35682,36321,32655,33832,30687,18477,2255,5963,33074,36050,33068,33746,31671,47581
3700,30926,609,167,159,157,154,155,35053,65535,3701,215,184,173,170,168,572,4802,218,190,182,184,182,185,5025,18646,490,325,305,306,303,305,1256,1255,34359,32828,10041,10800,1398,1268,1290,1290,15392,10639,16000,14701,1436,1314,803,2583,35793,36513,32877,34209,30742,18520,2267,6020,33183,36209,33182,33954,31731,47727
3712,31021,617,169,161,159,160,157,35286,65535,3758,218,180,172,174,167,572,4818,219,191,181,179,184,185,5049,18767,496,327,307,306,304,306,1261,1264,34434,32955,10091,10883,1404,1273,1298,1299,15465,10702,16056,14790,1443,1318,805,2593,35906,36709,33078,34550,30796,18569,2277,6078,33269,36369,33296,34166,31796,47877
3721,31118,614,167,158,157,155,158,35514,65535,3735,214,181,178,171,168,575,4835,219,194,186,181,183,181,5074,18887,494,329,307,305,303,306,1262,1264,34517,33075,10135,10960,1404,1274,1302,1304,15532,10764,16111,14875,1447,1324,805,2604,36023,36898,33270,34874,30858,18618,2287,6131,33371,36542,33419,34379,31862,48039
3727,31224,622,167,161,159,155,159,35724,65535,3788,214,179,173,169,168,576,4852,221,190,182,180,181,181,5096,19011,497,327,307,304,307,310,1265,1264,34583,33209,10185,11042,1409,1276,1304,1311,15596,10833,16171,14961,1453,1329,807,2617,36149,37115,33468,35227,30917,18673,2300,6192,33490,36737,33561,34630,31942,48214
3739,31299,617,166,160,161,156,155,35908,65535,3757,215,181,171,170,172,578,4875,221,189,182,181,183,180,5115,19072,497,327,305,304,304,305,1265,1266,34629,33214,10196,11009,1403,1269,1310,1311,15600,10829,16177,14923,1443,1320,808,2635,36233,37177,33423,34937,30901,18625,2310,6230,33510,36817,33570,34530,31870,47961
3729,31032,616,167,160,157,157,157,34657,65535,3695,213,180,172,170,164,579,4825,222,189,185,181,181,181,5020,18531,491,324,306,303,303,303,1258,1257,34441,32833,10011,10667,1387,1256,1297,1297,15395,10621,15982,14621,1424,1299,812,2609,36005,36630,32519,33392,30788,18523,2266,5983,33390,36348,33146,33764,31662,47529
3719,30886,609,166,159,159,155,157,34361,65535,3646,213,181,171,170,172,578,4806,218,193,182,179,181,181,4988,18397,486,326,303,303,303,306,1247,1246,34333,32666,9934,10575,1381,1256,1281,1279,15317,10544,15906,14539,1416,1298,806,2588,35838,36366,32289,33123,30742,18497,2245,5886,33139,36063,33009,33601,31616,47452
3722,30879,618,167,160,158,158,157,34474,65535,3689,213,180,172,171,171,581,4807,219,190,182,183,180,181,4995,18426,488,323,303,302,305,305,1251,1245,34337,32687,9941,10604,1384,1257,1279,1282,15325,10549,15911,14559,1419,1297,805,2587,35802,36353,32379,33297,30747,18504,2242,5887,33076,36031,33025,33646,31638,47501
3725,30917,609,167,163,161,156,157,34690,65535,3674,213,178,171,172,172,578,4816,217,189,182,181,187,181,5019,18518,487,326,304,305,307,307,1250,1249,34397,32773,9977,10663,1390,1265,1280,1283,15359,10576,15948,14610,1421,1302,803,2587,35847,36450,32551,33534,30764,18518,2250,5927,33103,36109,33095,33762,31678,47553
3729,30923,619,167,159,157,158,156,34750,65535,3709,213,181,173,172,168,580,4824,219,191,182,183,180,181,5023,18519,491,322,305,305,305,306,1252,1252,34403,32770,9983,10658,1388,1260,1282,1285,15355,10575,15940,14595,1422,1299,805,2597,35855,36451,32521,33462,30765,18509,2251,5923,33162,36146,33095,33749,31660,47526
3731,30923,611,167,163,157,156,158,34738,65535,3676,213,178,174,173,167,582,4830,220,190,183,178,181,183,5023,18532,491,329,305,305,303,307,1252,1251,34415,32799,9987,10681,1389,1261,1281,1283,15368,10586,15950,14619,1422,1300,807,2594,35869,36478,32575,33597,30772,18518,2251,5924,33106,36121,33110,33796,31679,47572
3741,31000,615,168,161,161,157,156,34896,65535,3725,213,180,176,169,167,584,4842,220,189,181,182,182,181,5043,18615,495,327,305,307,305,307,1252,1251,34455,32891,10024,10744,1392,1262,1285,1284,15403,10622,15987,14684,1426,1303,805,2599,35914,36591,32751,33915,30810,18556,2255,5957,33159,36224,33172,33933,31731,47687
3751,31091,613,167,159,160,157,158,35108,65535,3708,218,179,173,171,168,583,4855,219,188,185,185,183,180,5065,18726,491,327,306,306,305,306,1257,1255,34524,33011,10067,10826,1395,1265,1285,1288,15457,10674,16036,14758,1430,1306,805,2607,36001,36757,32970,34274,30854,18597,2265,6011,33261,36385,33267,34120,31788,47827
3767,31244,622,167,160,158,160,159,35341,65535,3759,214,177,173,176,171,583,4872,219,191,183,181,186,185,5089,18846,498,328,308,305,306,308,1257,1255,34574,33118,10117,10901,1402,1269,1289,1292,15515,10732,16088,14841,1437,1311,807,2618,36097,36931,33162,34605,30897,18633,2277,6066,33341,36527,33370,34317,31845,47967
3782,31343,619,168,160,158,157,159,35543,65535,3739,214,184,175,170,180,585,4893,222,190,176,182,184,181,5118,18967,498,330,307,306,307,307,1261,1260,34650,33226,10159,10975,1402,1271,1295,1299,15574,10790,16141,14921,1439,1318,810,2633,36195,37104,33342,34922,30944,18678,2287,6119,33427,36684,33483,34514,31909,48121
3793,31491,627,167,159,158,160,156,35749,65535,3794,213,175,176,172,169,587,4917,220,191,183,182,183,186,5138,19088,501,329,306,306,307,309,1261,1265,34717,33354,10209,11058,1410,1273,1299,1302,15631,10855,16194,15010,1449,1322,811,2646,36307,37301,33531,35261,31001,18721,2300,6174,33535,36859,33607,34747,31979,48290
3823,31686,625,169,159,157,157,156,35948,65535,3763,216,180,175,169,168,590,4947,224,189,193,182,181,185,5163,19175,500,327,309,305,304,308,1265,1262,34771,33382,10223,11044,1403,1268,1306,1309,15643,10862,16211,14988,1442,1313,814,2660,36383,37380,33528,35053,30990,18685,2309,6221,33543,36935,33643,34704,31935,48076
3823,31465,625,174,159,159,156,156,34748,65535,3707,216,176,181,169,169,593,4901,219,190,182,183,182,178,5074,18651,493,329,306,305,303,306,1258,1256,34576,32999,10046,10703,1386,1257,1293,1294,15433,10653,16016,14682,1421,1296,818,2639,36146,36819,32622,33506,30865,18572,2269,5985,33452,36497,33218,33927,31719,47629
3815,31337,617,167,159,157,161,156,34413,65535,3651,216,179,175,167,169,590,4886,223,190,194,182,182,182,5037,18499,491,326,306,304,303,305,1247,1245,34457,32823,9961,10606,1382,1253,1278,1278,15342,10567,15933,14583,1414,1293,814,2618,35946,36512,32363,33198,30807,18540,2245,5877,33183,36185,33066,33739,31666,47535
3817,31331,622,168,160,156,157,159,34503,65535,3694,217,183,173,169,171,592,4886,220,191,182,182,188,175,5043,18515,491,329,306,305,305,309,1246,1243,34451,32821,9963,10627,1381,1255,1273,1274,15335,10559,15923,14592,1412,1293,811,2614,35894,36473,32427,33328,30799,18543,2241,5876,33112,36125,33069,33762,31683,47566
3818,31368,619,167,159,161,156,157,34699,65535,3678,216,181,171,170,167,591,4895,225,190,183,182,183,182,5065,18607,492,327,306,305,304,309,1245,1246,34497,32899,9995,10681,1385,1256,1274,1275,15359,10582,15959,14633,1415,1293,813,2620,35917,36549,32587,33549,30811,18544,2250,5909,33131,36194,33127,33855,31709,47618
3818,31337,622,167,162,155,156,160,34745,65535,3712,213,181,170,170,172,593,4909,219,188,180,183,184,178,5067,18595,492,327,307,305,304,308,1246,1250,34493,32888,10001,10670,1385,1255,1275,1275,15349,10571,15946,14611,1414,1294,814,2625,35913,36528,32543,33461,30802,18536,2248,5898,33181,36213,33123,33836,31692,47563
3817,31328,616,166,160,159,157,156,34713,65535,3677,216,181,173,169,173,595,4910,219,189,184,181,185,179,5064,18597,490,325,305,307,305,306,1246,1247,34493,32907,10001,10686,1384,1256,1273,1272,15349,10577,15947,14626,1413,1293,814,2626,35903,36529,32578,33571,30799,18540,2249,5893,33123,36170,33121,33865,31702,47613
3817,31358,623,165,160,158,156,156,34863,65535,3725,214,180,175,169,169,593,4919,219,193,182,182,184,183,5081,18674,493,326,306,305,306,306,1249,1248,34535,32987,10035,10751,1388,1258,1274,1276,15383,10611,15982,14683,1417,1295,814,2630,35930,36621,32743,33863,30834,18572,2253,5926,33157,36256,33172,33975,31738,47714
3824,31420,618,167,160,158,156,156,35067,65535,3709,218,181,175,170,169,594,4935,221,189,182,182,186,192,5104,18773,493,327,306,305,308,309,1249,1250,34587,33092,10083,10827,1393,1263,1278,1280,15433,10662,16030,14759,1423,1302,814,2638,36002,36767,32940,34197,30868,18600,2258,5973,33243,36385,33251,34141,31795,47833
3829,31497,623,168,160,158,156,157,35274,65535,3760,214,179,177,168,167,598,4953,223,191,183,186,175,181,5125,18886,499,327,308,306,305,309,1253,1257,34638,33189,10123,10899,1396,1264,1287,1286,15484,10711,16076,14834,1429,1307,815,2647,36081,36920,33121,34507,30909,18642,2269,6025,33307,36507,33345,34319,31843,47955
3835,31565,623,168,163,159,160,156,35461,65535,3737,214,179,174,169,169,599,4967,221,192,183,182,183,183,5143,18989,500,331,308,310,307,310,1257,1256,34703,33292,10161,10968,1402,1268,1287,1291,15543,10766,16123,14907,1436,1311,819,2660,36164,37084,33292,34819,30950,18678,2280,6071,33383,36663,33447,34510,31905,48103
3840,31653,627,171,160,162,157,157,35664,65535,3790,217,180,175,169,169,601,4989,225,190,186,188,187,185,5171,19111,502,333,309,307,309,307,1259,1259,34763,33408,10210,11046,1405,1272,1296,1295,15597,10831,16182,14995,1442,1314,815,2673,36262,37266,33487,35148,30997,18717,2289,6129,33490,36836,33570,34719,31965,48249
3847,31683,622,169,159,161,155,157,35755,65535,3748,213,179,171,171,169,603,5000,222,190,185,182,183,180,5173,19086,498,328,308,304,306,307,1261,1261,34761,33344,10195,10952,1395,1261,1300,1301,15567,10794,16148,14890,1429,1302,821,2689,36294,37221,33274,34552,30951,18650,2298,6137,33564,36879,33510,34485,31854,47902
3831,31400,622,167,159,161,160,159,34514,65535,3698,212,180,175,173,171,601,4949,224,190,183,181,186,182,5083,18599,495,328,306,305,306,310,1252,1250,34561,32972,10020,10659,1385,1253,1284,1281,15359,10595,15962,14626,1413,1290,821,2653,36008,36641,32456,33270,30839,18553,2253,5901,33325,36368,33115,33846,31685,47569
3824,31305,619,167,158,160,159,156,34371,65535,3656,218,179,171,168,172,599,4939,220,189,186,182,182,181,5061,18534,490,333,306,305,305,308,1244,1242,34482,32865,9968,10618,1382,1255,1272,1271,15307,10544,15913,14574,1409,1289,817,2633,35858,36441,32351,33168,30794,18531,2242,5841,33113,36143,33030,33750,31663,47526
3823,31300,624,168,158,158,158,156,34491,65535,3703,213,178,172,171,169,602,4942,219,196,184,181,183,182,5071,18575,492,326,306,304,304,306,1245,1245,34489,32899,9989,10662,1388,1257,1268,1272,15311,10553,15922,14606,1414,1291,815,2631,35826,36444,32455,33391,30798,18537,2239,5847,33063,36132,33049,33817,31687,47587
3824,31335,617,167,159,157,158,155,34713,65535,3682,214,179,177,171,168,600,4949,221,190,183,181,183,186,5091,18657,495,326,306,305,306,308,1251,1252,34531,32959,10022,10707,1391,1262,1278,1281,15341,10576,15947,14635,1420,1296,815,2637,35846,36504,32567,33512,30802,18542,2247,5884,33095,36198,33101,33886,31708,47597
3827,31316,621,165,162,157,159,159,34677,65535,3712,216,182,172,173,169,604,4956,222,187,181,183,185,181,5096,18623,494,326,307,306,305,311,1255,1254,34525,32938,10017,10691,1395,1262,1279,1282,15322,10563,15935,14612,1418,1297,814,2639,35824,36462,32505,33414,30794,18530,2241,5863,33137,36197,33081,33841,31683,47553
3826,31319,615,167,160,159,156,158,34692,65535,3684,214,179,173,174,167,603,4954,221,190,183,181,181,182,5097,18657,493,327,310,304,303,308,1256,1253,34529,32972,10027,10723,1394,1265,1279,1280,15334,10582,15949,14645,1420,1297,815,2633,35828,36484,32585,33585,30793,18542,2243,5872,33091,36185,33089,33900,31709,47623
3830,31382,622,169,161,159,159,156,34865,65535,3733,215,182,175,173,168,602,4962,222,190,184,184,186,182,5112,18743,496,330,307,305,306,307,1259,1255,34570,33061,10066,10787,1397,1265,1283,1282,15369,10621,15985,14707,1424,1299,813,2640,35859,36591,32760,33894,30826,18571,2247,5909,33133,36275,33143,34023,31739,47725
