 EMG Channel 
6336.67485
6348.454219
6352.56694
6348.320108
6340.720515
6345.257919
6351.337594
6354.332728
6337.144236
6341.793399
6354.10921
6354.735059
6339.669983
6342.128675
6355.785591
6356.590254
6353.125734
6346.487265
6353.416306
6357.171399
6346.509617
6346.442562
6358.914835
6363.921626
6344.207387
6344.073277
6354.556245
6359.384222
6349.862379
6346.599024
6350.667042
6357.081992
6353.505713
6353.125734
6352.05285
6356.769068
6354.533893
6341.838103
6347.850722
6350.845856
6353.818638
6351.047021
6348.610681
6350.801152
6355.629129
6345.190864
6330.885748
6343.223911
6344.252091
6331.153969
6324.336687
6332.83035
6335.803132
6332.629184
6324.493149
6335.26669
6343.514483
6335.579614
6328.158835
6331.5563
6335.199634
6334.909062
6331.712762
6330.841044
6337.524216
6349.482399
6329.432884
6333.925585
6341.346364
6343.559187
6338.485341
6330.125788
6345.168512
6345.90612
6339.11119
6336.42898
6337.859492
6346.062582
6341.100495
6329.49994
6329.589347
6343.112152
6343.447428
6331.109265
6345.123809
6343.827408
6337.412457
6329.276422
6334.7526
6349.37064
6354.288024
6344.743829
6339.826446
6344.36385
6343.581539
6340.295832
6334.394972
6344.296794
6346.464914
6340.675812
6331.310431
6341.882806
6345.347326
6336.29487
6331.93628
6337.546568
6339.669983
6343.201559
6326.348344
6332.495073
6350.957614
6344.341498
6330.103437
6335.758428
6342.978042
6346.554321
6328.047076
6322.392085
6334.88671
6341.726344
6339.222948
6333.031515
6340.899329
0.0
5867.645844
5869.121059
5861.879094
5858.816905
5869.344577
5877.681777
5862.59435
5853.340727
5865.589483
5873.457297
5861.789687
5863.331957
5867.98112
5875.066623
5868.025824
5865.187152
5865.790649
5872.406766
5868.606969
5861.588521
5870.149239
5868.070527
5864.337786
5861.365004
5862.683757
5870.037481
5870.708033
5859.26394
5861.946149
5873.345539
5871.423289
5860.515637
5861.365004
5866.125925
5870.663329
5861.208542
5858.928664
5868.204638
5875.088975
5863.533123
5854.52537
5864.583655
5866.461201
5868.942245
5858.794553
5865.075393
5873.837277
5866.148277
5855.911178
5854.01128
5865.075393
5867.802306
5859.040422
5862.639053
5869.702204
5870.372757
5866.885885
5861.499114
5871.982082
5872.518524
5865.120097
5873.636111
5870.372757
5875.67012
5874.038443
5869.322225
5872.987911
5879.939303
5874.485478
5863.734289
5866.081222
5877.033577
5871.803268
5867.98112
5865.947111
5879.782841
5873.23378
5859.889789
5855.754716
5867.422326
5878.754661
5864.5166
5860.225065
5866.57296
5868.49521
5863.331957
5854.972405
5868.316396
5881.168649
5875.424251
5856.514675
5850.792629
5853.944225
5851.217312
5832.218329
5839.169722
5853.363079
5850.68087
5842.0978
5841.427248
5846.299928
5841.539006
5837.918024
5836.46516
5846.188169
5846.679908
5843.774181
5839.952033
5844.02005
5850.099725
5839.639108
5836.576919
5845.249396
5849.429172
5837.761562
5830.273727
5840.443771
5848.579806
5842.343669
5835.995774
5836.308698
5848.311585
5839.549701
5827.457407
5831.257204
5843.237739
5839.683812
5829.938451
5828.865567
5843.215387
5844.176512
5834.632317
5835.526387
5850.524408
5852.178437
5843.729477
5843.103629
5843.774181
5850.278538
5844.802361
5827.680925
5831.97246
5842.120152
5842.567187
5826.473931
5829.714934
5841.248434
5842.433076
5830.161968
5822.160044
5830.474893
5835.973422
5825.110474
5828.351477
5836.822788
5840.600233
5823.635259
5828.709105
5836.286346
5835.504035
5826.228061
5831.033687
5831.704239
5834.967594
5840.443771
5837.694506
5832.240681
5844.511788
5840.756695
5833.961765
5844.109457
5845.56232
5831.637184
5837.985079
5834.677021
5835.526387
5830.273727
5822.674134
5830.072562
5842.209559
5841.427248
5829.312602
5819.120207
5842.768352
5840.846102
5827.166835
5820.43896
5836.532216
5851.70905
5839.437942
5821.869471
5826.071599
5843.193036
5847.171646
5835.95107
5829.938451
5837.403934
5840.399067
5847.86455
5841.449599
5841.091972
5848.333937
5846.948129
5840.779047
5852.625472
5856.224103
5854.167742
5838.141541
5857.073469
5871.088013
5850.747925
5849.607986
5863.801344
5863.734289
5862.102611
5852.334899
5860.314472
5873.524353
5871.043309
5857.453448
5858.928664
5879.51462
5873.278484
5863.019033
5861.454411
5869.098707
5876.027748
5865.701242
5852.714879
5870.395109
5874.977216
5867.98112
5864.00251
5869.724556
5873.949036
5867.869361
5862.706108
5866.930588
5874.351367
5870.842143
5866.036518
5870.260998
5879.313455
5873.636111
5864.918931
5872.295007
5881.682739
5871.624454
5861.119135
5859.174533
5872.138545
5877.97235
5868.338748
5861.655576
5867.84701
5873.636111
5868.49521
5861.543818
5871.847972
5880.811021
5869.635149
5863.399012
5869.858667
5873.457297
5863.890751
5861.499114
5865.656539
5868.070527
5869.054004
5865.298911
5858.973367
5868.159934
5869.188114
5859.174533
5867.243513
5878.307626
5878.48644
5875.111327
5868.472858
5870.819792
5879.425213
5867.668196
5854.793591
5849.898559
5856.604082
5843.841236
5826.406875
5832.039515
5837.761562
5832.173625
5820.416608
5825.736323
5832.598309
5833.89471
5825.557509
5828.217367
5837.828617
5839.482646
5821.824768
5822.607079
5829.200843
5837.091009
5829.312602
5823.00941
5828.731457
5829.357306
5833.134751
5830.027858
5827.077428
5833.850006
5831.167797
5829.737285
5825.401047
5830.765466
5828.195015
5813.956954
5822.428265
5832.86653
5833.246509
5824.551681
5825.512806
5834.431152
5835.526387
5830.631355
5825.624564
5830.05021
5830.899576
5828.26207
5825.378695
5836.576919
5843.908291
5837.985079
5828.351477
5834.386448
5838.007431
5831.2125
5818.874338
5821.84712
5828.709105
5826.004544
5814.314582
5816.639163
5828.686753
5827.882091
5819.142558
5819.92487
5828.329125
5826.742152
5818.919041
5821.534195
5830.161968
5827.926794
5816.795625
5808.480776
5813.554622
5813.822843
5808.436073
5797.707236
5801.954067
5805.306829
5804.993904
5789.973532
5792.991017
5803.116358
5801.328218
5796.030855
5793.66157
5796.008503
5803.27282
5788.364206
5795.650875
5808.704294
5812.057055
5797.729587
5790.84525
5803.608096
5794.265067
5799.361265
5802.266991
5811.654724
5814.828672
5805.016256
5792.700445
5800.300038
5805.262125
5800.769425
5792.052244
5797.595477
5805.016256
5798.936581
5785.525535
5789.258276
5810.425378
5798.467195
5788.833593
5790.599381
5806.469119
5806.692637
5795.181488
5793.370997
5800.121224
5803.719855
5797.729587
5794.510936
5795.71793
5805.463291
5796.343779
5795.829689
5800.367093
5810.06775
5807.072616
5798.735416
5799.383616
5808.681942
5807.072616
5792.7675
5788.699483
5799.204802
5793.326294
5801.685846
5805.440939
5811.833538
5813.889899
5808.1455
5812.213518
5816.750922
5823.90348
5815.610983
5808.90546
5818.404951
5831.033687
5821.757713
5811.140634
5822.182396
5823.143521
5821.265974
5809.911288
5812.928774
5816.974439
5813.733436
5807.810224
5806.692637
5815.231003
5817.466178
5806.804396
5805.865622
5817.600288
5819.768407
5822.204747
5816.393294
5819.299021
5826.138654
5816.862681
5815.432169
5817.600288
5826.049248
5811.252393
5827.658573
5819.410779
5827.122131
5815.454521
5817.309715
5819.477835
5809.732474
5806.290305
5809.084273
5805.999733
5820.148387
5821.511843
5811.162986
5806.446768
5814.67221
5820.103683
5810.626544
5805.038608
5815.432169
5816.125073
5807.787872
5805.239773
5813.956954
5817.846157
5810.380675
5796.679055
5813.196994
5824.171701
5816.616811
5809.486605
5810.537137
5819.835463
5815.678038
5808.458425
5803.630448
5814.716913
5817.153253
5804.524518
5804.122186
5817.846157
5822.204747
5805.999733
5803.384579
5804.748035
5817.890861
5815.007486
5807.229079
5811.945297
5823.165872
5810.090102
5803.161061
5805.686808
5816.840329
5816.907384
5804.524518
5811.319448
5827.658573
5830.720762
5799.763596
5795.472061
5796.120262
5788.855945
5771.421584
5764.112564
5767.711194
5769.298168
5756.580026
5740.777342
5747.125238
5737.134008
5713.597621
5708.099092
5706.802691
5721.487787
5719.677296
5706.489766
5710.200156
5722.650078
5717.710342
5707.04856
5710.043694
5717.486825
5720.861938
5708.121444
5710.736598
5716.704514
5720.996049
5709.99899
5706.936801
5715.721037
5718.850281
5710.267211
5706.333304
5714.35758
5719.99022
5713.575269
5709.082569
5716.503348
5728.215662
5719.029095
5710.602487
5711.205984
5722.068932
5719.632592
5710.066046
5714.692857
5724.974659
5719.543185
5709.440197
5709.753121
5719.09615
5719.185557
5712.077703
5711.78713
5718.671467
5718.403246
5712.480034
5702.622915
5709.820176
5715.586926
5715.989258
5713.351752
5714.08936
5714.60345
5718.827929
5716.369237
5706.333304
5729.646174
5719.051447
5704.142833
5703.20406
5709.730769
5707.04856
5699.113691
5698.286676
5704.634572
5706.959153
5702.846432
5700.164223
5714.849319
5719.498482
5704.74633
5699.784243
5711.518909
5722.761836
5703.852261
5695.984447
5702.757025
5711.965944
5704.187537
5694.509231
5700.186574
5705.372179
5707.205022
5699.784243
5699.784243
5709.283734
5713.083531
5699.516022
5695.760929
5707.830871
5712.30122
5699.538374
5696.722054
5706.959153
5710.982467
5703.315819
5695.939743
5704.321647
5712.032999
5708.926107
5705.305124
5711.250688
5717.352714
5712.524737
5709.306086
5709.641362
5716.324534
5712.904717
5707.830871
5710.021342
5717.978563
5717.509176
5714.178767
5701.862955
5711.474205
5712.368275
5707.853223
5704.947496
5710.334266
5714.514043
5710.691894
5699.851298
5705.707455
5706.892098
5710.89306
5703.740502
5705.841566
5707.227374
5705.930973
5701.617086
5701.773548
5718.246784
5711.116578
5702.131176
5695.269191
5712.591793
5712.077703
5709.015514
5704.478109
5709.641362
5706.53447
5700.186574
5701.013589
5704.321647
5707.540298
5706.422711
5693.682217
5706.065083
5714.268173
5709.708418
5693.682217
5704.254592
5712.703551
5708.45672
5698.621952
5701.862955
5712.480034
5715.63163
5700.454795
5701.460624
5714.134063
5708.389665
5697.660827
5692.810499
5700.38774
5711.742426
5705.6404
5704.835737
5713.307048
5720.50431
5705.372179
5697.43731
5712.792958
5723.745313
5710.423673
5692.743444
5703.20406
5728.215662
5731.702534
5726.047543
5735.077648
5751.997918
5755.86477
5751.886159
5748.622805
5756.490619
5758.189351
5752.243787
5747.2817
5754.546017
5760.558636
5749.829799
5744.554787
5758.636386
5764.269026
5761.206837
5745.135933
5753.94252
5772.472116
5766.459497
5764.604302
5766.012462
5765.006633
5763.374956
5753.719002
5750.969738
5772.583875
5761.408003
5750.522703
5749.360412
5752.802581
5758.234055
5760.983319
5753.473133
5755.708308
5760.938616
5758.837552
5748.913377
5751.819104
5759.396346
5759.619863
5752.132029
5750.142723
5763.196142
5760.692747
5752.355546
5749.919206
5762.883218
5764.716061
5749.695688
5744.778305
5759.19518
5757.451744
5757.094116
5752.601415
5763.017328
5767.130049
5755.261273
5754.546017
5762.078555
5761.095078
5760.893912
5754.166037
5757.295282
5760.312767
5757.78702
5746.231168
5751.014441
5763.821991
5750.701517
5752.757877
5754.83659
5757.675261
5759.530456
5744.912415
5753.137857
5758.636386
5752.087325
5747.236997
5746.208816
5744.934767
5756.937654
5765.788944
5769.454631
5778.641198
5790.867602
5796.612
5791.605209
5808.860756
5821.46714
5827.435056
5824.484625
5831.346611
5847.35046
5851.262015
5840.242605
5852.714879
5870.819792
5870.551571
5857.386393
5865.589483
5868.942245
5868.919893
5859.308643
5857.520504
5868.49521
5866.371795
5865.254207
5857.542855
5864.583655
5867.757603
5864.382489
5859.330995
5865.723594
5869.322225
5867.154106
5870.79744
5863.287254
5870.395109
5874.083146
5856.984062
5861.70028
5876.474783
5878.374681
5861.588521
5862.706108
5872.674986
5868.808135
5863.801344
5858.436925
5874.418423
5871.17742
5860.582693
5858.794553
5866.036518
5873.502001
5864.851876
5858.973367
5862.795515
5873.077318
5878.397033
5865.969463
5869.635149
5873.859629
5874.843106
5866.505905
5869.568094
5881.973312
5870.506867
5861.901446
5868.048175
5866.125925
5872.473821
5861.365004
5860.985024
5870.149239
5871.82562
5856.917007
5858.816905
5872.33971
5874.351367
5862.057908
5864.248379
5869.881018
5867.310568
5862.795515
5858.88396
5868.539914
5876.18421
5859.934492
5855.844123
5858.772201
5867.779954
5873.770222
5861.499114
5862.013204
5868.159934
5873.390242
5862.527294
5860.537989
5871.982082
5870.551571
5864.471896
5859.085126
5869.612797
5873.904332
5865.745946
5855.330033
5858.995719
5877.927646
5873.278484
5854.65948
5857.028765
5876.854763
5866.95294
5859.196885
5861.052079
5870.41746
5871.199771
5863.220199
5865.813001
5869.277521
5860.917969
5855.888826
5852.111382
5869.545742
5876.318321
5864.918931
5856.246454
5861.499114
5873.658463
5870.395109
5853.787762
5858.995719
5870.439812
5864.226027
5859.621568
5868.584617
5874.194905
5880.27458
5876.631245
5885.750757
5896.367836
5901.55344
5894.557344
5886.734234
5900.413501
5902.805138
5900.212336
5889.416443
5895.876097
5903.85567
5896.412539
5887.96358
5892.992722
5897.217202
5893.35035
5877.704129
5890.91401
5902.179289
5891.450452
5883.806155
5889.394091
5903.453339
5897.150147
5882.755623
5884.275542
5896.032559
5896.010208
5886.55542
5883.023844
5886.935399
5890.846955
5878.553495
5879.112289
5893.484461
5891.830431
5886.242495
5878.48644
5884.342597
5895.026731
5884.63317
5877.570018
5886.242495
5894.870269
5886.980103
5876.497135
5887.382434
5897.530126
5890.489327
5882.733271
5884.744928
5898.200679
5892.433929
5883.470879
5884.230838
5893.283295
5896.30078
5892.724501
5888.030635
5894.311475
5896.81487
5891.316341
5887.091862
5894.110309
5902.514565
5892.679798
5886.868344
5889.081167
5893.752681
5893.015074
5891.29399
5890.958713
5900.324094
5898.647713
5892.433929
5898.513603
5907.253135
5899.787652
5880.319283
5869.881018
5874.172553
5867.712899
5850.569111
5839.572053
5842.030745
5844.377678
5826.920966
5814.828672
5806.513823
5810.44773
5798.064863
5786.464308
5790.934657
5805.955029
5801.127052
5788.923
5793.460404
5803.697503
5804.770387
5797.059035
5797.282552
5801.194108
5801.708198
5798.333084
5789.705311
5798.064863
5801.261163
5793.885087
5792.164003
5800.210631
5807.139672
5793.952142
5793.505108
5800.031817
5809.240736
5805.664457
5796.924924
5807.363189
5813.174643
5806.491471
5796.835518
5799.003637
5805.731512
5800.568259
5792.029892
5793.14748
5801.48468
5806.692637
5797.416663
5792.722797
5806.893803
5804.591573
5798.869526
5793.572163
5805.440939
5801.462329
5795.606172
5789.235924
5796.947276
5804.837442
5802.155233
5783.80445
5783.089195
5784.095023
5775.780174
5762.458535
5756.870598
5753.383726
5746.097058
5731.9037
5727.768627
5743.616014
5741.470246
5726.78515
5730.182616
5734.272985
5738.788037
5736.977546
5730.093209
5734.094171
5744.487732
5735.792903
5728.215662
5728.282717
5733.758895
5736.463456
5731.233148
5736.575214
5740.509121
5736.821084
5730.62965
5732.149569
5738.631575
5738.005726
5734.138874
5738.408057
5745.448857
5746.544092
5736.619918
5724.326458
5744.890063
5748.064011
5736.329345
5730.562595
5734.004764
5741.51495
5738.229244
5728.617993
5731.121389
5742.766648
5739.503293
5735.7482
5739.659755
5747.885197
5747.169941
5737.826912
5742.252558
5753.696651
5751.752049
5735.077648
5731.479017
5740.196197
5737.80456
5727.455703
5724.237052
5734.809427
5741.961985
5732.79777
5725.980488
5726.449874
5730.249671
5727.388647
5723.030057
5727.902738
5736.329345
5728.349772
5718.403246
5724.393514
5735.055296
5728.617993
5722.337153
5721.331325
5732.171921
5734.317688
5725.689915
5724.304107
5734.272985
5741.961985
5726.427522
5720.414903
5731.858996
5731.613127
5721.130159
5720.951345
5728.685049
5738.69863
5731.255499
5723.968831
5727.098075
5738.206892
5733.289508
5721.957174
5724.706438
5737.469284
5732.5519
5722.627726
5722.247746
5732.261328
5732.641307
5719.520833
5716.056313
5732.238976
5734.608261
5725.019363
5717.866804
5726.025191
5733.535377
5722.29245
5716.905679
5729.802636
5736.843435
5731.210796
5721.800711
5725.220528
5735.189406
5734.094171
5727.187482
5729.310898
5737.178712
5736.999898
5721.688953
5719.073799
5732.641307
5735.099999
5723.097113
5715.452816
5726.181653
5730.070857
5723.030057
5720.303144
5730.227319
5731.814293
5726.65104
5719.699647
5722.180691
5718.783226
5714.692857
5723.924127
5741.13497
5757.831723
5758.68109
5762.52559
5770.639273
5792.275762
5795.829689
5789.414738
5802.222288
5818.472006
5828.351477
5832.508902
5832.844178
5843.908291
5853.072507
5840.711992
5838.655631
5845.338803
5855.061812
5849.183303
5842.500131
5848.222178
5857.654614
5845.629376
5839.125018
5840.466123
5854.503018
5849.943262
5844.02005
5841.047268
5849.65269
5849.920911
5840.533178
5840.086143
5846.32228
5850.010318
5843.707126
5844.623547
5853.340727
5851.105553
5846.679908
5844.601195
5850.479704
5850.144428
5841.494303
5837.918024
5837.761562
5850.949091
5843.818884
5835.571091
5841.784876
5850.010318
5853.452486
5837.113361
5835.749905
5848.691565
5852.178437
5832.084219
5832.553605
5849.630338
5847.752791
5838.990908
5832.330088
5843.014222
5852.826637
5840.980213
5841.494303
5855.620605
5856.179399
5837.515692
5821.713009
5827.278593
5824.216404
5822.741189
5807.363189
5800.925887
5818.114378
5808.927811
5799.42832
5798.243677
5809.687771
5815.052189
5798.981285
5799.651837
5808.950163
5814.225175
5800.389445
5791.649913
5808.90546
5810.984172
5797.751939
5799.964762
5807.25143
5811.85589
5812.74996
5793.66157
5799.473023
5813.91225
5815.722742
5810.715951
5814.538099
5817.019143
5812.347628
5796.164965
5800.590611
5808.033741
5807.921983
5805.664457
5803.630448
5817.913213
5810.358323
5796.813166
5798.578954
5813.465215
5809.821881
5799.361265
5794.130956
5802.37875
5799.741244
5794.332122
5800.434148
5810.738303
5825.110474
5824.775198
5818.27084
5831.257204
5851.932568
5853.385431
5842.61189
5843.796533
5850.658518
5855.017108
5845.9423
5845.182341
5846.948129
5849.362117
5838.566224
5842.880111
5849.719745
5854.860646
5856.760544
5844.221216
5847.86455
5854.458315
5844.891768
5838.342707
5846.903425
5853.698355
5849.317413
5846.121114
5844.891768
5842.746001
5847.73044
5840.30966
5850.256187
5855.330033
5848.043364
5844.332974
5838.588576
5851.820809
5855.642957
5845.361155
5841.360192
5843.751829
5855.844123
5856.022937
5845.204693
5845.070582
5858.526332
5845.741134
5842.209559
5850.926739
5855.240626
5856.000585
5846.925777
5841.449599
5857.252283
5855.575902
5843.103629
5843.662422
5857.453448
5858.459277
5842.053097
5840.376716
5851.373774
5854.301853
5847.909254
5842.276614
5851.619643
5867.042347
5855.799419
5837.895672
5842.99187
5849.496227
5838.655631
5827.591518
5819.880166
5826.965669
5824.439922
5809.03957
5810.537137
5817.399122
5824.618736
5817.10855
5812.973477
5817.309715
5820.215442
5813.532271
5809.084273
5825.289288
5825.468102
5815.543928
5808.033741
5815.499224
5819.187262
5820.95305
5813.196994
5816.996791
5824.663439
5816.013314
5805.128015
5811.945297
5821.377733
5814.80632
5804.748035
5808.860756
5812.906422
5814.985134
5802.669323
5805.128015
5818.583765
5816.862681
5808.637239
5803.339875
5809.821881
5816.192128
5811.09593
5804.010427
5806.826747
5812.146462
5808.257259
5807.162023
5813.39816
5817.801454
5814.605154
5810.58184
5813.822843
5820.57307
5815.387465
5805.463291
5811.051227
5816.750922
5816.59446
5812.235869
5808.413721
5819.075503
5818.248489
5810.268916
5803.473986
5813.286401
5816.862681
5811.3418
5807.229079
5813.845195
5821.198919
5810.157157
5802.110529
5813.599326
5818.874338
5816.192128
5804.569221
5808.346666
5814.336933
5809.710122
5803.6528
5809.441901
5815.8345
5810.58184
5805.619753
5803.228116
5818.829634
5826.473931
5812.995829
5803.004599
5814.29223
5821.042457
5807.899631
5800.188279
5799.696541
5810.201861
5802.199936
5794.734454
5800.590611
5811.3418
5808.681942
5798.288381
5802.088177
5814.113416
5810.693599
5799.830651
5800.97059
5809.084273
5805.70916
5795.941448
5798.243677
5808.324314
5806.580878
5794.108605
5797.528422
5799.584782
5797.953105
5794.17566
5808.52548
5811.274744
5822.271803
5824.328163
5819.679
5837.314527
5852.334899
5849.317413
5836.822788
5844.601195
5852.714879
5846.724611
5840.443771
5838.342707
5846.724611
5845.785838
5846.523445
5847.059887
5844.511788
5851.150257
5851.619643
5843.88594
5852.960748
5850.837332
5843.036573
5841.71782
5850.792629
5856.31351
5846.948129
5845.294099
5853.005451
5862.21437
5855.866475
5841.516655
5849.473876
5859.085126
5856.44762
5847.193998
5842.61189
5853.340727
5858.794553
5846.679908
5846.635204
5859.979196
5861.432059
5850.68087
5838.722687
5846.791666
5856.402916
5854.346556
5844.243567
5844.712954
5850.81498
5857.565207
5855.665309
5861.70028
5877.748832
5871.892675
5867.534085
5876.407728
5885.259019
5888.656484
5883.850859
5884.074376
5891.539859
5883.046196
5876.206562
5875.357196
5885.929571
5890.39992
5889.036463
5876.877114
5884.566114
5893.909144
5883.001492
5874.798402
5882.442699
5888.500022
5883.783803
5875.960693
5878.195867
5890.53403
5890.221106
5881.570981
5881.235705
5887.382434
5886.376606
5874.686643
5877.681777
5890.91401
5884.923742
5880.207524
5876.18421
5887.136565
5887.091862
5881.548629
5876.474783
5882.33094
5887.96358
5877.748832
5871.333882
5880.051062
5880.945132
5872.33971
5864.65071
5875.357196
5892.679798
5892.925667
5887.248324
5894.087958
5903.676856
5918.227842
5912.908126
5909.085978
5916.350295
5923.860481
5913.243403
5913.578679
5920.463016
5918.652525
5912.975182
5910.494138
5922.362914
5929.336659
5914.472749
5910.561193
5920.328906
5927.056781
5924.374571
5909.443606
5921.290031
5928.174368
5923.793426
5910.672952
5907.476653
5922.519377
5918.987801
5911.991705
5913.288106
5922.742894
5927.928499
5921.960583
5910.740007
5926.520339
5934.589319
5925.51451
5922.519377
5920.910051
5924.039295
5919.457188
5916.439702
5917.981972
5926.497987
5921.848824
5910.51649
5912.304629
5924.754551
5922.072342
5910.047103
5908.907164
5918.540766
5922.139397
5908.817757
5915.702095
5928.219071
5934.209339
5922.206452
5916.305592
5934.812836
5941.674822
5935.595147
5931.884758
5939.394944
5943.820589
5936.265699
5927.906147
5936.757438
5945.251101
5943.217092
5928.800217
5931.638888
5947.508627
5946.14517
5932.622365
5933.695249
5948.805028
5948.06742
5934.656374
5933.628194
5938.120894
5940.221958
5930.454246
5921.446493
5929.113141
5940.110199
5932.197682
5927.347353
5934.678726
5941.317194
5937.785618
5938.031487
5940.020792
5934.343449
5926.073304
5908.326019
5896.121966
5898.424196
5886.466013
5870.149239
5861.566169
5863.264902
5854.078335
5836.196939
5824.618736
5823.456445
5820.371904
5807.989038
5801.641143
5807.296134
5815.342762
5810.403026
5801.931715
5801.887012
5809.084273
5806.022084
5794.242715
5805.999733
5814.113416
5812.995829
5803.116358
5803.384579
5811.833538
5804.770387
5795.71793
5799.450672
5812.548794
5814.560451
5795.494413
5796.209669
5807.25143
5809.531308
5801.909363
5803.6528
5808.838404
5814.225175
5806.469119
5797.304904
5803.071654
5811.185337
5804.502166
5796.924924
5806.379712
5813.711085
5816.661515
5800.545907
5802.803433
5813.822843
5809.397198
5798.243677
5791.918134
5808.547832
5812.280573
5800.367093
5796.835518
5807.810224
5812.101759
5802.24464
5794.332122
5805.619753
5807.340837
5799.920058
5798.735416
5806.267954
5806.245602
5792.25341
5783.312712
5785.547887
5787.425433
5787.425433
5778.082404
5772.717985
5787.157212
5791.694616
5783.759747
5780.965779
5790.308808
5791.87343
5785.681997
5778.574142
5786.129032
5798.578954
5788.453613
5782.26218
5790.957009
5798.467195
5783.268009
5777.545962
5788.274799
5798.064863
5798.243677
5778.954122
5784.899686
5792.208706
5788.40891
5775.131974
5775.824878
5799.249506
5807.184375
5798.02016
5793.393349
5802.356398
5800.747073
5782.306884
5783.647988
5793.035721
5805.239773
5787.626599
5782.105718
5793.013369
5793.750977
5786.62077
5771.600398
5779.289398
5804.658628
5806.08914
5793.035721
5799.741244
5825.088122
5830.385486
5808.592535
5816.974439
5830.363134
5829.916099
5813.331105
5814.403989
5823.054114
5820.997753
5818.628468
5818.51671
5823.456445
5827.725628
5820.483663
5816.236832
5818.047323
5831.883053
5824.015239
5814.113416
5816.21448
5826.250413
5825.021067
5812.817015
5817.510881
5828.530291
5823.277631
5810.760654
5811.632372
5824.618736
5828.463236
5813.711085
5811.542965
5829.133788
5830.810169
5827.479759
5814.627506
5815.387465
5825.512806
5820.081332
5817.309715
5824.909309
5829.714934
5826.563338
5819.634297
5823.121169
5830.541948
5821.333029
5816.080369
5821.042457
5831.59248
5827.703277
5821.109512
5817.086198
5830.296079
5830.877224
5818.51671
5818.337896
5826.7198
5830.586652
5823.456445
5817.466178
5825.937489
5834.54291
5826.138654
5818.583765
5829.804341
5834.185282
5823.501149
5817.913213
5821.221271
5828.709105
5828.12796
5821.690657
5823.255279
5831.815998
5831.167797
5818.27084
5818.851986
5831.726591
5827.993849
5819.0308
5816.639163
5825.333992
5828.418532
5816.415646
5817.75675
5816.393294
5814.761617
5810.090102
5807.25143
5819.0308
5820.371904
5811.85589
5802.155233
5811.498262
5819.16491
5814.158119
5806.536175
5811.47591
5823.612907
5816.326239
5805.463291
5806.133843
5816.952088
5820.304849
5811.699428
5807.854928
5816.393294
5820.930698
5813.375808
5803.719855
5819.813111
5824.618736
5811.967649
5806.357361
5812.280573
5822.204747
5818.069675
5810.134805
5809.374846
5820.43896
5819.857814
5813.26405
5820.684829
5823.344686
5816.281535
5806.446768
5810.805358
5823.00941
5824.328163
5813.196994
5813.353457
5821.578899
5820.260146
5817.421474
5816.974439
5823.791721
5833.89471
5824.79755
5821.891823
5822.8753
5830.385486
5820.081332
5799.94241
5800.32239
5808.1455
5801.954067
5789.772366
5795.047378
5803.317523
5796.790814
5790.487622
5790.97936
5803.585744
5804.993904
5792.208706
5791.247581
5802.89284
5809.978343
5797.461366
5787.090157
5795.874392
5802.021122
5799.137747
5794.779157
5800.724721
5806.245602
5799.853003
5796.768462
5800.32239
5804.636276
5796.857869
5790.264105
5797.170794
5801.216459
5796.008503
5792.543983
5787.291323
5805.016256
5811.3418
5796.880221
5797.394311
5804.658628
5801.238811
5793.169831
5803.988076
5820.684829
5830.497245
5828.172663
5826.138654
5842.947166
5857.140524
5858.727498
5853.832466
5850.725573
5861.722632
5869.724556
5855.061812
5855.978233
5862.303777
5866.863533
5856.849951
5854.704184
5864.315434
5866.95294
5863.019033
5854.793591
5861.767335
5862.951978
5856.939358
5855.93353
5862.236722
5867.154106
5864.963635
5847.596329
5857.721669
5865.276559
5863.778992
5854.681832
5855.866475
5866.774126
5865.1648
5857.431097
5852.960748
5865.053042
5868.986949
5856.849951
5859.040422
5870.976254
5870.842143
5865.902408
5858.146353
5863.287254
5863.957806
5857.095821
5860.046251
5874.12785
5879.760489
5882.576809
5877.547667
5887.762414
5904.146243
5907.901336
5906.716693
5906.917859
5913.690438
5914.651563
5903.676856
5904.23565
5916.015019
5918.987801
5910.896469
5910.605897
5921.267679
5923.815778
5914.36099
5914.606859
5918.898394
5919.74776
5917.222013
5909.957696
5918.652525
5924.419275
5923.681667
5913.735141
5910.158862
5920.12774
5921.111217
5915.545632
5915.702095
5920.463016
5921.222975
5915.880908
5918.652525
5923.413446
5921.804121
5912.95283
5906.202603
5918.920746
5921.312382
5913.533975
5909.153033
5918.138435
5922.921708
5914.36099
5909.644772
5917.333772
5924.016943
5924.48633
5907.275487
5918.965449
5935.863368
5925.849787
5908.862461
5906.850804
5912.930478
5904.995609
5888.47767
5876.765356
5868.651672
5863.24255
5841.807227
5835.325221
5845.517617
5843.215387
5837.582748
5834.475855
5847.529274
5848.848027
5836.152236
5837.292175
5838.990908
5843.438905
5838.365059
5833.89471
5836.196939
5842.008393
5847.149294
5831.704239
5835.861663
5849.429172
5848.959786
5834.833483
5836.420457
5846.568149
5845.338803
5837.403934
5833.224157
5840.443771
5842.388373
5836.688678
5836.643974
5837.627451
5844.221216
5835.280518
5832.665364
5840.130847
5850.367945
5842.164855
5832.397143
5836.263995
5848.266881
5848.155123
5835.213463
5839.013259
5851.284367
5854.167742
5844.355326
5844.243567
5847.752791
5853.832466
5851.887864
5846.791666
5845.227044
5848.24453
5835.593442
5821.735361
5822.428265
5823.612907
5824.842253
5816.34859
5813.331105
5825.132826
5817.75675
5813.152291
5809.374846
5826.116303
5817.913213
5808.771349
5816.393294
5821.556547
5820.885995
5809.598364
5812.258221
5823.165872
5826.362172
5819.92487
5813.867547
5822.629431
5826.362172
5824.819902
5818.092026
5820.818939
5833.045344
5823.5235
5811.09593
5816.125073
5831.145445
5818.717875
5805.731512
5800.702369
5827.815035
5838.789742
5835.973422
5835.995774
5851.463181
5867.064699
5867.131754
5871.736213
5888.790594
5896.747815
5891.495155
5887.158917
5895.496118
5899.430025
5887.673007
5879.358158
5889.952885
5901.084054
5894.982027
5887.427138
5891.875135
5900.234687
5888.276504
5885.14726
5891.450452
5897.105443
5895.920801
5887.71771
5882.554457
5896.859574
5897.775995
5885.728405
5887.091862
5890.779899
5895.920801
5886.398958
5884.76728
5895.809042
5903.006304
5896.591353
5892.165708
5895.205545
5900.301743
5895.876097
5887.695359
5890.53403
5899.787652
5894.982027
5880.162821
5871.847972
5901.687551
5918.294897
5916.104426
5910.51649
5926.833263
5930.856577
5923.882833
5926.453284
5939.774923
5947.396868
5936.332755
5932.421199
5944.6029
5954.21415
5944.692307
5936.77979
5949.967319
5954.437668
5946.01106
5938.098542
5941.451304
5955.979938
5951.151961
5942.255967
5946.569854
5955.24233
5944.357031
5939.35024
5939.283185
5947.128647
5939.797275
5939.596109
5939.126723
5943.440609
5948.872083
5937.852673
5936.288051
5940.311365
5947.374516
5939.327888
5935.148112
5937.696211
5946.279281
5944.267624
5929.873101
5925.983897
5939.171426
5945.988708
5939.640813
5936.176292
5946.189874
5943.105333
5931.728295
5932.242385
5944.245272
5942.434781
5935.103409
5932.421199
5943.865293
5945.742839
5936.757438
5937.04801
5940.221958
5944.133513
5936.9139
5926.162711
5935.751609
5945.944005
5940.892511
5935.036353
5936.153941
5944.267624
5949.609691
5929.180196
5932.085923
5941.540711
5941.473656
5933.404676
5928.643755
5941.071324
5944.289976
5937.830322
5939.551406
5941.808932
5941.920691
5936.936252
5928.666106
5935.908072
5948.268586
5946.681612
5923.256984
5923.748723
5930.409542
5921.424141
5898.871231
5890.712844
5897.485423
5878.508792
5860.761507
5861.946149
5864.963635
5861.387355
5848.177475
5841.248434
5850.367945
5857.811076
5849.317413
5850.81498
5857.453448
5859.174533
5844.668251
5837.068658
5851.507884
5860.828562
5852.536065
5850.949091
5848.266881
5853.184265
5858.347518
5849.965614
5848.579806
5852.22314
5853.273672
5838.454466
5832.62066
5856.604082
5859.710975
5843.327146
5839.773219
5846.389335
5855.866475
5840.667288
5833.00064
5858.436925
5874.172553
5864.091917
5851.664347
5868.718728
5889.215277
5886.153088
5864.449544
5878.821716
5889.930533
5897.418368
5884.342597
5889.818774
5899.474728
5887.874173
5881.615684
5891.80808
5897.887754
5894.087958
5884.409652
5880.900428
5895.943152
5902.626324
5890.623437
5875.446603
5888.812946
5891.651617
5876.318321
5879.268751
5888.880001
5898.08892
5888.99176
5882.219181
5880.945132
5887.427138
5891.495155
5883.135603
5883.426176
5893.283295
5895.473766
5882.420347
5884.968446
5893.73033
5889.550554
5881.660388
5881.280408
5886.980103
5887.047158
5889.50585
5882.554457
5893.797385
5896.747815
5886.466013
5880.006359
5890.556382
5899.005341
5888.410615
5877.145335
5886.890696
5893.260943
5887.427138
5878.240571
5880.498097
5895.362007
5897.753644
5893.909144
5895.317304
5897.641885
5897.418368
5886.242495
5882.129774
5890.668141
5899.49708
5892.880963
5879.045234
5897.306609
5900.01117
5890.064644
5886.264847
5886.778937
5892.053949
5891.115176
5881.034539
5882.286237
5897.19485
5891.629266
5877.368853
5882.19683
5882.152126
5887.471841
5878.061757
5885.080205
5894.847917
5894.222068
5889.12587
5888.187097
5899.765301
5898.558307
5892.679798
5886.376606
5886.309551
5892.344522
5892.389225
5889.058815
5897.932458
5902.335751
5898.178327
5894.132661
5893.417405
5899.094748
5900.39115
5886.398958
5891.517507
5900.949943
5891.383397
5886.957751
5884.208487
5892.858612
5892.500984
5889.058815
5879.38051
5887.5836
5891.316341
5885.236667
5884.946094
5892.791556
5900.368798
5892.679798
5882.599161
5888.164745
5900.100577
5893.976199
5893.059777
5890.310513
5892.612742
5896.278429
5897.552478
5895.764338
5901.486385
5896.971333
5889.282333
5888.567077
5892.746853
5893.372702
5885.549591
5883.046196
5890.042292
5893.082129
5886.421309
5884.275542
5893.976199
5903.520394
5895.876097
5887.181269
5890.936362
5899.765301
5899.430025
5887.091862
5890.288161
5902.693379
5900.659371
5896.725463
5892.746853
5901.844013
5901.955772
5896.345484
5892.545687
5901.776958
5901.307571
5893.305647
5886.778937
5900.055873
5905.800272
5899.564135
5894.199716
5896.412539
5906.023789
5899.608839
5892.702149
5895.183193
5897.373664
5894.333827
5887.114213
5895.183193
5903.028655
5904.660333
5888.812946
5886.913048
5900.346446
5912.192871
5896.144318
5888.052987
5904.325057
5902.514565
5888.790594
5889.63996
5904.190946
5919.457188
5908.72835
5895.563173
5900.458205
5911.522318
5912.975182
5903.810966
5904.280353
5909.331847
5910.874118
5897.686588
5901.41933
5911.321153
5913.690438
5905.710865
5899.921763
5908.258964
5910.6506
5910.6506
5909.10833
5907.588411
5910.315324
5897.440719
5903.520394
5911.16469
5913.98101
5906.135548
5897.261905
5899.944115
5914.070417
5906.1579
5892.121004
5898.491251
5905.822623
5898.759472
5894.557344
5904.816795
5913.779844
5913.757493
5899.161804
5896.16667
5904.347408
5907.431949
5895.697283
5891.04812
5901.687551
5908.415426
5894.400882
5891.495155
5905.934382
5912.908126
5901.776958
5897.083091
5902.022827
5902.223993
5903.296876
5897.887754
5899.005341
5911.209394
5907.901336
5898.781824
5902.738083
5910.203565
5912.237574
5897.664237
5893.976199
5904.123891
5903.028655
5894.959676
5894.132661
5903.408635
5906.739045
5899.094748
5891.115176
5897.552478
5907.901336
5899.810004
5889.394091
5900.234687
5910.337676
5898.491251
5890.265809
5897.373664
5908.72835
5905.844975
5901.106405
5899.1171
5904.570926
5901.441682
5895.65258
5893.752681
5905.375589
5904.414464
5895.764338
5891.338693
5903.073359
5908.527185
5895.384359
5883.7391
5893.73033
5906.314362
5897.887754
5888.142394
5896.703112
5911.857594
5909.220089
5884.476708
5880.766318
5891.338693
5883.180306
5861.83439
5860.493286
5870.149239
5857.162876
5844.243567
5845.629376
5859.554512
5859.755678
5845.495265
5843.573015
5852.111382
5863.019033
5847.685736
5838.141541
5845.964652
5849.898559
5844.511788
5841.427248
5843.707126
5854.055983
5846.344631
5838.476817
5845.897597
5855.106515
5853.273672
5843.103629
5845.182341
5850.323242
5853.49719
5843.64007
5843.573015
5852.066678
5856.179399
5849.496227
5846.45639
5852.714879
5860.381527
5849.898559
5842.343669
5849.160951
5859.39805
5858.36987
5846.299928
5847.529274
5856.96171
5852.021975
5843.215387
5850.591463
5858.861608
5860.694451
5848.75862
5850.055021
5858.101649
5854.055983
5845.227044
5842.187207
5847.462219
5852.401954
5842.902463
5836.576919
5838.074486
5845.159989
5842.388373
5837.426285
5841.784876
5850.837332
5846.590501
5839.996736
5841.829579
5849.451524
5852.491361
5845.785838
5840.153198
5849.049193
5851.552588
5841.024916
5844.936472
5853.161914
5847.328108
5838.38741
5832.777123
5849.049193
5857.140524
5847.238701
5840.644937
5842.61189
5852.379602
5852.245492
5835.794608
5841.091972
5856.179399
5850.949091
5853.363079
5853.720707
5856.000585
5852.625472
5846.411687
5849.876207
5866.081222
5864.337786
5855.620605
5859.286292
5866.125925
5866.595312
5853.228969
5849.607986
5857.296986
5854.726536
5848.75862
5850.323242
5854.100687
5864.784821
5854.391259
5842.902463
5855.061812
5863.10844
5860.225065
5849.339765
5852.178437
5866.014167
5860.605044
5847.238701
5856.157047
5865.634187
5857.587559
5849.764448
5852.625472
5865.433021
5863.354309
5853.273672
5849.384469
5861.767335
5862.884922
5854.055983
5850.457352
5852.536065
5858.861608
5860.873265
5853.340727
5854.838294
5863.801344
5857.095821
5849.965614
5854.860646
5863.10844
5859.152181
5850.30089
5852.357251
5860.761507
5859.576864
5849.250358
5850.032669
5858.995719
5862.326129
5850.837332
5853.541893
5859.308643
5864.360138
5854.234797
5851.731402
5864.561303
5866.818829
5861.610873
5855.03946
5865.142449
5869.836315
5866.192981
5858.459277
5864.874228
5878.777013
5869.165763
5856.693489
5862.370832
5869.299873
5866.595312
5859.442754
5855.754716
5864.00251
5868.338748
5861.029728
5859.375698
5865.03069
5869.52339
5864.270731
5860.225065
5865.231856
5879.38051
5863.041385
5857.207579
5867.377623
5875.580713
5874.016091
5866.036518
5864.963635
5870.596274
5867.690547
5861.856742
5863.555475
5871.847972
5869.143411
5860.202713
5863.399012
5873.859629
5868.606969
5862.21437
5859.822733
5866.617664
5868.830486
5860.269768
5862.393184
5867.154106
5875.088975
5867.712899
5858.034594
5864.538951
5868.651672
5869.702204
5865.477725
5866.863533
5881.325112
5877.659425
5867.489382
5858.638091
5869.52339
5869.746908
5858.615739
5857.095821
5859.107478
5863.130792
5860.940321
5857.878132
5864.896579
5866.863533
5860.113306
5852.692527
5861.365004
5871.535047
5864.762469
5854.815943
5858.526332
5865.120097
5866.796478
5857.207579
5859.599216
5874.150202
5874.977216
5861.074431
5857.632262
5864.829524
5865.790649
5858.146353
5851.083201
5862.437887
5870.037481
5856.984062
5857.073469
5862.393184
5865.500076
5861.3203
5854.413611
5860.113306
5866.237684
5861.588521
5853.586597
5855.106515
5864.65071
5864.851876
5853.050155
5849.697393
5857.520504
5858.660443
5855.799419
5857.632262
5872.943207
5867.08705
5855.374736
5855.106515
5864.158972
5876.072452
5861.990853
5852.401954
5872.630283
5885.191963
5882.442699
5875.267789
5875.290141
5885.817812
5887.96358
5882.353292
5890.422272
5894.110309
5887.158917
5879.626379
5887.605952
5895.362007
5891.361045
5880.5428
5880.162821
5890.53403
5892.657446
5887.71771
5884.141431
5886.600123
5892.568039
5884.364949
5875.580713
5887.293027
5891.696321
5879.492269
5879.559324
5887.740062
5898.178327
5889.327036
5873.61376
5880.945132
5892.076301
5891.785728
5882.688568
5883.180306
5892.32217
5890.265809
5880.431042
5879.827545
5892.992722
5893.685626
5874.26196
5871.289178
5877.614722
5891.830431
5894.110309
5893.395054
5906.336714
5913.913955
5913.913955
5909.175385
5911.119987
5922.362914
5920.753589
5913.176347
5915.992667
5926.743856
5924.911013
5912.215222
5910.740007
5926.050952
5919.077208
5909.644772
5915.746798
5929.135493
5925.179234
5912.237574
5912.57285
5924.911013
5928.353182
5925.648621
5914.137472
5918.764284
5929.180196
5922.787598
5913.824548
5922.005286
5930.275432
5922.362914
5918.384304
5921.357086
5927.123836
5927.369705
5916.193833
5916.551461
5928.353182
5928.956679
5917.490234
5913.8469
5928.800217
5925.827435
5918.071379
5911.634077
5921.602955
5928.889624
5918.831339
5914.428045
5923.815778
5932.510606
5922.56408
5921.848824
5921.826473
5930.677763
5928.84492
5911.745836
5913.8469
5928.688458
5925.916842
5914.383342
5915.344467
5928.84492
5928.33083
5917.870214
5913.288106
5923.748723
5926.743856
5919.010153
5916.529109
5921.446493
5923.793426
5918.697228
5916.551461
5917.758455
5920.686534
5927.548519
5917.087903
5920.12774
5941.004269
5939.171426
5933.58349
5930.588356
5940.534883
5940.512531
5931.750647
5927.30265
5938.187949
5942.524188
5931.102446
5928.777865
5939.953737
5939.305537
5928.554348
5928.33083
5930.409542
5937.517397
5933.359973
5923.368743
5937.04801
5946.413391
5941.205435
5931.124798
5924.821606
5928.420237
5917.31142
5904.973257
5898.98299
5897.552478
5896.032559
5876.295969
5874.172553
5881.325112
5876.899466
5874.954864
5872.004434
5878.173516
5885.52724
5877.704129
5868.629321
5878.665254
5884.297894
5882.934437
5871.132716
5880.967484
5885.124908
5882.777975
5869.791611
5875.424251
5885.52724
5879.268751
5866.148277
5869.90337
5878.307626
5881.123946
5867.668196
5868.584617
5880.900428
5882.688568
5876.653597
5869.702204
5881.503926
5888.589428
5873.300835
5880.498097
5882.375644
5891.94219
5892.523336
5884.834335
5888.052987
5891.964542
5889.617609
5872.227952
5878.553495
5890.891658
5883.761452
5874.463126
5879.961655
5885.706053
5888.790594
5878.307626
5876.877114
5887.047158
5883.7391
5873.054966
5869.657501
5880.431042
5888.298856
5884.677873
5879.827545
5881.839202
5890.042292
5881.749795
5877.033577
5888.544725
5890.668141
5888.321208
5874.351367
5878.777013
5883.850859
5882.397995
5871.110364
5875.625417
5882.84503
5884.230838
5879.447565
5880.587504
5885.840164
5888.634132
5875.357196
5867.578789
5881.727443
5887.941228
5879.604027
5871.043309
5874.396071
5889.12587
5880.811021
5875.044271
5882.666216
5885.370777
5887.248324
5877.413556
5875.960693
5877.659425
5873.345539
5874.172553
5883.917914
5899.810004
5911.432911
5903.453339
5895.406711
5914.383342
5916.126778
5911.119987
5904.973257
5913.153996
5912.05876
5902.782786
5897.753644
5906.470824
5915.366818
5905.867327
5905.219126
5913.511624
5917.31142
5911.947001
5902.112234
5903.453339
5916.596164
5905.286182
5903.073359
5900.815833
5904.123891
5909.376551
5895.071434
5895.362007
5905.464996
5912.326981
5899.564135
5893.797385
5903.229821
5912.416388
5905.956734
5898.334789
5911.678781
5916.864385
5909.376551
5899.206507
5903.609801
5916.707923
5909.10833
5894.110309
5898.714769
5908.996571
5909.309496
5900.614667
5899.184155
5902.872193
5907.655467
5899.698245
5898.535955
5911.119987
5909.935344
5899.742949
5903.363932
5912.975182
5914.137472
5893.842088
5886.644827
5892.009245
5901.061702
5886.868344
5868.472858
5876.18421
5885.14726
5881.749795
5869.657501
5874.843106
5884.342597
5884.230838
5873.792574
5871.512696
5884.700225
5882.733271
5872.250303
5871.982082
5876.988873
5883.336769
5875.401899
5867.534085
5877.413556
5884.074376
5873.993739
5871.557399
5876.117155
5888.321208
5877.927646
5866.036518
5872.965559
5884.387301
5880.609856
5876.94417
5872.049138
5878.464088
5881.593332
5872.607931
5873.904332
5883.962617
5889.952885
5876.139507
5872.943207
5882.84503
5888.812946
5880.654559
5870.819792
5881.056891
5884.63317
5876.541838
5873.524353
5874.664292
5880.386338
5881.414519
5875.737175
5874.105498
5881.749795
5879.671082
5867.042347
5874.12785
5893.752681
5900.592315
5889.617609
5896.703112
5910.829414
5914.584507
5905.26383
5901.888716
5914.808025
5927.839092
5907.856632
5903.47569
5914.405693
5920.887699
5910.538842
5900.815833
5907.163728
5916.93144
5913.131644
5903.520394
5908.057798
5919.010153
5914.137472
5903.274525
5902.06753
5916.104426
5910.158862
5897.954809
5903.207469
5916.082074
5915.76915
5904.526222
5903.118062
5912.05876
5918.71958
5910.941173
5905.174423
5911.678781
5918.093731
5909.10833
5902.358103
5908.504833
5914.293935
5913.511624
5901.844013
5902.894545
5919.636002
5913.176347
5904.816795
5907.119025
5909.935344
5914.137472
5899.050045
5896.926629
5908.348371
5911.969353
5903.408635
5899.675894
5908.616592
5909.845937
5902.291048
5890.377568
5900.681722
5909.845937
5904.481519
5901.173461
5904.548574
5906.537879
5902.603972
5900.033522
5913.533975
5925.648621
5927.414409
5920.172443
5924.508682
5936.846845
5933.918766
5926.050952
5928.487292
5937.964432
5937.070362
5928.397885
5924.843958
5932.085923
5938.277356
5932.465903
5927.213243
5931.348316
5939.909034
5934.835188
5926.587394
5931.437723
5935.483388
5936.645679
5927.593223
5932.242385
5940.289013
5931.571833
5924.776903
5925.536862
5933.315269
5938.299708
5925.469807
5927.43676
5938.433819
5935.595147
5925.00042
5921.15592
5931.549481
5943.217092
5926.0286
5923.07817
5941.227787
5944.044106
5928.84492
5912.796368
5909.890641
5913.869251
5908.348371
5890.39992
5890.489327
5894.982027
5884.521411
5872.674986
5871.31153
5887.471841
5886.510716
5873.680815
5875.580713
5889.058815
5888.187097
5884.63317
5871.110364
5878.978178
5884.879039
5883.470879
5876.541838
5882.889734
5888.47767
5882.688568
5872.965559
5867.645844
5883.828507
5882.800327
5870.730385
5872.026786
5882.509754
5884.364949
5873.926684
5874.731347
5884.230838
5885.66135
5876.295969
5874.217257
5883.7391
5892.568039
5878.933475
5873.837277
5877.748832
5888.99176
5878.039405
5868.674024
5881.593332
5891.383397
5885.28137
5877.793536
5878.10646
5886.600123
5883.336769
5876.139507
5875.133678
5880.341635
5882.621513
5876.631245
5877.860591
5877.771184
5880.609856
5875.088975
5876.228914
5890.489327
5896.479594
5886.935399
5880.587504
5887.71771
5894.959676
5881.705091
5873.278484
5883.113251
5887.382434
5880.02871
5874.753699
5875.401899
5878.665254
5882.84503
5870.015129
5875.334844
5882.353292
5885.638998
5873.904332
5869.433983
5878.151164
5880.363987
5878.084109
5877.659425
5877.882943
5882.308588
5871.535047
5867.556437
5877.771184
5883.046196
5872.809097
5872.295007
5876.899466
5880.386338
5875.558361
5873.144373
5877.435908
5877.212391
5882.107423
5876.877114
5875.848934
5884.007321
5881.995664
5874.820754
5875.67012
5884.275542
5891.025769
5876.921818
5874.910161
5881.615684
5882.688568
5866.57296
5862.124963
5871.17742
5868.919893
5858.191056
5851.776105
5855.978233
5869.277521
5863.488419
5850.055021
5858.682794
5866.192981
5859.710975
5854.793591
5857.118172
5863.153143
5863.153143
5853.050155
5854.167742
5857.811076
5860.560341
5856.939358
5855.620605
5863.778992
5865.969463
5856.022937
5853.139562
5860.448582
5867.265864
5868.49521
5855.352384
5859.91214
5865.03069
5862.236722
5849.831504
5853.720707
5869.165763
5865.477725
5856.112344
5857.788725
5865.969463
5874.060795
5856.939358
5852.73723
5866.304739
5868.204638
5858.772201
5851.999623
5853.161914
5857.229931
5863.533123
5860.42623
5870.059832
5882.174478
5886.68953
5881.347463
5889.416443
5903.140414
5900.592315
5891.606914
5900.055873
5904.928554
5906.604935
5886.823641
5888.880001
5904.481519
5900.793481
5893.931495
5893.417405
5899.564135
5904.548574
5898.670065
5893.819737
5899.295914
5904.548574
5897.820699
5889.863478
5898.334789
5903.140414
5899.564135
5885.706053
5894.982027
5905.844975
5900.480557
5888.812946
5890.176402
5898.647713
5898.357141
5888.164745
5888.030635
5901.061702
5903.118062
5892.83626
5894.691455
5897.798347
5907.029618
5899.005341
5889.438795
5897.70894
5903.207469
5896.032559
5884.610818
5892.948019
5903.47569
5898.290086
5893.35035
5893.395054
5899.810004
5902.06753
5891.539859
5894.087958
5898.804176
5901.687551
5895.563173
5892.45628
5901.754606
5903.274525
5887.561248
5891.517507
5904.280353
5905.64381
5894.311475
5892.568039
5901.575792
5907.32019
5895.809042
5896.367836
5908.817757
5919.188967
5911.969353
5903.542746
5911.455263
5913.489272
5910.941173
5899.832356
5897.619533
5904.772091
5905.040312
5903.095711
5898.960638
5907.655467
5911.187042
5901.41933
5895.205545
5912.57285
5920.015981
5906.694342
5894.847917
5900.52526
5907.096673
5906.537879
5896.613705
5907.275487
5913.8469
5907.230783
5895.362007
5896.971333
5909.734179
5913.645734
5903.453339
5900.502908
5907.454301
5911.388208
5901.888716
5896.501946
5908.281315
5914.74097
5912.461092
5905.666161
5909.331847
5916.462054
5907.275487
5900.01117
5906.180251
5915.858557
5909.153033
5901.888716
5902.469862
5910.561193
5911.455263
5903.207469
5909.980048
5917.445531
5909.845937
5895.697283
5888.812946
5897.038388
5896.099615
5879.984007
5877.704129
5887.985931
5892.45628
5881.660388
5876.541838
5883.202658
5890.779899
5883.493231
5874.172553
5885.594295
5896.747815
5883.984969
5869.545742
5878.151164
5887.315379
5885.862516
5874.396071
5880.565152
5887.315379
5885.415481
5876.921818
5882.688568
5890.91401
5891.986894
5881.503926
5879.022882
5892.188059
5890.466975
5883.537934
5878.754661
5888.120042
5896.54665
5880.162821
5875.267789
5884.364949
5895.563173
5886.980103
5877.100632
5879.872248
5885.66135
5874.552533
5867.310568
5881.794498
5900.949943
5902.000475
5895.294952
5905.129719
5921.222975
5927.079132
5917.490234
5917.981972
5925.603917
5935.148112
5927.704981
5926.855615
5934.321098
5937.629156
5928.554348
5922.362914
5926.341525
5930.811874
5926.676801
5923.033467
5927.772037
5936.489217
5930.051914
5923.547557
5921.357086
5938.657336
5936.198644
5922.653487
5917.467882
5929.828397
5933.359973
5925.51451
5913.288106
5922.921708
5931.840054
5925.246289
5911.209394
5922.273507
5930.297784
5922.251156
5918.764284
5920.239499
5929.269603
5923.45815
5914.986839
5917.669048
5930.141321
5928.263775
5916.394999
5926.565042
5936.77979
5924.240461
5911.857594
5906.135548
5906.761397
5905.196775
5890.735196
5879.38051
5881.883905
5878.441737
5870.842143
5869.478687
5870.998606
5873.770222
5870.41746
5867.08705
5867.444678
5877.882943
5871.780917
5860.113306
5863.175495
5875.02192
5874.843106
5861.677928
5863.890751
5877.033577
5877.033577
5866.796478
5865.745946
5876.027748
5883.314417
5874.418423
5874.977216
5878.978178
5886.331902
5877.704129
5866.975292
5876.43008
5879.291103
5871.780917
5857.878132
5868.919893
5879.38051
5873.077318
5862.795515
5870.886847
5875.088975
5875.290141
5862.415536
5864.270731
5877.324149
5874.865457
5862.773164
5861.007376
5864.918931
5867.623492
5866.148277
5873.904332
5880.945132
5888.030635
5884.610818
5883.001492
5899.228859
5902.715731
5896.434891
5897.284257
5894.624399
5901.508737
5899.1171
5888.343559
5895.853745
5907.83428
5898.893583
5889.572905
5892.232763
5904.615629
5905.040312
5900.502908
5893.462109
5902.000475
5904.682685
5894.736158
5893.059777
5901.93342
5908.258964
5891.852783
5888.947056
5894.065606
5900.659371
5893.35035
5887.270676
5890.958713
5896.948981
5892.45628
5889.841126
5903.85567
5911.522318
5893.752681
5881.056891
5878.732309
5881.235705
5880.587504
5866.192981
5861.253245
5870.41746
5879.089937
5865.522428
5859.576864
5870.529219
5876.295969
5868.49521
5862.549646
5868.204638
5872.987911
5864.807172
5857.095821
5862.504943
5875.692472
5869.612797
5862.169667
5859.509809
5866.215332
5869.031652
5857.922835
5862.326129
5864.695414
5862.840219
5857.967539
5856.693489
5866.930588
5871.490344
5861.275597
5856.917007
5865.813001
5871.222123
5864.695414
5860.42623
5859.196885
5869.501039
5861.83439
5851.262015
5858.74985
5871.043309
5866.014167
5854.14539
5860.716803
5867.98112
5865.813001
5858.772201
5848.825675
5862.281425
5877.391205
5865.656539
5864.673062
5881.772146
5886.153088
5878.441737
5871.870324
5884.476708
5892.210411
5883.35912
5870.260998
5874.485478
5884.923742
5885.594295
5876.765356
5885.884867
5897.306609
5891.361045
5878.084109
5878.35233
5894.624399
5892.143356
5881.280408
5879.604027
5887.985931
5889.394091
5873.881981
5873.122021
5884.11908
5889.259981
5880.40869
5878.35233
5884.25319
5886.801289
5883.35912
5871.043309
5879.827545
5887.091862
5884.677873
5874.440774
5880.721614
5885.773109
5881.928609
5876.765356
5874.440774
5882.465051
5882.576809
5875.200734
5873.680815
5889.729367
5883.761452
5872.630283
5873.61376
5879.469917
5889.215277
5876.854763
5869.925722
5870.28335
5880.609856
5874.083146
5864.65071
5874.798402
5890.824603
5884.25319
5868.539914
5872.2056
5883.292065
5884.25319
5869.657501
5871.579751
5884.588466
5884.11908
5869.52339
5870.730385
5880.811021
5883.962617
5871.959731
5867.198809
5876.407728
5885.594295
5881.325112
5867.757603
5876.743004
5883.672045
5870.462164
5866.282388
5869.143411
5878.419385
5879.112289
5870.551571
5874.016091
5880.833373
5875.804231
5870.506867
5872.496172
5880.162821
5879.536972
5870.529219
5869.433983
5869.813963
5877.145335
5875.357196
5867.33292
5875.871286
5881.928609
5880.006359
5870.529219
5869.121059
5874.507829
5867.690547
5868.428155
5874.507829
5880.118117
5873.949036
5861.029728
5870.93155
5880.095766
5877.59237
5867.131754
5858.705146
5872.116193
5877.927646
5865.477725
5868.651672
5877.480612
5882.018016
5869.76926
5870.886847
5875.379548
5881.839202
5879.089937
5871.557399
5877.927646
5880.654559
5881.839202
5875.088975
5876.251266
5883.649693
5878.240571
5868.249341
5876.407728
5887.248324
5888.768242
5873.971388
5871.333882
5883.135603
5886.68953
5874.865457
5864.069565
5882.576809
5886.756585
5881.503926
5877.59237
5882.062719
5885.013149
5875.692472
5867.243513
5875.357196
5880.006359
5879.961655
5872.585579
5874.686643
5882.241533
5877.97235
5872.496172
5874.306664
5879.872248
5879.156992
5870.350405
5869.143411
5873.166725
5880.632207
5869.657501
5869.411632
5872.116193
5874.306664
5870.059832
5864.270731
5872.384414
5876.966521
5870.909199
5860.314472
5857.520504
5866.125925
5873.971388
5874.507829
5885.728405
5901.464033
5904.772091
5901.106405
5902.805138
5906.582583
5904.973257
5893.663274
5894.132661
5906.515528
5902.514565
5893.618571
5897.083091
5907.655467
5911.768187
5904.123891
5894.065606
5899.228859
5912.014057
5905.241478
5897.105443
5901.016998
5909.264792
5903.140414
5895.384359
5898.111272
5909.957696
5911.745836
5899.452376
5902.469862
5915.947964
5917.557289
5912.57285
5914.517452
5922.251156
5922.653487
5911.432911
5904.056836
5913.533975
5915.590336
5909.577717
5901.575792
5906.828452
5914.852728
5905.934382
5896.971333
5908.638943
5920.485368
5917.31142
5910.024751
5902.939248
5906.046141
5906.001437
5896.792519
5887.829469
5897.641885
5895.294952
5881.95096
5882.621513
5888.768242
5897.038388
5891.629266
5886.756585
5895.071434
5898.155975
5890.064644
5883.940266
5889.662312
5897.217202
5891.450452
5884.208487
5888.589428
5893.35035
5890.91401
5891.875135
5896.121966
5896.971333
5894.490289
5885.862516
5887.807117
5899.519432
5897.306609
5891.182231
5884.275542
5891.964542
5896.948981
5893.238591
5888.99176
5892.903315
5903.229821
5894.534993
5887.382434
5891.003417
5899.854708
5894.020902
5887.71771
5893.238591
5900.838184
5896.323132
5894.199716
5898.044216
5906.984914
5894.75851
5886.197792
5903.118062
5919.501891
5922.340563
5918.160786
5920.887699
5935.282223
5936.846845
5927.772037
5928.666106
5938.791447
5941.227787
5935.662202
5927.43676
5934.432856
5941.496008
5932.17533
5927.459112
5933.918766
5938.165598
5927.839092
5927.392057
5928.174368
5939.774923
5943.820589
5927.123836
5928.040257
5937.94208
5938.053839
5930.722467
5928.263775
5936.444513
5941.026621
5932.063571
5928.107313
5934.924595
5941.317194
5930.521301
5923.726371
5935.37163
5942.390077
5929.068438
5921.491196
5926.0286
5934.656374
5936.936252
5928.420237
5927.481464
5939.953737
5939.752572
5926.363877
5924.128702
5933.471731
5934.656374
5924.754551
5926.140359
5934.410505
5942.412429
5934.768133
5929.001382
5939.551406
5945.832246
5931.303612
5921.558252
5932.465903
5945.005232
5941.317194
5931.214205
5932.734124
5940.892511
5938.098542
5924.48633
5925.3804
5939.685516
5939.171426
5931.504778
5929.135493
5928.733162
5937.562101
5929.560176
5923.636964
5930.431894
5938.433819
5931.169502
5921.222975
5927.101484
5936.846845
5931.974164
5922.005286
5930.856577
5955.4882
5947.776848
5927.101484
5919.457188
5926.676801
5924.240461
5912.796368
5909.264792
5919.837167
5921.088865
5910.270621
5909.600068
5919.904222
5922.340563
5914.74097
5910.047103
5925.670973
5926.229766
5914.964487
5908.929516
5918.160786
5921.02181
5918.697228
5912.192871
5918.093731
5927.481464
5920.820644
5912.95283
5915.165653
5924.799255
5917.6914
5911.634077
5913.601031
5919.568946
5921.871176
5914.249231
5912.215222
5919.501891
5921.066513
5912.170519
5912.014057
5919.61365
5918.116083
5914.919783
5906.001437
5910.382379
5920.50772
5921.960583
5905.286182
5909.577717
5920.753589
5912.103464
5911.41056
5915.322115
5923.413446
5917.646696
5909.868289
5909.175385
5916.707923
5921.5359
5913.891603
5909.264792
5914.003362
5920.686534
5906.090844
5897.641885
5901.732254
5918.786635
5920.328906
5919.256022
5927.81674
5937.226824
5937.360935
5923.614612
5925.916842
5944.938176
5933.762304
5924.329868
5929.962507
5937.562101
5943.105333
5934.09758
5930.25308
5939.283185
5943.865293
5928.464941
5926.877967
5940.221958
5943.373554
5932.845883
5931.862406
5930.230728
5941.630118
5936.600976
5930.856577
5934.745781
5942.412429
5937.159769
5927.995554
5936.265699
5944.066458
5939.484351
5934.85754
5931.974164
5948.31329
5939.953737
5929.381362
5926.766208
5937.629156
5938.791447
5928.666106
5924.911013
5936.444513
5943.977051
5933.292917
5923.435798
5940.534883
5952.202493
5940.668993
5922.854653
5921.15592
5924.128702
5914.763321
5902.738083
5902.626324
5899.564135
5891.562211
5879.626379
5879.604027
5894.266772
5898.625362
5890.377568
5882.107423
5894.155013
5899.1171
5886.264847
5883.403824
5897.820699
5892.389225
5880.520449
5875.871286
5889.841126
5897.038388
5885.706053
5875.759527
5886.376606
5897.105443
5889.237629
5879.045234
5885.102556
5890.176402
5885.750757
5879.268751
5880.095766
5890.846955
5896.256077
5890.981065
5891.584562
5897.775995
5905.532051
5895.853745
5884.409652
5888.164745
5891.919838
5877.748832
5872.272655
5880.431042
5888.880001
5881.682739
5870.93155
5880.743966
5890.01994
5887.851821
5872.652635
5874.999568
5879.38051
5882.33094
5882.576809
5876.854763
5882.465051
5888.276504
5871.155068
5873.09967
5891.718673
5889.438795
5880.386338
5880.632207
5891.785728
5900.122929
5899.318266
5884.342597
5893.171536
5904.459167
5897.753644
5885.236667
5894.400882
5909.890641
5908.929516
5895.898449
5899.161804
5908.281315
5909.577717
5897.597182
5902.045179
5906.917859
5909.555365
5902.022827
5900.01117
5907.677818
5912.863423
5906.023789
5895.540821
5901.866365
5909.600068
5902.693379
5897.999513
5913.288106
5920.910051
5904.928554
5895.898449
5898.938286
5909.309496
5903.386283
5897.999513
5897.775995
5912.617554
5917.132606
5903.073359
5903.185118
5913.176347
5914.383342
5902.693379
5897.932458
5906.090844
5909.287144
5899.1171
5898.580658
5904.101539
5909.398903
5906.1579
5896.792519
5908.884812
5918.227842
5907.878984
5904.079187
5905.308533
5906.426121
5905.085016
5903.565097
5905.599106
5912.528147
5911.276449
5902.603972
5899.854708
5909.398903
5915.76915
5905.062664
5901.732254
5909.041275
5913.533975
5906.001437
5903.520394
5910.807062
5914.651563
5908.661295
5907.029618
5908.884812
5916.327943
5914.606859
5903.207469
5905.26383
5917.110254
5908.974219
5901.128757
5904.816795
5911.947001
5911.634077
5900.324094
5901.016998
5914.808025
5916.707923
5903.699208
5904.056836
5907.431949
5915.90326
5907.364894
5894.669103
5906.694342
5912.05876
5907.767225
5911.812891
5919.881871
5923.860481
5919.926574
5904.637981
5915.813853
5922.1841
5917.534938
5906.917859
5908.929516
5914.919783
5917.937269
5902.06753
5902.603972
5917.780807
5910.941173
5909.734179
5905.822623
5915.076246
5925.983897
5919.166615
5909.555365
5923.234632
5926.565042
5915.545632
5901.844013
5905.286182
5914.405693
5909.890641
5893.842088
5906.135548
5904.481519
5912.863423
5910.784711
5901.285219
5904.660333
5907.409597
5898.647713
5898.22303
5910.963525
5917.713752
5898.580658
5894.736158
5909.48831
5908.281315
5903.207469
5896.904277
5904.548574
5911.969353
5906.917859
5895.406711
5899.720597
5905.532051
5902.469862
5901.374626
5908.504833
5915.746798
5912.394036
5900.212336
5898.893583
5913.46692
5904.772091
5898.155975
5891.003417
5903.185118
5913.176347
5893.819737
5890.735196
5903.85567
5912.997533
5901.620496
5897.798347
5896.524298
5902.648676
5899.854708
5889.997588
5888.99176
5896.30078
5894.155013
5883.850859
5886.331902
5899.765301
5894.669103
5888.947056
5892.299818
5895.943152
5891.584562
5889.595257
5887.158917
5895.451414
5904.23565
5895.473766
5882.733271
5901.486385
5900.592315
5898.08892
5902.849841
5883.403824
5895.429062
5893.126833
5880.5428
5884.923742
5906.29201
5906.962562
5878.598199
5880.676911
5897.597182
5899.541783
5887.784766
5873.61376
5890.176402
5910.292972
5893.663274
5887.96358
5895.987856
5903.073359
5895.362007
5889.617609
5897.619533
5899.318266
5894.579696
5899.1171
5913.064589
5917.490234
5904.012132
5903.408635
5896.032559
5909.018923
5908.683647
5891.29399
5893.238591
5901.329923
5903.565097
5885.951923
5881.772146
5897.105443
5901.464033
5892.858612
5893.149184
5908.951868
5909.935344
5891.271638
5892.948019
5896.68076
5897.373664
5881.123946
5881.056891
5889.461147
5899.474728
5895.764338
5883.7391
5880.967484
5886.018978
5897.753644
5885.884867
5887.158917
5892.858612
5896.591353
5890.332865
5881.392167
5888.09769
5898.871231
5885.571943
5886.935399
5891.986894
5899.608839
5897.753644
5882.353292
5898.133623
5911.276449
5897.485423
5887.605952
5897.328961
5898.647713
5890.444623
5879.984007
5891.159879
5901.374626
5892.590391
5874.574885
5882.241533
5900.882888
5897.686588
5881.012187
5879.291103
5894.266772
5898.111272
5888.544725
5880.699263
5897.910106
5897.820699
5892.277466
5878.039405
5892.97037
5889.662312
5890.511679
5883.135603
5889.103519
5893.104481
5891.584562
5885.259019
5886.55542
5892.143356
5894.132661
5882.666216
5883.068548
5894.669103
5892.97037
5889.483498
5881.012187
5888.947056
5898.066568
5876.877114
5875.245437
5899.139452
5905.308533
5888.321208
5884.163783
5895.384359
5902.000475
5891.383397
5885.907219
5889.818774
5904.660333
5893.149184
5888.455318
5895.473766
5895.965504
5893.551516
5881.995664
5891.316341
5889.863478
5904.950905
5883.716748
5887.516545
5900.055873
5894.177365
5885.191963
5876.228914
5884.409652
5901.844013
5892.299818
5881.369815
5889.215277
5891.830431
5886.264847
5883.940266
5888.701187
5891.003417
5891.94219
5886.577771
5876.899466
5889.50585
5893.775033
5877.033577
5883.336769
5891.785728
5891.897487
5894.289123
5876.072452
5886.756585
5895.540821
5887.225972
5871.132716
5884.029673
5873.74787
5867.668196
5882.062719
5874.619588
5884.230838
5883.180306
5873.569056
5877.949998
5875.312492
5886.488365
5873.74787
5881.481574
5884.230838
5887.985931
5874.999568
5884.610818
5874.351367
5881.101594
5879.089937
5872.451469
5893.842088
5882.554457
5878.48644
5879.246399
5886.488365
5888.298856
5883.180306
5882.465051
5887.382434
5882.889734
5878.374681
5885.482536
5887.44949
5896.16667
5897.753644
5884.811984
5896.367836
5908.236612
5899.988818
5894.646751
5884.052024
5893.752681
5899.385321
5883.292065
5883.247362
5898.714769
5907.18608
5892.590391
5896.524298
5904.146243
5913.8469
5908.527185
5899.050045
5901.061702
5911.343504
5898.670065
5882.19683
5890.712844
5908.504833
5900.14528
5885.348426
5888.880001
5890.556382
5902.402807
5891.517507
5894.043254
5907.454301
5900.01117
5889.774071
5887.851821
5902.3134
5904.190946
5889.148222
5892.277466
5892.389225
5895.809042
5902.581621
5894.177365
5890.332865
5895.697283
5900.994647
5879.559324
5889.148222
5900.592315
5896.881926
5892.724501
5884.946094
5899.564135
5896.658408
5893.551516
5884.521411
5895.78669
5901.620496
5892.746853
5876.474783
5883.403824
5888.164745
5873.837277
5870.551571
5876.720652
5882.599161
5885.79546
5867.578789
5884.76728
5886.421309
5879.648731
5871.736213
5866.416498
5887.650655
5875.647768
5863.62253
5883.023844
5886.488365
5882.889734
5877.570018
5869.143411
5875.960693
5884.834335
5880.5428
5874.731347
5874.753699
5880.431042
5868.606969
5870.149239
5873.010263
5880.587504
5886.868344
5876.854763
5875.848934
5880.319283
5877.190039
5870.328053
5879.760489
5886.153088
5882.062719
5873.837277
5869.657501
5885.594295
5885.013149
5873.546704
5883.560286
5875.871286
5872.160896
5878.307626
5866.640015
5878.218219
5882.912085
5870.037481
5863.667233
5877.391205
5882.33094
5877.033577
5860.29212
5868.048175
5881.414519
5876.966521
5868.87519
5867.578789
5882.308588
5879.536972
5856.06764
5858.168704
5881.101594
5888.09769
5884.25319
5886.868344
5903.900373
5894.177365
5893.283295
5894.847917
5897.887754
5908.326019
5895.049083
5894.937324
5893.752681
5896.479594
5900.547612
5885.370777
5897.485423
5902.402807
5897.552478
5890.757548
5895.987856
5894.020902
5896.859574
5885.370777
5883.448527
5900.52526
5905.129719
5900.458205
5889.662312
5898.938286
5916.260888
5898.044216
5903.900373
5905.330885
5906.068493
5899.005341
5893.819737
5903.118062
5908.281315
5891.159879
5888.634132
5894.467937
5903.453339
5900.301743
5883.269713
5887.985931
5899.653542
5897.507775
5892.545687
5897.641885
5900.838184
5911.03058
5892.83626
5885.683702
5902.916897
5900.078225
5884.141431
5886.488365
5905.442644
5899.765301
5892.612742
5892.83626
5890.802251
5891.450452
5894.24442
5876.251266
5890.265809
5909.577717
5894.020902
5880.699263
5892.903315
5891.986894
5901.844013
5892.255115
5895.697283
5897.664237
5898.848879
5891.562211
5889.863478
5899.005341
5905.64381
5896.881926
5881.101594
5900.949943
5906.381417
5899.832356
5898.781824
5891.562211
5900.927591
5905.532051
5893.395054
5886.577771
5907.499004
5898.267734
5886.018978
5888.47767
5902.514565
5905.800272
5894.75851
5885.303722
5899.340618
5904.593278
5892.925667
5900.771129
5897.217202
5892.277466
5880.811021
5870.015129
5878.933475
5894.736158
5890.154051
5869.948074
5878.86642
5888.723539
5891.159879
5877.435908
5882.018016
5891.964542
5883.426176
5873.077318
5867.936417
5882.487402
5882.733271
5882.777975
5877.07828
5872.227952
5881.593332
5876.653597
5872.8538
5881.123946
5885.482536
5879.715786
5878.777013
5885.571943
5879.492269
5878.732309
5878.531143
5871.244475
5880.27458
5881.101594
5875.446603
5883.515583
5887.382434
5881.772146
5871.244475
5873.61376
5888.365911
5884.163783
5880.654559
5881.392167
5890.176402
5883.828507
5874.306664
5870.462164
5881.034539
5889.438795
5883.649693
5872.831449
5881.883905
5881.615684
5893.015074
5887.985931
5888.276504
5896.658408
5901.799309
5885.303722
5879.00053
5890.39992
5894.825565
5880.78867
5875.692472
5891.159879
5898.312437
5885.79546
5885.460184
5891.249286
5899.877059
5896.591353
5893.372702
5899.519432
5901.441682
5895.719635
5890.690492
5887.538897
5895.116138
5888.812946
5882.487402
5891.94219
5895.674931
5888.567077
5880.609856
5877.927646
5887.024806
5892.188059
5886.890696
5889.058815
5890.735196
5896.881926
5880.609856
5881.325112
5892.232763
5889.282333
5876.385376
5874.060795
5889.952885
5892.702149
5886.309551
5887.5836
5898.267734
5896.144318
5886.466013
5866.461201
5873.032614
5884.029673
5893.506812
5879.38051
5876.743004
5880.498097
5888.052987
5876.631245
5870.28335
5879.358158
5886.734234
5876.43008
5874.977216
5885.14726
5895.451414
5878.48644
5871.69151
5884.230838
5891.226934
5883.672045
5875.357196
5881.660388
5891.003417
5889.103519
5876.072452
5885.951923
5887.471841
5881.280408
5864.673062
5874.64194
5895.250248
5887.829469
5883.783803
5876.407728
5886.600123
5891.115176
5880.5428
5875.357196
5888.164745
5889.88583
5885.907219
5880.743966
5884.677873
5890.936362
5887.360083
5879.559324
5882.33094
5892.903315
5893.506812
5879.872248
5887.047158
5895.585525
5890.489327
5875.200734
5884.700225
5895.697283
5888.723539
5883.895562
5882.33094
5892.746853
5901.844013
5889.818774
5884.186135
5899.474728
5899.49708
5884.63317
5882.621513
5885.326074
5894.356179
5886.331902
5879.805193
5879.805193
5892.948019
5894.579696
5884.320245
5886.533068
5895.630228
5891.003417
5876.18421
5878.061757
5888.276504
5890.824603
5882.353292
5877.704129
5884.387301
5885.124908
5886.421309
5880.900428
5886.018978
5897.172498
5886.711882
5881.883905
5886.756585
5895.540821
5882.956789
5875.468954
5886.577771
5897.932458
5889.662312
5875.53601
5878.642902
5888.030635
5887.315379
5876.072452
5879.38051
5885.750757
5885.28137
5879.112289
5879.8946
5876.139507
5881.056891
5880.341635
5872.384414
5883.470879
5886.488365
5878.307626
5877.905295
5880.095766
5890.154051
5881.392167
5877.301798
5891.271638
5891.852783
5889.215277
5879.559324
5875.915989
5882.442699
5881.548629
5875.379548
5878.441737
5882.174478
5881.280408
5874.150202
5869.858667
5881.883905
5881.638036
5878.195867
5872.227952
5876.966521
5885.974274
5875.647768
5863.667233
5871.535047
5879.626379
5871.31153
5866.863533
5876.765356
5888.835298
5880.878077
5864.270731
5868.137582
5875.871286
5875.625417
5862.616701
5873.010263
5876.877114
5862.102611
5860.493286
5865.254207
5877.59237
5870.730385
5871.982082
5862.236722
5858.526332
5871.602103
5865.745946
5860.783858
5869.0093
5876.363024
5866.483553
5858.593387
5862.124963
5867.578789
5868.517562
5863.510771
5858.861608
5873.703167
5868.87519
5865.343614
5863.890751
5872.518524
5869.76926
5870.439812
5856.469972
5867.176457
5877.234742
5865.969463
5860.381527
5862.571998
5876.363024
5874.172553
5866.617664
5870.775088
5882.912085
5877.07828
5866.461201
5862.236722
5874.530181
5880.27458
5858.615739
5861.499114
5881.012187
5879.827545
5876.072452
5872.2056
5870.93155
5878.128812
5875.424251
5866.684719
5873.278484
5881.570981
5866.684719
5859.241588
5871.959731
5870.328053
5878.329978
5865.902408
5869.478687
5880.855725
5870.328053
5866.640015
5861.856742
5876.027748
5875.513658
5869.366928
5862.460239
5870.350405
5878.732309
5870.909199
5866.930588
5871.512696
5871.400937
5865.67889
5868.3611
5872.742042
5874.12785
5871.244475
5865.120097
5871.222123
5878.978178
5872.71969
5860.023899
5868.986949
5876.072452
5879.224048
5865.455373
5868.182286
5872.652635
5873.74787
5859.599216
5869.366928
5877.838239
5876.6983
5867.958768
5869.948074
5876.0501
5871.646806
5861.007376
5863.10844
5865.656539
5867.757603
5864.628358
5853.564245
5863.10844
5869.322225
5858.213408
5855.687661
5862.21437
5867.355271
5869.165763
5857.811076
5860.850914
5873.61376
5885.102556
5878.62055
5880.721614
5891.249286
5887.427138
5869.813963
5878.933475
5876.407728
5880.207524
5870.775088
5866.237684
5870.998606
5873.390242
5860.202713
5865.567132
5870.819792
5875.53601
5868.741079
5859.643919
5868.048175
5878.48644
5879.961655
5859.576864
5857.4758
5872.227952
5874.64194
5865.410669
5858.258111
5867.578789
5869.679853
5858.101649
5860.001547
5871.020957
5872.965559
5861.543818
5864.807172
5865.768297
5875.267789
5871.736213
5863.175495
5859.554512
5873.479649
5866.148277
5860.001547
5865.187152
5879.358158
5872.742042
5863.10844
5867.824658
5867.936417
5871.199771
5861.923797
5860.247417
5871.31153
5875.804231
5869.948074
5864.226027
5874.418423
5876.787707
5875.066623
5876.854763
5877.190039
5877.324149
5871.266827
5867.154106
5871.915027
5877.07828
5864.404841
5863.62253
5873.390242
5879.559324
5873.144373
5865.589483
5867.891713
5874.351367
5871.244475
5863.600178
5866.461201
5870.573922
5873.680815
5864.226027
5856.31351
5871.69151
5880.989835
5864.628358
5860.381527
5866.550608
5874.418423
5873.993739
5862.571998
5865.589483
5870.640978
5871.266827
5862.951978
5862.326129
5872.943207
5870.618626
5861.566169
5862.460239
5871.289178
5869.724556
5862.907274
5863.019033
5870.663329
5873.457297
5867.042347
5863.063736
5870.730385
5874.552533
5864.13662
5857.878132
5869.098707
5878.754661
5863.175495
5857.833428
5858.548684
5866.237684
5870.171591
5859.040422
5864.091917
5878.888771
5865.723594
5853.810114
5861.610873
5879.38051
5870.260998
5854.055983
5853.11721
5865.008338
5877.480612
5861.83439
5847.037536
5855.575902
5866.930588
5860.269768
5850.144428
5856.917007
5866.148277
5853.541893
5845.115286
5854.570073
5856.559379
5856.917007
5852.22314
5855.93353
5868.003472
5859.867437
5848.266881
5855.55355
5869.590446
5871.132716
5850.144428
5842.947166
5857.252283
5865.634187
5859.934492
5855.531198
5861.744983
5863.689585
5862.102611
5852.60312
5862.21437
5878.777013
5870.171591
5854.771239
5869.90337
5867.735251
5860.873265
5850.703222
5854.279501
5867.310568
5864.695414
5852.73723
5857.453448
5865.522428
5856.537027
5854.65948
5858.280463
5866.528257
5864.203675
5857.408745
5860.6721
5861.610873
5865.701242
5857.364041
5849.719745
5856.782896
5862.571998
5860.113306
5849.540931
5855.55355
5866.908236
5861.566169
5854.234797
5852.312547
5860.493286
5859.688623
5852.267844
5851.507884
5859.152181
5861.432059
5858.727498
5855.017108
5863.399012
5866.95294
5855.151219
5850.032669
5857.967539
5875.804231
5859.085126
5850.323242
5860.135658
5868.674024
5866.774126
5857.744021
5860.605044
5865.768297
5864.00251
5859.26394
5858.682794
5876.6983
5869.724556
5853.474838
5858.794553
5858.816905
5866.483553
5862.72846
5857.922835
5867.98112
5869.478687
5864.784821
5856.134696
5865.611835
5872.071489
5861.432059
5857.85578
5863.063736
5876.6983
5877.368853
5854.637129
5862.951978
5872.160896
5865.634187
5851.239664
5856.469972
5869.433983
5868.070527
5861.83439
5852.021975
5867.712899
5870.328053
5866.416498
5860.537989
5870.41746
5875.804231
5862.549646
5856.648786
5861.208542
5873.658463
5865.455373
5849.1386
5856.849951
5872.004434
5868.249341
5859.286292
5866.349443
5873.457297
5866.796478
5863.24255
5856.648786
5874.507829
5869.791611
5857.967539
5857.118172
5869.031652
5875.15603
5857.766373
5852.536065
5860.828562
5870.305702
5859.26394
5851.776105
5860.873265
5870.663329
5862.21437
5849.295062
5864.293082
5871.669158
5865.589483
5858.325167
5859.554512
5864.538951
5874.820754
5872.004434
5870.216295
5876.810059
5877.190039
5869.25517
5863.890751
5872.607931
5875.491306
5867.46703
5858.638091
5869.076356
5880.073414
5868.986949
5855.687661
5866.461201
5873.949036
5866.57296
5856.849951
5872.831449
5881.660388
5862.884922
5852.804286
5864.181324
5868.852838
5875.737175
5863.264902
5862.169667
5873.859629
5882.867382
5871.646806
5866.885885
5872.004434
5871.870324
5868.696376
5854.14539
5868.159934
5878.374681
5868.048175
5869.054004
5858.124001
5874.686643
5866.796478
5855.330033
5865.857704
5879.447565
5876.206562
5860.605044
5857.542855
5865.567132
5871.333882
5863.24255
5856.984062
5862.862571
5870.328053
5851.753754
5858.392222
5868.070527
5875.53601
5861.365004
5868.49521
5866.885885
5872.295007
5862.616701
5862.661405
5870.216295
5878.017053
5869.836315
5858.36987
5863.823696
5871.736213
5871.82562
5859.889789
5861.677928
5873.524353
5869.948074
5864.337786
5856.469972
5871.378585
5875.826582
5867.60114
5865.567132
5875.267789
5880.341635
5870.506867
5859.487457
5865.54478
5874.284312
5866.550608
5869.411632
5865.298911
5878.128812
5873.814925
5865.03069
5867.757603
5875.647768
5876.474783
5866.349443
5868.718728
5887.248324
5885.169612
5857.766373
5854.570073
5866.014167
5870.015129
5862.236722
5858.258111
5870.752736
5878.553495
5867.534085
5859.509809
5860.761507
5879.156992
5868.584617
5858.50398
5860.113306
5872.451469
5870.037481
5868.316396
5862.996681
5876.474783
5872.384414
5859.845085
5857.922835
5872.093841
5874.619588
5852.759582
5855.732364
5866.57296
5870.238646
5860.962672
5857.073469
5863.667233
5870.395109
5866.170629
5851.485533
5857.811076
5862.504943
5861.163838
5856.849951
5858.973367
5869.322225
5861.029728
5844.489437
5857.967539
5865.835353
5864.203675
5854.681832
5852.826637
5863.399012
5867.399975
5853.184265
5847.283405
5866.237684
5877.637074
5866.95294
5865.120097
5871.289178
5874.194905
5862.482591
5861.3203
5868.204638
5869.813963
5859.710975
5850.278538
5861.476762
5868.87519
5866.081222
5859.867437
5865.835353
5869.702204
5868.919893
5859.375698
5858.74985
5867.936417
5869.165763
5863.175495
5860.42623
5869.188114
5870.596274
5858.861608
5862.035556
5875.200734
5872.093841
5860.783858
5859.532161
5863.957806
5870.663329
5863.533123
5858.548684
5864.963635
5877.212391
5863.153143
5858.772201
5858.74985
5867.779954
5871.31153
5858.772201
5865.187152
5872.160896
5875.714824
5865.120097
5866.125925
5878.553495
5882.465051
5874.351367
5865.410669
5877.45826
5878.218219
5867.735251
5854.301853
5866.595312
5872.227952
5862.773164
5854.346556
5857.587559
5867.243513
5869.836315
5856.469972
5852.558416
5869.657501
5865.813001
5854.413611
5860.985024
5865.67889
5866.640015
5859.710975
5860.873265
5867.355271
5877.860591
5861.230893
5856.291158
5871.870324
5876.6983
5864.538951
5855.173571
5865.835353
5873.591408
5867.98112
5858.481629
5865.589483
5878.844068
5867.98112
5855.754716
5860.873265
5870.618626
5879.738138
5860.42623
5854.346556
5871.155068
5877.100632
5865.298911
5855.55355
5863.890751
5869.031652
5858.88396
5852.826637
5855.441791
5867.08705
5862.884922
5854.078335
5864.069565
5872.697338
5863.823696
5848.423344
5858.74985
5868.718728
5862.661405
5846.344631
5852.9831
5865.857704
5861.297949
5854.503018
5850.569111
5861.856742
5870.663329
5857.319338
5855.352384
5857.98989
5865.611835
5850.032669
5848.915082
5856.917007
5869.143411
5866.05887
5848.356288
5857.766373
5881.839202
5867.46703
5857.4758
5861.476762
5877.346501
5862.59435
5848.24453
5856.268806
5866.148277
5864.807172
5857.453448
5856.134696
5861.83439
5865.54478
5862.482591
5858.995719
5867.534085
5873.904332
5861.342652
5857.766373
5867.578789
5872.518524
5864.315434
5855.754716
5860.649748
5869.568094
5864.896579
5856.291158
5863.913103
5874.932513
5873.122021
5866.304739
5863.913103
5871.713861
5874.977216
5865.075393
5855.486495
5867.556437
5877.949998
5865.92476
5861.744983
5872.406766
5873.23378
5864.918931
5862.460239
5870.886847
5872.272655
5868.226989
5855.330033
5860.225065
5865.522428
5863.354309
5847.372812
5854.14539
5862.750812
5861.476762
5848.088068
5850.613815
5854.860646
5854.167742
5848.870379
5852.513713
5859.621568
5856.425268
5846.858722
5850.435001
5853.005451
5857.095821
5853.944225
5845.718783
5852.469009
5862.169667
5856.917007
5844.02005
5850.703222
5860.381527
5851.038498
5846.076411
5860.068603
5861.767335
5861.454411
5851.910216
5848.065716
5856.268806
5857.744021
5848.646861
5847.171646
5856.246454
5858.660443
5851.463181
5846.568149
5857.207579
5865.813001
5850.658518
5839.817922
5849.295062
5861.767335
5857.453448
5857.744021
5853.743059
5869.456335
5860.381527
5852.781934
5850.904387
5858.660443
5857.140524
5850.30089
5845.830541
5856.112344
5857.095821
5847.261053
5843.573015
5852.558416
5857.408745
5852.558416
5841.248434
5849.496227
5853.608948
5850.591463
5843.818884
5847.819847
5854.123039
5842.276614
5840.332012
5845.025879
5853.6313
5847.998661
5838.946204
5848.602158
5855.195922
5856.134696
5839.884977
5833.268861
5853.474838
5860.761507
5855.754716
5846.925777
5871.400937
5880.319283
5866.43885
5864.024861
5874.820754
5886.533068
5879.38051
5867.757603
5875.960693
5888.388263
5876.340673
5866.595312
5864.538951
5873.032614
5875.334844
5867.377623
5861.990853
5874.64194
5878.240571
5866.170629
5861.454411
5871.959731
5874.887809
5873.23378
5866.751774
5880.699263
5879.447565
5868.070527
5863.533123
5868.115231
5872.630283
5870.663329
5869.702204
5868.763431
5883.426176
5878.195867
5865.991815
5871.535047
5880.229876
5878.665254
5866.684719
5867.668196
5881.43687
5881.146298
5869.143411
5863.957806
5876.251266
5878.777013
5870.372757
5864.717765
5874.753699
5882.174478
5875.781879
5858.548684
5870.328053
5881.548629
5867.288216
5860.560341
5870.529219
5877.413556
5876.251266
5869.38928
5881.168649
5872.116193
5866.081222
5856.671137
5852.424306
5861.722632
5872.295007
5860.336824
5858.101649
5870.037481
5864.606007
5849.898559
5854.458315
5864.449544
5865.008338
5855.151219
5851.418477
5861.566169
5865.969463
5860.403879
5852.200789
5857.006414
5861.83439
5863.778992
5846.881073
5857.095821
5869.90337
5862.59435
5851.776105
5853.832466
5865.723594
5869.590446
5859.196885
5850.904387
5857.85578
5860.940321
5857.319338
5853.318376
5868.942245
5869.411632
5853.564245
5849.473876
5860.090954
5875.848934
5860.985024
5852.111382
5853.49719
5866.192981
5868.450507
5861.499114
5851.999623
5864.695414
5867.757603
5854.078335
5852.491361
5866.43885
5865.03069
5852.401954
5852.9831
5854.078335
5861.812039
5855.799419
5852.938396
5861.677928
5857.028765
5845.361155
5846.501094
5854.748887
5860.493286
5860.627396
5840.354364
5851.70905
5872.697338
5862.281425
5863.667233
5861.722632
5873.457297
5875.223085
5858.280463
5854.413611
5869.545742
5869.925722
5861.789687
5850.30089
5859.375698
5862.683757
5859.420402
5850.837332
5854.167742
5860.269768
5858.213408
5848.24453
5850.032669
5857.811076
5853.273672
5850.144428
5851.664347
5856.782896
5855.93353
5851.552588
5849.384469
5865.410669
5862.683757
5852.401954
5859.889789
5862.951978
5862.59435
5852.960748
5851.396126
5863.287254
5868.3611
5856.872303
5842.500131
5848.423344
5861.3203
5856.291158
5845.249396
5844.53414
5851.820809
5848.75862
5840.600233
5846.679908
5858.034594
5850.904387
5842.723649
5849.205655
5857.967539
5857.878132
5852.781934
5847.015184
5857.185228
5863.309606
5850.122076
5848.848027
5853.676004
5862.460239
5852.156085
5843.997698
5852.401954
5858.213408
5855.330033
5843.058925
5849.876207
5856.514675
5849.764448
5847.685736
5850.032669
5865.142449
5857.364041
5854.413611
5848.37864
5858.302815
5859.822733
5850.546759
5846.165818
5857.878132
5864.851876
5857.051117
5851.06085
5854.257149
5861.454411
5852.871341
5850.367945
5857.609911
5866.349443
5854.570073
5843.952995
5850.457352
5852.446658
5852.781934
5845.919948
5847.931605
5856.157047
5863.220199
5841.404896
5841.874283
5854.368908
5857.498152
5845.584672
5845.316451
5857.319338
5853.228969
5843.952995
5837.403934
5851.954919
5860.537989
5851.932568
5839.125018
5847.573977
5857.632262
5850.099725
5845.249396
5855.508847
5866.751774
5855.642957
5845.361155
5850.658518
5867.534085
5858.302815
5846.344631
5849.429172
5857.587559
5861.521466
5850.479704
5845.159989
5849.1386
5855.017108
5846.031707
5841.226082
5853.921873
5858.88396
5849.675041
5845.070582
5848.825675
5857.945187
5854.726536
5846.45639
5850.926739
5858.593387
5852.357251
5847.417515
5850.703222
5855.978233
5858.705146
5842.768352
5832.643012
5852.111382
5867.377623
5860.29212
5842.589538
5856.06764
5862.236722
5856.291158
5855.330033
5861.767335
5869.210466
5859.599216
5851.641995
5860.135658
5868.87519
5863.019033
5856.000585
5860.627396
5867.98112
5863.533123
5854.90535
5859.26394
5867.936417
5872.630283
5865.477725
5860.470934
5869.702204
5869.054004
5857.811076
5847.998661
5859.085126
5861.409707
5857.252283
5849.943262
5859.822733
5865.745946
5858.414573
5853.385431
5859.107478
5867.131754
5861.3203
5854.838294
5855.061812
5863.24255
5868.651672
5848.937434
5848.870379
5860.359175
5867.154106
5854.52537
5853.698355
5857.207579
5864.158972
5852.692527
5846.344631
5851.999623
5865.254207
5854.503018
5844.780009
5854.212446
5866.036518
5858.548684
5850.479704
5854.503018
5868.092879
5864.918931
5857.118172
5854.167742
5867.377623
5864.740117
5855.754716
5853.072507
5861.141486
5859.353347
5856.06764
5854.078335
5863.689585
5867.757603
5855.710012
5852.334899
5866.640015
5863.287254
5857.699318
5856.201751
5862.21437
5866.818829
5859.576864
5854.234797
5855.017108
5871.512696
5865.880056
5851.664347
5854.413611
5869.545742
5871.289178
5856.201751
5858.973367
5862.281425
5868.718728
5858.056946
5856.425268
5863.62253
5869.881018
5860.135658
5857.945187
5864.494248
5866.014167
5859.599216
5853.944225
5862.281425
5866.57296
5865.187152
5859.599216
5862.281425
5871.490344
5868.919893
5862.102611
5859.755678
5869.299873
5870.864495
5869.076356
5863.466068
5865.276559
5868.808135
5852.871341
5850.211483
5860.42623
5861.812039
5854.190094
5850.144428
5868.338748
5865.67889
5850.725573
5841.695469
5853.385431
5863.153143
5854.279501
5850.345594
5850.569111
5858.034594
5855.911178
5842.366021
5849.1386
5861.096783
5859.085126
5848.043364
5847.015184
5858.973367
5862.437887
5852.960748
5845.696431
5854.52537
5859.755678
5851.776105
5846.702259
5856.246454
5865.120097
5854.346556
5848.37864
5857.654614
5863.62253
5861.543818
5846.903425
5851.485533
5866.170629
5857.453448
5847.126943
5850.099725
5861.365004
5864.985986
5850.479704
5844.109457
5857.431097
5861.901446
5857.073469
5850.859684
5859.040422
5869.478687
5857.296986
5852.446658
5859.688623
5865.522428
5864.918931
5852.133733
5856.849951
5868.3611
5864.382489
5850.502056
5850.412649
5863.577826
5864.471896
5864.583655
5869.277521
5872.943207
5873.122021
5852.513713
5834.744076
5828.26207
5809.888936
5812.034704
5829.089085
5853.273672
5858.325167
5850.278538
5849.250358
5857.028765
5864.784821
5857.073469
5849.742097
5855.017108
5865.1648
5852.625472
5847.551626
5853.854818
5860.605044
5858.615739
5851.418477
5849.675041
5858.056946
5855.955882
5849.160951
5847.685736
5859.330995
5865.008338
5846.121114
5841.539006
5847.663384
5853.363079
5848.848027
5837.538044
5845.070582
5854.078335
5850.256187
5838.834445
5843.952995
5857.296986
5845.405858
5841.58371
5840.779047
5850.010318
5850.926739
5840.756695
5846.791666
5854.860646
5854.123039
5843.349498
5841.851931
5848.400992
5851.373774
5847.462219
5847.685736
5847.193998
5857.587559
5846.83637
5841.002565
5846.076411
5856.246454
5855.620605
5850.636166
5854.01128
5863.823696
5858.347518
5849.1386
5852.066678
5858.36987
5861.342652
5849.362117
5845.182341
5859.420402
5862.571998
5847.529274
5843.841236
5852.871341
5858.816905
5849.764448
5839.817922
5855.128867
5863.153143
5851.262015
5848.915082
5857.408745
5863.644882
5864.13662
5856.224103
5856.291158
5866.57296
5869.210466
5858.414573
5859.643919
5864.091917
5868.651672
5860.247417
5858.995719
5871.69151
5870.171591
5860.448582
5854.950053
5862.549646
5869.590446
5855.642957
5850.367945
5865.365966
5869.925722
5856.201751
5852.580768
5862.236722
5869.25517
5861.610873
5856.112344
5856.134696
5866.394146
5866.371795
5858.079297
5856.872303
5868.472858
5866.014167
5856.693489
5855.017108
5865.835353
5863.309606
5853.720707
5848.75862
5857.878132
5868.986949
5858.973367
5850.569111
5852.446658
5865.187152
5857.788725
5847.193998
5857.85578
5863.890751
5863.019033
5856.537027
5859.39805
5866.57296
5865.053042
5855.41944
5857.632262
5870.328053
5864.896579
5855.955882
5850.256187
5865.477725
5867.98112
5864.829524
5860.202713
5866.617664
5868.830486
5869.098707
5858.794553
5861.18619
5866.662367
5862.683757
5856.112344
5860.761507
5870.037481
5869.501039
5863.734289
5868.3611
5876.787707
5871.043309
5861.052079
5867.064699
5875.02192
5878.598199
5872.295007
5868.003472
5876.43008
5877.413556
5861.901446
5859.308643
5865.343614
5871.937379
5862.862571
5854.301853
5862.147315
5874.172553
5862.862571
5856.492323
5862.057908
5867.511733
5865.54478
5854.860646
5853.877169
5871.602103
5871.199771
5857.565207
5860.090954
5870.506867
5869.25517
5860.582693
5856.179399
5869.612797
5875.67012
5860.649748
5855.799419
5867.377623
5872.71969
5862.683757
5858.906312
5862.21437
5872.071489
5867.824658
5856.201751
5861.990853
5871.937379
5860.694451
5854.793591
5860.783858
5873.881981
5865.477725
5855.173571
5851.284367
5861.901446
5869.881018
5860.761507
5858.526332
5864.270731
5870.596274
5866.796478
5860.023899
5867.712899
5875.826582
5865.276559
5859.26394
5864.784821
5874.686643
5872.049138
5863.890751
5869.121059
5876.318321
5865.231856
5854.055983
5860.42623
5872.496172
5873.792574
5866.170629
5863.644882
5872.630283
5877.994702
5860.716803
5858.615739
5871.892675
5877.525315
5868.763431
5860.985024
5864.069565
5874.239609
5869.478687
5863.667233
5873.434946
5877.726481
5871.378585
5862.281425
5864.717765
5874.843106
5869.813963
5856.760544
5860.448582
5872.71969
5878.665254
5866.483553
5865.03069
5874.954864
5878.374681
5862.281425
5861.901446
5873.502001
5882.375644
5871.915027
5862.639053
5875.468954
5882.442699
5871.579751
5863.354309
5871.17742
5878.419385
5868.763431
5855.017108
5859.800382
5872.943207
5866.237684
5862.639053
5862.370832
5874.060795
5870.685681
5849.607986
5852.804286
5863.75664
5864.270731
5855.03946
5856.335861
5868.070527
5875.401899
5863.287254
5854.972405
5864.673062
5872.920856
5870.596274
5856.917007
5862.549646
5873.636111
5864.918931
5859.800382
5864.5166
5873.434946
5875.960693
5861.007376
5860.336824
5871.669158
5865.477725
5858.973367
5847.35046
5854.771239
5864.628358
5852.73723
5847.462219
5855.754716
5863.354309
5852.759582
5847.842198
5852.513713
5865.388318
5856.268806
5850.435001
5851.887864
5861.722632
5859.152181
5851.19496
5852.469009
5859.934492
5858.638091
5845.316451
5849.831504
5858.325167
5858.213408
5847.48457
5849.764448
5866.640015
5867.534085
5857.565207
5863.466068
5876.94417
5880.833373
5869.366928
5855.352384
5860.985024
5866.796478
5861.074431
5854.123039
5859.308643
5857.028765
5854.972405
5843.88594
5847.953957
5862.236722
5857.140524
5848.669213
5847.48457
5855.531198
5858.034594
5843.237739
5836.643974
5844.690602
5857.922835
5850.546759
5844.847065
5854.838294
5863.600178
5851.619643
5848.557454
5857.431097
5866.260036
5865.54478
5853.787762
5864.069565
5869.948074
5860.716803
5850.010318
5857.900483
5870.439812
5867.265864
5860.895617
5861.70028
5864.740117
5856.671137
5834.900538
5821.288326
5832.374791
5845.696431
5850.859684
5854.324204
5864.918931
5873.278484
5863.175495
5858.079297
5872.250303
5871.892675
5865.410669
5857.319338
5859.040422
5872.183248
5867.735251
5860.001547
5861.499114
5864.471896
5870.886847
5869.813963
5871.155068
5871.44564
5867.869361
5847.082239
5848.535102
5868.271693
5871.959731
5859.420402
5852.267844
5859.085126
5873.077318
5855.128867
5855.285329
5859.800382
5874.530181
5863.466068
5851.552588
5864.427193
5870.551571
5869.031652
5852.290195
5859.599216
5871.289178
5872.697338
5859.375698
5857.542855
5864.740117
5871.490344
5857.945187
5851.619643
5862.72846
5872.295007
5863.62253
5855.128867
5861.432059
5869.433983
5862.169667
5855.687661
5863.488419
5868.472858
5862.415536
5865.455373
5860.716803
5866.997643
5868.182286
5855.620605
5861.052079
5863.175495
5861.387355
5855.128867
5859.532161
5870.216295
5865.634187
5857.118172
5862.102611
5872.496172
5873.166725
5858.526332
5854.368908
5864.561303
5866.036518
5861.096783
5863.913103
5859.934492
5866.125925
5869.858667
5866.707071
5866.505905
5882.241533
5883.962617
5869.813963
5869.635149
5878.642902
5878.86642
5875.044271
5869.143411
5880.319283
5881.772146
5869.836315
5870.909199
5879.827545
5889.796423
5879.268751
5869.299873
5877.234742
5882.33094
5878.419385
5871.155068
5871.244475
5883.582638
5877.055928
5870.551571
5876.206562
5893.149184
5886.153088
5866.95294
5869.38928
5886.130737
5886.264847
5871.69151
5871.266827
5880.207524
5883.135603
5872.183248
5872.965559
5880.006359
5876.251266
5872.183248
5871.624454
5882.576809
5885.303722
5878.374681
5876.743004
5881.615684
5884.499059
5882.800327
5877.100632
5887.941228
5896.479594
5897.530126
5885.929571
5880.632207
5892.344522
5890.01994
5880.27458
5874.64194
5887.248324
5889.975237
5884.789632
5879.313455
5893.171536
5892.188059
5877.011225
5858.638091
5867.690547
5873.010263
5867.735251
5866.640015
5871.266827
5874.217257
5868.092879
5859.733326
5862.437887
5871.937379
5874.396071
5870.909199
5865.656539
5877.324149
5876.810059
5867.712899
5862.571998
5871.222123
5871.333882
5863.778992
5858.638091
5867.064699
5878.419385
5869.881018
5860.225065
5867.578789
5874.463126
5870.372757
5863.555475
5866.304739
5867.735251
5871.17742
5862.393184
5868.048175
5872.764393
5868.830486
5861.342652
5858.638091
5874.060795
5877.949998
5868.159934
5860.895617
5872.384414
5875.848934
5864.114268
5865.477725
5876.318321
5882.889734
5871.020957
5857.85578
5862.326129
5883.336769
5880.40869
5869.054004
5877.301798
5885.236667
5886.153088
5882.442699
5887.71771
5892.635094
5888.030635
5882.062719
5882.621513
5894.065606
5892.746853
5881.906257
5880.721614
5887.829469
5895.674931
5884.901391
5877.882943
5889.88583
5897.19485
5888.701187
5884.454356
5888.61178
5900.704074
5893.327998
5883.515583
5884.923742
5898.446548
5900.39115
5892.232763
5893.640923
5903.565097
5903.587449
5892.076301
5892.903315
5898.938286
5906.426121
5891.718673
5894.691455
5899.899411
5900.189984
5893.305647
5885.52724
5894.490289
5900.815833
5891.383397
5887.360083
5888.187097
5896.144318
5893.618571
5884.11908
5887.404786
5898.73712
5894.780862
5885.706053
5889.304684
5901.508737
5901.642847
5893.283295
5898.871231
5907.543708
5897.999513
5881.660388
5880.27458
5888.880001
5897.70894
5880.498097
5868.830486
5879.201696
5888.47767
5883.202658
5869.25517
5877.301798
5889.327036
5885.415481
5881.258056
5883.87321
5890.176402
5888.276504
5879.067585
5877.704129
5887.047158
5886.04133
5882.33094
5874.865457
5885.035501
5887.807117
5878.441737
5875.938341
5887.114213
5889.930533
5885.035501
5874.910161
5882.219181
5894.177365
5886.242495
5878.464088
5880.676911
5889.148222
5885.415481
5878.195867
5880.319283
5890.556382
5890.802251
5882.84503
5881.839202
5893.529164
5897.418368
5888.500022
5884.811984
5889.572905
5893.596219
5893.193888
5880.252228
5882.777975
5886.600123
5880.967484
5873.278484
5879.313455
5885.683702
5875.983045
5872.071489
5878.799364
5894.512641
5893.171536
5885.974274
5882.599161
5886.376606
5885.571943
5881.459222
5884.052024
5883.090899
5885.951923
5878.687606
5876.765356
5884.677873
5895.160841
5887.807117
5875.223085
5885.884867
5894.557344
5888.209449
5876.6983
5890.154051
5896.926629
5888.522373
5881.414519
5884.141431
5892.858612
5891.04812
5878.061757
5879.38051
5891.025769
5889.684664
5877.301798
5876.988873
5893.819737
5893.886792
5880.878077
5881.168649
5890.936362
5896.077263
5885.706053
5878.307626
5890.265809
5896.010208
5886.644827
5885.482536
5889.170574
5890.981065
5886.264847
5877.502963
5882.666216
5898.826527
5890.779899
5884.25319
5882.442699
5896.144318
5898.558307
5887.874173
5888.254152
5896.412539
5900.569964
5889.662312
5883.783803
5892.791556
5901.084054
5893.976199
5884.63317
5894.825565
5899.988818
5890.511679
5883.850859
5887.024806
5900.324094
5894.736158
5883.984969
5894.847917
5900.90524
5895.920801
5887.985931
5885.169612
5895.585525
5898.692417
5888.164745
5889.327036
5893.484461
5899.608839
5888.589428
5883.22501
5900.39115
5905.666161
5892.903315
5885.773109
5893.573868
5904.772091
5899.966466
5889.684664
5894.89262
5901.821661
5894.959676
5888.701187
5894.37853
5901.888716
5892.165708
5885.035501
5886.533068
5896.099615
5897.127795
5883.470879
5881.481574
5895.518469
5898.290086
5888.924705
5881.235705
5896.81487
5902.402807
5892.903315
5881.705091
5891.316341
5895.607876
5894.311475
5881.95096
5883.068548
5893.73033
5893.395054
5884.499059
5894.266772
5903.028655
5896.54665
5879.715786
5873.412594
5883.582638
5891.897487
5875.401899
5874.329016
5887.494193
5888.790594
5884.208487
5878.195867
5884.63317
5889.707016
5884.76728
5875.468954
5879.827545
5888.500022
5879.782841
5871.17742
5878.553495
5884.454356
5877.391205
5875.826582
5872.518524
5881.146298
5883.515583
5868.919893
5871.847972
5882.956789
5880.609856
5872.317359
5871.088013
5883.22501
5890.332865
5874.038443
5868.897542
5883.560286
5889.50585
5879.961655
5869.25517
5878.397033
5884.879039
5879.268751
5874.64194
5879.38051
5891.4281
5884.677873
5878.419385
5883.35912
5884.566114
5880.900428
5872.496172
5876.206562
5879.8946
5877.324149
5870.998606
5866.930588
5882.040367
5883.627341
5875.938341
5869.702204
5875.960693
5888.47767
5879.447565
5872.026786
5874.083146
5884.76728
5880.565152
5864.695414
5877.391205
5885.370777
5878.888771
5868.3611
5870.506867
5879.022882
5874.64194
5873.658463
5873.122021
5876.295969
5881.347463
5875.401899
5874.887809
5883.515583
5889.438795
5883.895562
5874.686643
5884.968446
5894.199716
5886.68953
5871.17742
5879.536972
5890.556382
5880.833373
5874.440774
5884.096728
5892.098652
5885.013149
5881.839202
5885.259019
5887.494193
5894.512641
5890.511679
5885.191963
5891.070472
5897.664237
5888.701187
5879.715786
5884.677873
5892.121004
5884.387301
5884.186135
5887.136565
5892.858612
5887.44949
5879.268751
5881.325112
5892.121004
5890.601085
5878.329978
5876.854763
5884.901391
5886.130737
5879.022882
5876.966521
5891.04812
5887.427138
5872.630283
5874.574885
5885.884867
5889.036463
5882.129774
5878.687606
5888.47767
5895.853745
5888.969408
5879.38051
5886.801289
5896.099615
5890.779899
5882.666216
5890.221106
5896.345484
5889.952885
5882.018016
5879.715786
5892.478632
5893.73033
5882.085071
5881.43687
5897.843051
5893.015074
5884.655521
5882.107423
5891.606914
5899.832356
5888.924705
5895.093786
5890.645789
5890.265809
5873.61376
5863.600178
5872.742042
5882.688568
5873.971388
5862.281425
5868.271693
5879.469917
5873.569056
5859.219236
5863.801344
5880.676911
5872.004434
5864.427193
5859.040422
5870.573922
5872.630283
5865.298911
5865.365966
5870.082184
5873.703167
5864.807172
5863.667233
5870.28335
5874.284312
5871.043309
5865.298911
5867.914065
5876.43008
5870.506867
5861.208542
5864.695414
5874.194905
5871.758565
5861.387355
5867.46703
5876.407728
5869.992777
5855.061812
5860.739155
5870.842143
5872.183248
5857.051117
5854.435963
5871.222123
5875.066623
5868.294045
5856.179399
5868.718728
5878.709957
5867.310568
5854.882998
5868.696376
5875.088975
5869.545742
5858.593387
5863.287254
5871.44564
5866.885885
5860.448582
5860.269768
5870.037481
5867.042347
5861.812039
5861.409707
5871.82562
5872.295007
5865.097745
5861.052079
5868.271693
5870.551571
5860.537989
5854.90535
5864.114268
5870.28335
5866.371795
5853.273672
5864.337786
5874.060795
5870.976254
5866.014167
5871.915027
5885.594295
5883.962617
5868.517562
5869.90337
5873.479649
5873.144373
5861.163838
5857.095821
5870.663329
5877.726481
5867.131754
5856.760544
5866.215332
5866.863533
5861.342652
5859.77803
5869.501039
5871.959731
5867.779954
5864.807172
5871.065661
5872.71969
5866.081222
5861.83439
5868.606969
5877.547667
5879.648731
5868.584617
5864.337786
5875.893638
5872.071489
5857.028765
5867.914065
5887.114213
5885.013149
5876.43008
5873.971388
5889.37174
5896.323132
5891.629266
5873.680815
5878.575847
5889.88583
5880.207524
5874.418423
5881.459222
5890.623437
5884.566114
5875.647768
5877.525315
5888.924705
5886.644827
5871.624454
5872.607931
5888.99176
5887.941228
5880.632207
5880.878077
5893.685626
5889.103519
5880.319283
5878.262923
5887.695359
5892.83626
5883.649693
5882.286237
5885.929571
5895.250248
5889.930533
5883.247362
5885.571943
5892.053949
5893.506812
5886.354254
5887.605952
5889.774071
5892.813908
5883.336769
5886.17544
5897.284257
5898.044216
5886.108385
5884.677873
5893.953847
5892.523336
5883.22501
5880.118117
5888.432966
5889.908181
5885.169612
5878.777013
5891.003417
5889.483498
5890.869306
5879.313455
5881.168649
5892.948019
5892.880963
5879.313455
5880.900428
5893.372702
5891.673969
5882.956789
5881.526277
5894.89262
5892.478632
5880.989835
5881.43687
5887.985931
5889.394091
5882.174478
5876.18421
5886.466013
5891.025769
5887.20362
5887.091862
5894.914972
5895.764338
5880.319283
5868.651672
5872.786745
5888.142394
5881.593332
5864.337786
5870.998606
5882.107423
5869.992777
5863.287254
5862.504943
5867.98112
5870.618626
5866.148277
5858.772201
5869.366928
5872.607931
5865.343614
5860.269768
5868.338748
5870.484515
5868.472858
5863.801344
5865.790649
5874.64194
5872.227952
5865.67889
5868.629321
5878.86642
5872.987911
5868.450507
5868.383452
5874.306664
5877.502963
5862.21437
5863.846047
5877.637074
5879.268751
5862.661405
5860.269768
5873.502001
5875.334844
5868.249341
5858.995719
5867.712899
5876.854763
5864.829524
5854.391259
5859.643919
5870.886847
5873.837277
5858.213408
5864.069565
5873.09967
5870.104536
5858.548684
5865.03069
5875.066623
5876.251266
5865.589483
5861.543818
5869.545742
5876.877114
5867.802306
5862.795515
5872.607931
5877.145335
5866.640015
5861.432059
5873.792574
5879.425213
5865.768297
5862.504943
5865.455373
5875.603065
5872.384414
5859.867437
5860.828562
5870.149239
5873.61376
5862.750812
5863.354309
5876.832411
5879.469917
5865.790649
5867.399975
5882.666216
5888.030635
5880.676911
5873.23378
5880.945132
5886.823641
5879.849896
5871.289178
5871.959731
5883.381472
5873.792574
5863.130792
5873.300835
5887.941228
5879.872248
5862.057908
5866.617664
5877.055928
5877.257094
5864.226027
5862.951978
5876.966521
5877.257094
5865.969463
5863.510771
5875.245437
5882.33094
5875.714824
5865.701242
5872.272655
5880.78867
5877.659425
5861.655576
5861.901446
5865.768297
5862.616701
5857.788725
5866.103574
5878.955827
5872.33971
5864.963635
5865.254207
5875.804231
5874.172553
5865.231856
5863.331957
5874.485478
5882.062719
5867.422326
5862.683757
5872.026786
5879.313455
5873.636111
5863.778992
5866.930588
5871.356234
5868.696376
5864.13662
5870.216295
5876.407728
5871.31153
5865.276559
5870.596274
5880.341635
5873.524353
5859.800382
5862.169667
5876.027748
5872.116193
5864.538951
5862.057908
5872.652635
5880.006359
5864.851876
5862.571998
5868.87519
5874.463126
5869.836315
5864.069565
5875.15603
5876.318321
5872.33971
5864.717765
5871.713861
5874.418423
5869.165763
5871.289178
5872.742042
5881.861553
5881.280408
5873.412594
5868.785783
5875.603065
5876.743004
5862.102611
5869.948074
5876.854763
5879.604027
5871.065661
5864.807172
5876.407728
5879.38051
5870.618626
5865.433021
5872.004434
5880.341635
5873.345539
5865.1648
5870.328053
5877.97235
5873.457297
5867.623492
5870.573922
5885.259019
5881.43687
5866.103574
5863.443716
5877.368853
5876.743004
5862.996681
5864.337786
5882.979141
5886.533068
5875.848934
5869.925722
5876.899466
5879.916952
5874.016091
5870.328053
5881.123946
5889.438795
5880.855725
5869.143411
5873.278484
5885.460184
5879.134641
5865.611835
5871.758565
5882.129774
5877.949998
5869.612797
5868.674024
5882.219181
5886.17544
5869.836315
5862.616701
5878.285274
5882.375644
5872.898504
5868.606969
5877.704129
5884.432004
5873.323187
5870.618626
5876.363024
5887.829469
5878.553495
5862.057908
5868.852838
5881.123946
5879.961655
5870.260998
5873.077318
5884.342597
5882.129774
5866.550608
5868.271693
5878.307626
5881.43687
5874.574885
5873.122021
5884.454356
5884.834335
5873.502001
5865.142449
5876.631245
5883.806155
5877.190039
5866.371795
5871.82562
5882.621513
5879.425213
5870.104536
5875.133678
5877.033577
5880.78867
5871.490344
5874.060795
5885.348426
5880.162821
5871.982082
5873.390242
5885.415481
5878.48644
5873.61376
5872.227952
5885.124908
5885.035501
5872.563228
5869.38928
5879.201696
5888.812946
5880.900428
5872.898504
5875.491306
5887.136565
5876.318321
5875.714824
5882.912085
5887.047158
5878.218219
5873.479649
5878.218219
5889.103519
5892.523336
5874.664292
5875.826582
5884.946094
5885.482536
5877.860591
5869.478687
5877.882943
5880.833373
5871.892675
5869.657501
5875.714824
5881.615684
5872.250303
5863.935454
5870.551571
5880.632207
5871.937379
5862.706108
5869.366928
5881.481574
5877.726481
5868.092879
5870.618626
5879.00053
5876.363024
5865.902408
5864.00251
5879.156992
5878.039405
5871.959731
5865.969463
5873.546704
5879.51462
5869.366928
5873.546704
5880.319283
5877.435908
5865.656539
5855.955882
5863.287254
5876.474783
5868.651672
5848.266881
5859.107478
5872.071489
5866.885885
5858.079297
5860.895617
5870.126888
5864.896579
5853.988928
5857.095821
5868.539914
5865.902408
5855.911178
5852.178437
5861.566169
5875.066623
5860.448582
5854.637129
5868.271693
5878.441737
5868.070527
5858.88396
5868.696376
5875.893638
5875.200734
5865.298911
5860.225065
5875.357196
5873.434946
5856.425268
5862.884922
5874.708995
5872.473821
5864.449544
5869.836315
5872.160896
5877.704129
5865.008338
5865.902408
5873.412594
5874.105498
5868.405803
5861.365004
5870.685681
5878.978178
5867.757603
5858.436925
5865.723594
5881.325112
5874.664292
5864.293082
5864.963635
5875.603065
5877.368853
5866.684719
5863.175495
5875.446603
5874.731347
5861.3203
5860.985024
5871.378585
5878.307626
5865.969463
5867.109402
5875.066623
5884.007321
5874.798402
5856.984062
5865.03069
5880.006359
5876.139507
5865.835353
5866.416498
5881.056891
5868.49521
5859.420402
5861.387355
5877.011225
5878.955827
5873.569056
5869.948074
5882.286237
5888.61178
5873.189077
5869.612797
5886.376606
5887.829469
5870.596274
5868.048175
5879.760489
5884.856687
5873.524353
5865.410669
5876.139507
5879.782841
5870.708033
5869.992777
5875.826582
5876.295969
5875.178382
5864.807172
5866.908236
5872.518524
5872.652635
5865.365966
5867.019995
5878.441737
5881.660388
5866.394146
5868.696376
5879.536972
5881.995664
5867.936417
5866.483553
5878.173516
5881.81685
5872.674986
5872.652635
5873.189077
5884.409652
5876.18421
5866.304739
5871.959731
5880.989835
5875.580713
5867.08705
5867.534085
5879.38051
5881.414519
5871.959731
5873.859629
5883.202658
5879.246399
5870.059832
5868.696376
5881.012187
5882.33094
5868.49521
5870.350405
5876.988873
5880.162821
5871.780917
5866.192981
5874.194905
5884.588466
5879.626379
5863.510771
5862.884922
5879.492269
5875.647768
5865.365966
5864.695414
5872.362062
5870.775088
5865.522428
5859.107478
5872.227952
5870.819792
5858.615739
5849.742097
5856.134696
5851.619643
5830.072562
5817.063846
5828.619698
5840.399067
5846.076411
5845.651727
5854.90535
5868.383452
5867.556437
5857.207579
5864.270731
5879.492269
5882.889734
5869.76926
5868.584617
5874.440774
5874.396071
5869.52339
5857.945187
5877.704129
5876.407728
5862.996681
5859.666271
5870.462164
5871.937379
5862.616701
5859.599216
5863.913103
5871.44564
5864.114268
5855.531198
5861.901446
5873.658463
5870.439812
5858.928664
5861.208542
5866.036518
5867.154106
5853.228969
5855.017108
5868.674024
5864.248379
5851.999623
5851.440829
5858.906312
5864.114268
5858.079297
5854.055983
5862.884922
5867.46703
5861.052079
5854.324204
5863.935454
5867.735251
5858.794553
5851.32907
5859.487457
5866.841181
5851.32907
5850.345594
5859.487457
5867.355271
5864.293082
5850.256187
5854.480666
5867.623492
5860.113306
5846.791666
5847.015184
5862.706108
5863.019033
5852.156085
5852.513713
5858.973367
5867.198809
5855.307681
5851.887864
5859.487457
5865.522428
5860.783858
5850.099725
5856.984062
5862.795515
5859.219236
5851.843161
5849.809152
5860.29212
5862.750812
5853.184265
5854.972405
5861.499114
5865.969463
5860.381527
5854.592425
5862.281425
5862.661405
5855.710012
5850.591463
5856.8276
5862.884922
5853.564245
5845.003527
5856.022937
5864.315434
5854.413611
5851.843161
5854.368908
5862.370832
5856.872303
5850.882036
5854.458315
5864.762469
5854.570073
5852.178437
5857.095821
5867.757603
5865.611835
5858.816905
5854.927701
5866.751774
5866.796478
5851.217312
5849.1386
5857.252283
5855.955882
5851.32907
5839.79557
5847.998661
5854.234797
5850.30089
5844.243567
5854.033632
5861.812039
5855.754716
5841.874283
5839.974384
5853.564245
5858.861608
5845.897597
5845.003527
5859.107478
5863.24255
5848.356288
5849.160951
5860.225065
5860.962672
5849.675041
5847.328108
5852.848989
5857.229931
5858.548684
5851.552588
5858.146353
5862.415536
5854.570073
5841.114323
5844.780009
5855.151219
5852.111382
5845.9423
5848.445695
5855.821771
5847.506922
5840.55553
5838.38741
5856.917007
5856.201751
5846.054059
5845.607024
5856.894655
5858.302815
5850.323242
5841.96369
5845.607024
5854.726536
5849.965614
5843.684774
5840.197902
5848.915082
5845.80819
5837.202768
5843.662422
5853.296024
5848.199826
5839.773219
5850.926739
5856.8276
5858.325167
5848.289233
5849.496227
5863.555475
5861.163838
5845.80819
5844.936472
5857.98989
5862.415536
5847.819847
5846.523445
5857.587559
5863.935454
5858.056946
5848.713916
5857.006414
5866.908236
5867.46703
5856.000585
5855.799419
5865.03069
5859.308643
5847.305756
5851.06085
5858.481629
5861.163838
5851.820809
5845.56232
5856.201751
5858.526332
5846.903425
5843.796533
5858.593387
5864.494248
5852.670175
5849.362117
5851.038498
5857.967539
5854.123039
5847.372812
5848.065716
5862.840219
5860.42623
5849.093896
5850.725573
5858.861608
5857.587559
5851.887864
5848.89273
5860.6721
5862.683757
5851.932568
5841.136675
5851.06085
5857.162876
5845.651727
5838.990908
5848.982137
5849.339765
5844.511788
5844.377678
5848.266881
5855.03946
5847.73044
5838.141541
5839.884977
5855.531198
5852.893693
5838.677983
5839.14737
5853.430134
5853.49719
5842.544835
5842.678945
5853.452486
5850.345594
5840.644937
5841.091972
5852.066678
5857.632262
5844.511788
5839.214425
5856.44762
5860.381527
5843.550663
5840.30966
5847.819847
5850.435001
5843.282442
5840.913158
5843.148332
5852.9831
5853.899521
5844.958823
5843.573015
5855.106515
5854.279501
5839.817922
5839.080315
5848.155123
5853.11721
5845.070582
5841.851931
5848.646861
5855.441791
5845.852893
5839.460294
5848.132771
5851.306719
5845.003527
5839.192073
5849.250358
5857.922835
5849.876207
5837.180416
5844.712954
5853.161914
5851.552588
5844.064754
5846.411687
5856.179399
5851.910216
5843.707126
5840.354364
5850.837332
5850.882036
5844.712954
5838.812094
5851.06085
5854.257149
5850.189132
5842.053097
5854.190094
5857.542855
5849.116248
5844.355326
5851.06085
5856.671137
5847.238701
5843.729477
5848.37864
5860.001547
5855.978233
5844.064754
5846.925777
5857.408745
5854.234797
5836.889844
5837.73921
5847.775143
5854.614777
5842.880111
5839.393239
5851.217312
5860.783858
5853.005451
5840.935509
5849.742097
5856.045289
5847.149294
5843.841236
5842.500131
5854.614777
5853.385431
5842.343669
5839.750867
5852.938396
5852.312547
5840.019088
5835.057001
5847.909254
5851.127905
5841.784876
5840.756695
5849.987966
5857.85578
5847.529274
5842.544835
5848.959786
5857.140524
5841.606062
5832.307736
5846.389335
5849.719745
5842.321317
5834.811131
5841.293137
5852.200789
5852.379602
5841.315489
5841.293137
5851.641995
5855.687661
5841.114323
5843.12598
5852.401954
5850.971443
5838.946204
5835.928719
5844.40003
5852.558416
5843.997698
5838.298003
5845.651727
5857.185228
5850.770277
5847.015184
5854.346556
5865.298911
5856.425268
5848.289233
5852.379602
5862.706108
5851.217312
5841.002565
5850.770277
5849.943262
5843.684774
5838.63328
5840.600233
5853.363079
5853.027803
5841.941338
5840.980213
5845.584672
5855.754716
5845.472913
5836.755733
5848.959786
5856.06764
5845.04823
5836.241643
5850.233835
5857.900483
5841.784876
5838.655631
5845.629376
5854.570073
5847.641033
5839.192073
5837.023954
5850.211483
5850.658518
5839.572053
5838.141541
5844.869416
5845.9423
5835.168759
5836.867492
5848.646861
5852.73723
5839.996736
5834.744076
5846.679908
5847.372812
5841.002565
5831.59248
5837.716858
5852.670175
5841.740172
5834.520559
5838.521521
5848.75862
5841.06962
5831.659535
5836.018126
5845.04823
5847.641033
5839.326184
5835.012297
5842.455428
5846.590501
5838.096838
5836.84514
5847.909254
5848.155123
5840.421419
5839.79557
5843.371849
5853.698355
5846.255224
5839.66146
5847.261053
5852.826637
5846.076411
5833.470027
5838.588576
5852.960748
5849.27271
5840.376716
5843.617719
5847.037536
5846.635204
5840.622585
5837.672155
5848.713916
5849.250358
5839.482646
5838.365059
5843.170684
5843.997698
5840.153198
5839.706163
5844.444733
5852.469009
5847.082239
5837.35923
5845.495265
5847.171646
5838.946204
5830.5643
5838.856797
5847.931605
5852.111382
5834.677021
5838.499169
5851.239664
5848.646861
5834.900538
5831.324259
5842.053097
5845.04823
5840.332012
5836.46516
5845.182341
5854.234797
5845.897597
5829.960803
5836.196939
5844.422381
5838.923852
5838.856797
5836.308698
5850.010318
5843.282442
5834.945242
5838.298003
5842.544835
5843.729477
5833.604137
5832.62066
5842.544835
5849.65269
5838.052134
5832.933585
5843.729477
5846.948129
5837.918024
5836.107533
5843.64007
5845.830541
5839.527349
5834.811131
5839.169722
5845.495265
5845.361155
5836.889844
5845.271748
5851.820809
5847.059887
5838.141541
5843.729477
5852.290195
5850.949091
5839.996736
5837.292175
5850.189132
5852.044326
5841.226082
5836.353402
5845.249396
5846.568149
5839.639108
5832.374791
5840.935509
5847.775143
5841.740172
5830.720762
5841.159027
5849.898559
5847.193998
5839.013259
5841.874283
5847.417515
5844.355326
5836.778085
5835.504035
5844.735306
5848.155123
5843.416553
5842.701297
5850.926739
5844.623547
5839.929681
5838.11919
5844.355326
5846.255224
5838.476817
5832.397143
5838.990908
5844.243567
5840.376716
5838.856797
5847.48457
5851.396126
5846.143466
5836.643974
5839.482646
5852.245492
5856.469972
5848.691565
5850.122076
5859.867437
5858.705146
5842.634242
5838.521521
5845.987004
5843.103629
5837.470989
5839.482646
5845.137637
5850.435001
5842.790704
5836.46516
5847.708088
5855.285329
5844.332974
5833.626489
5844.802361
5851.530236
5848.043364
5842.053097
5841.315489
5849.205655
5847.641033
5836.912195
5843.058925
5852.066678
5845.80819
5836.532216
5843.327146
5852.178437
5854.480666
5845.204693
5838.007431
5847.082239
5848.825675
5842.410724
5836.84514
5844.064754
5856.425268
5843.371849
5834.162931
5845.070582
5850.189132
5841.784876
5835.191111
5836.196939
5847.015184
5842.321317
5838.320355
5838.320355
5849.362117
5850.010318
5842.0978
5837.448637
5844.578844
5853.519541
5843.394201
5836.867492
5846.143466
5849.697393
5842.61189
5842.388373
5851.507884
5846.948129
5841.650765
5837.895672
5844.377678
5852.066678
5845.897597
5831.2125
5840.890806
5850.770277
5849.183303
5841.494303
5840.488474
5851.686698
5857.498152
5841.06962
5835.839312
5847.082239
5847.462219
5839.884977
5839.125018
5844.891768
5845.741134
5835.928719
5833.827655
5842.433076
5846.612852
5846.277576
5838.298003
5842.813056
5849.7868
5847.149294
5838.745038
5838.968556
5848.177475
5847.149294
5837.180416
5839.326184
5848.132771
5853.899521
5842.544835
5842.343669
5855.173571
5855.955882
5842.120152
5842.880111
5847.059887
5850.882036
5846.612852
5842.254262
5848.199826
5852.60312
5846.143466
5840.823751
5844.444733
5853.854818
5848.266881
5842.768352
5842.567187
5854.860646
5855.41944
5843.88594
5846.210521
5857.542855
5860.649748
5849.339765
5845.137637
5857.453448
5854.793591
5850.345594
5844.131809
5855.710012
5858.168704
5852.714879
5841.71782
5853.474838
5860.42623
5854.972405
5845.584672
5846.501094
5857.98989
5853.586597
5845.294099
5848.490399
5861.230893
5854.793591
5843.796533
5849.384469
5853.005451
5856.917007
5848.423344
5841.740172
5848.624509
5849.943262
5843.550663
5837.649803
5848.937434
5860.225065
5849.563283
5846.188169
5850.502056
5859.822733
5850.926739
5841.762524
5846.143466
5856.58173
5854.860646
5844.981175
5847.35046
5857.185228
5855.03946
5842.209559
5839.259128
5854.860646
5847.752791
5845.472913
5844.556492
5852.267844
5860.023899
5856.604082
5845.607024
5855.41944
5863.063736
5851.172608
5844.735306
5855.195922
5859.889789
5857.498152
5851.396126
5852.290195
5863.041385
5863.086088
5851.373774
5846.814018
5859.889789
5858.056946
5848.736268
5847.35046
5859.241588
5866.818829
5856.738193
5853.206617
5857.408745
5865.455373
5857.85578
5848.177475
5857.766373
5859.26394
5849.026841
5844.668251
5850.30089
5863.62253
5859.487457
5844.198864
5851.06085
5864.918931
5856.179399
5845.56232
5840.220253
5854.860646
5853.340727
5840.443771
5848.333937
5861.052079
5866.640015
5861.83439
5855.754716
5863.890751
5864.360138
5854.704184
5855.128867
5860.739155
5864.5166
5860.269768
5846.501094
5852.066678
5862.102611
5863.75664
5849.697393
5855.508847
5865.567132
5863.644882
5852.178437
5849.518579
5860.761507
5863.443716
5848.333937
5846.45639
5863.197847
5867.176457
5856.425268
5854.413611
5862.348481
5859.956844
5859.755678
5853.966576
5857.833428
5867.131754
5853.832466
5848.266881
5853.586597
5869.188114
5866.349443
5856.849951
5856.469972
5866.170629
5864.918931
5855.844123
5856.425268
5867.198809
5868.808135
5853.608948
5853.139562
5861.83439
5865.656539
5850.591463
5847.372812
5856.872303
5863.778992
5852.469009
5849.853855
5861.275597
5867.757603
5855.732364
5849.697393
5852.558416
5864.248379
5858.191056
5850.703222
5856.805248
5862.795515
5863.533123
5856.291158
5859.487457
5863.711937
5870.082184
5857.185228
5855.844123
5864.874228
5872.004434
5866.371795
5856.671137
5866.595312
5871.713861
5863.555475
5856.917007
5863.466068
5873.636111
5865.969463
5851.150257
5855.531198
5864.293082
5864.494248
5858.548684
5862.437887
5870.953902
5868.316396
5855.888826
5857.229931
5870.28335
5868.919893
5855.866475
5855.307681
5862.750812
5867.221161
5861.275597
5856.246454
5864.404841
5872.183248
5861.566169
5850.770277
5856.96171
5867.444678
5864.941283
5853.340727
5856.469972
5868.584617
5858.995719
5851.910216
5855.93353
5869.657501
5861.83439
5854.592425
5857.587559
5867.511733
5868.852838
5849.65269
5850.435001
5860.873265
5862.773164
5856.849951
5852.670175
5859.196885
5862.460239
5855.754716
5852.804286
5860.739155
5868.3611
5860.761507
5853.49719
5860.336824
5866.371795
5871.400937
5857.229931
5856.089992
5865.120097
5862.59435
5850.457352
5852.178437
5870.059832
5865.477725
5857.028765
5854.01128
5860.202713
5862.303777
5853.720707
5854.391259
5858.995719
5863.801344
5856.268806
5853.854818
5855.374736
5863.890751
5863.153143
5853.608948
5854.033632
5860.336824
5863.041385
5847.976309
5851.32907
5861.923797
5854.234797
5850.792629
5852.22314
5862.504943
5873.345539
5857.4758
5855.911178
5863.890751
5865.053042
5853.6313
5845.9423
5852.781934
5860.113306
5851.306719
5842.634242
5850.122076
5859.129829
5847.261053
5840.04144
5840.779047
5855.732364
5858.012242
5846.925777
5843.88594
5855.285329
5857.364041
5847.439867
5843.707126
5855.397088
5855.866475
5849.764448
5843.952995
5854.793591
5853.318376
5844.668251
5842.835408
5846.702259
5858.727498
5851.932568
5842.030745
5852.178437
5854.033632
5850.725573
5838.298003
5841.404896
5858.012242
5860.828562
5848.646861
5849.697393
5857.878132
5859.554512
5850.993794
5847.797495
5856.022937
5857.4758
5849.898559
5840.756695
5849.071544
5859.196885
5852.759582
5838.320355
5851.351422
5859.889789
5852.558416
5842.030745
5841.986041
5851.776105
5853.296024
5844.891768
5845.249396
5851.843161
5855.486495
5844.824713
5846.121114
5858.146353
5862.124963
5859.129829
5855.464143
5859.107478
5865.991815
5854.055983
5847.238701
5851.507884
5859.710975
5850.926739
5841.986041
5849.943262
5857.073469
5855.55355
5843.573015
5850.278538
5858.906312
5855.799419
5848.333937
5850.010318
5861.3203
5857.632262
5843.707126
5847.976309
5860.783858
5858.816905
5845.80819
5840.086143
5855.061812
5858.36987
5851.262015
5844.869416
5849.697393
5855.508847
5850.792629
5843.50596
5853.251321
5858.772201
5853.094858
5839.348535
5844.467085
5855.41944
5852.781934
5842.455428
5847.641033
5850.703222
5853.184265
5840.667288
5843.260091
5853.832466
5859.39805
5847.73044
5847.283405
5856.089992
5857.296986
5854.368908
5851.284367
5855.397088
5866.014167
5857.699318
5850.055021
5858.056946
5864.360138
5860.739155
5846.746963
5848.043364
5864.5166
5861.946149
5853.541893
5854.681832
5865.991815
5864.628358
5850.703222
5848.602158
5862.370832
5866.95294
5851.396126
5854.033632
5862.72846
5864.091917
5854.391259
5839.929681
5858.593387
5865.902408
5858.168704
5852.73723
5858.995719
5868.159934
5863.130792
5848.691565
5848.646861
5859.39805
5862.840219
5853.407783
5854.927701
5865.522428
5867.131754
5853.541893
5848.982137
5869.165763
5869.881018
5860.940321
5857.945187
5862.907274
5867.064699
5859.77803
5853.765411
5863.24255
5867.46703
5864.941283
5851.06085
5856.358213
5867.444678
5863.801344
5849.026841
5856.514675
5869.456335
5866.930588
5855.620605
5855.55355
5866.595312
5862.706108
5851.731402
5848.959786
5860.716803
5863.667233
5853.944225
5851.552588
5857.587559
5862.996681
5863.510771
5855.844123
5863.354309
5873.256132
5872.33971
5860.605044
5863.75664
5873.725518
5866.707071
5856.022937
5858.191056
5868.025824
5868.964597
5859.532161
5857.319338
5864.494248
5864.226027
5858.101649
5856.782896
5862.750812
5869.590446
5859.710975
5852.08903
5862.393184
5869.25517
5858.280463
5847.685736
5859.889789
5872.049138
5863.823696
5858.191056
5858.213408
5866.505905
5865.187152
5852.826637
5859.107478
5867.265864
5861.342652
5849.27271
5851.753754
5863.62253
5867.131754
5859.77803
5859.77803
5862.706108
5867.131754
5856.022937
5850.926739
5863.063736
5866.818829
5856.06764
5853.094858
5863.711937
5872.227952
5865.075393
5853.676004
5858.951015
5867.422326
5866.215332
5859.755678
5864.762469
5871.82562
5872.809097
5862.147315
5854.346556
5867.98112
5872.406766
5862.862571
5859.085126
5864.360138
5869.054004
5861.946149
5858.995719
5868.472858
5874.194905
5866.975292
5859.465105
5863.130792
5875.223085
5869.121059
5861.454411
5857.431097
5870.529219
5867.824658
5861.297949
5866.57296
5875.513658
5874.440774
5859.867437
5858.74985
5872.272655
5872.674986
5860.895617
5857.051117
5868.182286
5874.239609
5866.125925
5861.767335
5863.980158
5870.439812
5866.081222
5857.587559
5855.620605
5867.534085
5859.867437
5860.046251
5865.097745
5868.986949
5862.996681
5856.805248
5861.208542
5872.384414
5876.139507
5868.674024
5867.444678
5879.156992
5880.02871
5864.673062
5857.4758
5866.595312
5873.703167
5867.735251
5860.269768
5862.72846
5870.104536
5860.962672
5850.278538
5857.811076
5866.483553
5867.712899
5856.939358
5853.653652
5866.192981
5861.901446
5851.820809
5856.715841
5868.070527
5868.249341
5860.180361
5861.387355
5868.651672
5871.356234
5857.788725
5851.865512
5868.763431
5872.317359
5864.5166
5860.202713
5869.679853
5880.565152
5867.802306
5861.096783
5865.634187
5874.12785
5871.892675
5859.129829
5862.437887
5880.140469
5876.6983
5865.343614
5867.33292
5876.18421
5877.167687
5868.271693
5866.371795
5872.764393
5872.674986
5859.710975
5862.974329
5870.104536
5874.753699
5863.287254
5859.666271
5866.304739
5874.284312
5870.395109
5861.342652
5861.990853
5875.625417
5869.590446
5855.911178
5860.42623
5874.239609
5870.28335
5863.75664
5862.840219
5871.780917
5871.579751
5863.421364
5854.391259
5866.461201
5873.837277
5861.677928
5857.386393
5871.289178
5870.752736
5855.93353
5853.363079
5863.10844
5873.926684
5870.618626
5860.225065
5863.801344
5874.373719
5871.110364
5857.833428
5859.979196
5872.272655
5873.636111
5858.012242
5864.65071
5877.07828
5871.646806
5858.88396
5862.437887
5868.405803
5874.016091
5867.668196
5863.62253
5870.28335
5880.900428
5862.907274
