ECG Channel 
6760.329814
6723.941174
6655.589539
6689.966522
6768.063518
6751.277357
6672.398051
6677.963636
6750.316232
6743.74482
6658.294101
6639.161007
6709.636058
6726.06459
6652.057964
6626.085237
6702.192927
6749.13159
6692.872249
6657.444734
6727.852729
6794.393873
6752.998442
6701.075339
6755.747706
6833.799998
6809.436597
6746.896416
6780.871067
6862.745507
6853.313071
6781.698082
6795.466756
6883.599685
6898.888278
6833.30826
6831.967155
6921.441188
6959.617968
6900.4529
6881.006882
6962.501343
7016.92784
6964.043613
6922.916403
6986.663578
7044.822817
6988.921105
6911.740531
6935.254566
6980.718014
6920.100083
6818.623164
6815.650382
6866.321786
6831.117789
6734.692363
6722.845939
6788.47066
6784.782622
6699.443662
6677.114269
6749.198645
6773.584398
6698.951924
6660.886903
6724.27645
6764.956625
6698.840165
6643.229025
6699.331903
6758.273454
6711.491252
6649.353403
6692.939304
6765.962454
6736.279337
6661.803324
6681.808136
6756.194741
6741.733163
6660.708089
6661.937435
6744.057744
6754.920692
6675.482592
6653.309662
6727.47275
6755.881817
6684.982083
6648.54874
6718.621459
6774.657282
6727.584508
6678.27656
6732.703058
6792.672788
6743.811875
6670.475801
6701.298857
6768.912884
6735.497026
6658.15999
6675.124964
6752.439648
6746.31527
6668.79942
6666.050156
6745.15298
6756.239445
6678.835354
6655.768353
6729.484407
6758.765192
6685.45147
6645.061868
6712.720598
6762.386174
6702.930534
6645.330089
6696.381473
6761.223884
6719.873157
0
6582.56639
6667.413612
6706.618572
6645.441847
6622.576013
6695.867383
6750.785619
6702.818776
6659.970481
6720.923689
6789.252971
6753.35607
6699.913049
6752.216131
6832.436542
6814.465739
6755.323023
6787.82246
6879.777536
6884.449051
6819.561937
6832.995335
6925.218633
6942.407124
6875.709519
6864.488943
6941.691869
6963.551875
6882.839725
6828.837911
6874.100193
6891.556906
6799.400663
6716.96743
6745.66707
6783.240352
6718.286183
6638.222234
6663.166781
6714.262869
6671.302816
6590.322446
6608.986152
6683.260999
6669.268807
6585.472117
6584.935675
6659.679909
6669.112345
6592.289399
6566.964873
6637.685792
6670.051118
6599.777234
6565.288492
6637.775199
6688.960694
6636.568205
6585.539172
6636.367039
6695.487403
6647.028821
6574.787983
6610.774292
6679.796479
6650.09101
6568.440088
6584.980379
6666.944226
6657.981176
6580.085347
6581.4041
6667.033633
6680.422328
6604.538155
6582.700501
6658.718784
6691.642903
6623.067751
6585.941504
6649.107534
6693.811022
6634.467141
6577.023158
6627.158121
6690.234743
6644.771295
6574.385652
6608.69558
6679.997644
6650.403935
6576.576123
6595.128071
6676.108441
6670.922836
6600.738359
6604.784024
6684.378586
6693.453395
6617.815091
6601.721835
6684.870325
6726.846901
6664.105554
6625.660554
6689.698302
6738.201587
6677.315435
6616.563394
6663.435002
6718.912032
6662.138601
6583.482812
6612.182452
6670.788726
6619.960859
6532.945518
6550.111657
6627.292231
6618.619754
6540.366297
6539.874558
6612.204803
6622.955993
6545.462495
6524.65302
6601.341856
6632.880167
6566.853114
6527.402285
6596.603286
6644.078391
6581.739376
6533.683125
6598.592591
6662.51858
6629.97444
6601.163042
6685.809098
6815.024533
6858.543379
6875.038967
6929.241947
6993.950247
6890.059339
6700.740063
6608.986152
6681.47286
6712.944116
6640.770333
6609.72376
6665.066679
6672.263941
6586.947332
6532.789055
6585.293303
6627.02401
6568.417736
6515.131177
6570.339986
6646.090048
6616.764559
6557.800657
6591.820013
6660.350461
6634.377734
6558.60532
6573.268065
6647.766429
6639.518635
6557.711251
6553.240902
6632.343725
6650.627452
6578.610132
6557.353623
6628.655687
6665.357252
6601.632428
6563.701518
6629.996792
6687.776051
6639.853911
6593.742263
6651.119191
6724.991706
6691.933476
6634.355382
6676.73429
6760.776849
6750.204474
6685.384415
6711.379494
6802.753425
6809.235431
6744.683593
6751.903206
6838.136236
6863.639577
6800.697064
6786.459003
6868.981644
6916.21088
6859.370394
6825.708667
6897.480118
6951.258415
6894.753205
6827.206233
6857.112867
6897.882449
6835.074047
6739.699154
6743.409543
6792.270457
6748.192817
6650.672156
6646.537083
6709.569002
6694.503927
6608.069731
6596.91621
6668.598255
6682.344578
6606.192184
6580.174754
6649.889845
6680.936418
6609.589649
6561.466344
6618.798568
6671.638092
6619.491472
6563.813277
6616.965725
6689.184211
6654.494304
6588.735472
6616.38458
6688.826583
6665.781935
6584.645103
6596.022141
6675.259075
6673.359176
6591.864716
6581.627617
6659.232874
6678.500078
6605.700446
6578.58778
6654.047269
6695.733273
6629.728571
6585.963856
6651.745039
6710.574831
6659.121115
6596.379768
6638.892786
6700.538898
6658.741135
6583.572219
6607.510937
6675.437889
6651.722688
6574.296245
6583.214591
6662.51858
6665.446659
6589.786004
6583.46046
6665.781935
6693.967485
6625.660554
6599.553716
6666.564246
6703.422273
6644.70424
6608.002676
6676.2202
6735.519378
6683.037482
6627.471045
6670.922836
6731.920747
6692.916953
6617.479815
6636.702315
6700.807119
6676.801345
6594.234001
6589.562486
6645.620661
6635.808246
6554.514951
6538.824026
6613.031818
6632.679001
6556.459553
6527.424637
6597.4303
6638.713972
6573.245713
6524.675372
6585.583876
6641.23972
6588.534306
6526.597622
6572.262236
6642.983156
6616.161062
6557.398326
6582.611094
6666.117211
6687.396072
6663.323243
6729.372648
6893.523859
6998.487651
6970.860895
6951.593691
6913.886298
6820.50071
6660.238702
6626.711086
6713.726427
6750.875026
6674.588522
6605.834556
6644.748943
6686.34554
6618.932679
6545.484846
6583.147536
6652.01326
6620.787873
6557.95712
6593.272876
6678.947112
6670.364043
6596.580934
6602.884126
6681.539915
6681.74108
6604.292286
6587.081443
6657.422383
6673.40388
6595.865678
6563.299187
6631.740228
6671.146354
6609.20967
6564.863809
6627.582804
6687.37372
6641.530292
6587.260257
6637.708144
6712.60884
6687.351368
6622.643068
6658.02588
6743.923634
6740.347354
6670.45345
6681.696377
6767.214151
6781.586323
6709.077264
6703.288162
6787.129556
6818.690219
6754.496009
6731.026677
6813.035227
6868.758126
6819.830158
6781.876896
6855.771763
6929.130188
6891.065167
6835.319917
6882.079766
6947.212749
6902.978647
6812.901117
6816.79032
6868.333443
6825.283983
6723.069456
6704.226935
6762.386174
6749.936253
6657.26592
6631.181435
6697.454357
6712.921764
6634.154217
6595.798623
6660.752792
6698.236668
6632.813112
6580.398271
6637.194054
6693.386339
6642.826693
6574.787983
6609.880222
6675.773165
6641.195016
6566.182562
6591.238867
6672.912141
6665.781935
6594.032835
6603.152347
6683.238647
6689.474784
6607.332123
6586.433242
6661.825676
6688.245438
6613.545908
6574.855039
6637.685792
6681.651674
6616.652801
6567.322501
6628.275708
6692.49227
6647.766429
6589.763652
6631.024972
6700.762415
6669.335862
6595.552754
6613.367094
6688.468956
6674.789688
6595.686864
6598.413777
6675.214371
6683.819793
6603.44292
6582.678149
6656.260092
6682.299874
6610.818995
6575.77146
6641.485589
6684.5574
6624.230042
6572.508105
6630.935565
6698.191964
6659.277577
6602.638257
6643.81017
6707.065607
6676.644883
6612.741245
6647.14058
6734.848825
6725.975183
6649.353403
6652.616757
6729.52911
6734.602956
6653.063792
6629.728571
6697.208488
6717.61563
6644.614833
6599.576068
6647.922891
6673.739156
6602.459443
6545.574253
6595.642161
6653.667289
6607.019199
6539.718096
6578.163097
6642.826693
6610.796644
6540.098076
6557.375974
6635.025935
6625.794664
6549.306995
6547.96589
6626.778141
6643.743115
6582.074652
6567.434259
6639.652746
6694.950961
6673.202714
6688.580714
6823.361733
6983.154354
6998.73352
6967.262264
6930.136017
6873.317882
6729.126779
6619.33501
6670.006415
6740.101485
6701.656485
6608.628524
6605.767501
6666.273673
6641.798513
6550.737506
6545.395439
6623.805359
6640.055077
6571.323463
6559.924073
6638.825731
6670.118173
6601.945353
6564.863809
6633.349554
6683.283351
6623.850062
6570.429393
6624.833539
6686.032615
6636.657612
6563.947387
6592.04353
6657.556493
6626.107589
6552.70446
6574.966797
6660.037537
6659.411688
6588.556658
6594.748091
6680.422328
6699.555421
6631.784932
6619.737341
6702.885831
6742.783695
6683.797441
6651.320356
6724.231747
6777.428899
6724.522319
6676.510772
6735.318212
6803.982771
6768.264683
6712.810005
6761.492105
6846.406382
6833.82235
6773.562047
6805.569745
6896.541345
6903.738606
6838.69503
6841.734867
6919.429531
6926.000944
6833.732943
6791.15287
6842.941862
6850.005013
6754.585416
6690.815889
6735.072343
6765.850695
6689.206563
6617.658629
6657.042403
6708.674933
6660.775144
6589.674245
6620.072618
6690.547668
6660.953958
6584.063957
6598.212611
6674.29795
6666.676005
6586.477946
6580.219457
6654.941339
6665.983101
6587.30496
6562.002785
6635.830597
6673.046252
6610.506071
6579.548905
6647.833484
6698.236668
6640.99385
6578.565428
6621.033743
6680.981121
6638.825731
6567.031928
6596.826803
6667.346557
6642.849045
6568.551847
6584.578047
6664.731403
6664.932569
6589.875411
6588.556658
6667.77124
6681.718729
6605.096949
6579.772422
6649.487513
6682.50104
6612.562431
6570.541152
6632.746057
6683.663331
6625.973478
6567.903646
6615.155234
6678.500078
6632.701353
6562.606283
6594.122242
6666.676005
6644.32426
6569.334158
6582.968722
6660.618682
6655.433077
6576.687882
6571.949312
6647.565263
6662.585635
6587.595533
6563.634463
6635.495321
6669.939359
6602.079463
6562.740393
6633.461312
6692.559325
6640.122132
6577.69371
6625.302926
6697.275543
6673.135659
6622.419551
6660.372813
6733.306555
6713.681723
6638.289289
6645.061868
6715.223994
6705.366874
6618.44094
6603.420568
6678.365967
6690.145336
6604.515803
6558.381803
6614.283516
6645.777124
6574.340948
6528.385762
6586.65676
6636.344688
6580.286512
6520.272079
6566.763707
6630.35442
6589.651893
6518.640401
6550.424582
6625.235871
6603.867603
6527.044657
6545.462495
6639.652746
6644.100743
6562.919207
6581.962893
6708.853747
6780.848715
6773.09266
6862.030251
7018.939497
7086.75469
6934.114627
6764.084907
6728.009192
6730.870215
6689.832412
6632.544891
6666.430136
6709.725465
6644.547778
6555.27491
6570.541152
6633.908347
6608.628524
6530.196253
6545.842474
6631.76258
6637.775199
6563.500352
6556.705422
6634.400086
6655.768353
6586.701463
6563.679166
6638.065772
6674.096784
6604.538155
6561.04166
6621.480777
6667.301854
6599.888992
6529.235128
6569.177695
6631.89669
6597.005617
6533.99605
6571.211704
6656.75183
6647.229987
6576.687882
6595.619809
6681.517563
6688.424252
6621.167853
6620.720818
6707.847918
6737.195758
6670.006415
6648.749906
6724.455264
6767.817648
6709.077264
6670.051118
6741.5767
6808.833099
6768.264683
6721.951869
6783.374463
6866.612359
6845.378202
6789.834117
6832.481245
6918.803682
6910.757054
6839.790266
6845.780533
6912.858118
6895.446109
6793.142175
6757.982881
6810.37537
6806.709684
6704.606915
6653.622586
6707.669104
6731.943099
6652.192074
6594.032835
6644.883054
6693.051063
6635.048286
6569.244751
6612.964763
6679.282389
6642.692583
6572.888085
6599.687827
6674.722633
6654.270787
6572.329291
6576.710233
6652.52735
6654.740173
6579.727719
6574.564466
6660.283406
6691.821717
6626.599327
6598.32437
6665.156086
6696.269714
6625.124112
6574.74328
6633.506016
6686.323188
6632.522539
6566.473134
6605.588687
6671.705147
6636.769371
6565.914341
6594.435167
6672.979197
6660.506923
6584.801565
6591.462385
6669.648787
6673.135659
6595.977437
6582.253466
6659.411688
6682.433985
6609.388484
6578.140745
6648.101705
6691.151165
6626.554623
6574.452707
6629.549757
6683.216296
6629.929737
6566.763707
6610.662533
6679.952941
6645.039516
6571.54698
6595.105719
6669.291159
6655.20956
6577.269027
6582.186411
6663.166781
6673.672101
6597.273838
6579.146573
6651.052135
6672.442755
6601.00658
6571.92696
6642.200845
6682.925723
6620.74317
6574.028024
6632.634298
6696.783805
6655.164856
6599.285495
6642.625528
6706.529165
6672.040423
6607.443882
6650.247473
6738.738029
6727.584508
6650.359231
6657.489438
6735.29586
6735.854654
6653.153199
6630.265013
6695.643866
6711.088921
6635.785894
6596.357417
6651.745039
6674.365005
6599.620771
6542.981451
6591.127108
6644.368964
6591.060053
6524.585965
6566.517838
6638.04342
6606.594516
6531.492654
6551.475114
6623.961821
6610.126091
6532.140855
6537.438218
6618.843272
6635.875301
6574.318597
6558.448858
6636.702315
6696.157956
6675.147316
6691.978179
6843.679469
7000.00757
7003.382683
6952.778334
6889.522897
6835.677545
6701.410616
6619.022086
6678.768298
6745.063573
6699.018979
6603.845251
6604.314638
6663.993795
6636.612908
6551.67628
6552.570349
6633.68483
6647.721725
6576.084384
6563.679166
6642.089086
6670.185229
6600.738359
6569.334158
6641.88792
6691.262924
6631.628469
6578.163097
6630.48853
6687.194906
6637.685792
6564.841457
6590.568315
6649.845141
6614.685847
6540.142779
6564.61794
6647.431153
6645.151275
6577.827821
6590.098928
6676.778993
6695.152127
6626.062885
6615.758731
6701.522374
6740.682631
6678.053043
6649.621624
6721.32602
6771.818611
6716.229822
6669.268807
6732.211319
6802.284038
6766.342433
6713.592316
6764.554294
6847.546321
6832.347135
6772.533866
6808.520175
6899.111795
6899.737644
6830.715457
6839.432638
6922.49172
6928.794912
6840.729039
6805.748559
6858.252806
6859.437449
6762.095602
6699.689531
6740.950852
6766.901227
6689.29597
6620.340838
6659.009356
6706.618572
6652.661461
6579.146573
6611.981286
6679.572961
6648.995775
6572.95514
6589.763652
6664.217313
6654.494304
6574.564466
6570.205876
6645.59831
6656.818885
6579.973588
6558.627672
6635.60708
6670.319339
6604.806376
6568.440088
6633.751885
6680.511735
6617.949202
6559.36528
6608.673228
6669.805249
6629.46035
6563.679166
6596.200954
6667.681833
6639.608042
6561.846323
6579.906533
6660.171647
6656.215388
6581.627617
6585.00273
6666.810115
6676.2202
6596.91621
6574.162134
6648.705202
6677.360139
6602.638257
6562.494524
6627.895728
6675.728461
6616.809263
6561.309881
6614.305867
6676.756641
6631.136731
6564.662643
6602.347684
6674.767336
6648.772257
6573.290416
6591.305922
6668.240627
6659.679909
6582.499335
6580.331216
6657.064755
6668.017109
6590.322446
6567.590722
6641.686754
6674.230894
6603.979362
6564.081498
6628.767446
6676.711938
6620.542004
6566.070803
6615.266992
6677.181325
6634.467141
6566.741355
6599.486661
6670.185229
6644.771295
6571.703443
6590.925943
6675.773165
6677.941284
6599.687827
6592.199992
6671.839258
6698.616648
6639.563339
6626.174644
6701.276505
6735.273508
6668.508848
6623.805359
6681.003473
6724.231747
6659.232874
6590.680074
6632.030801
6689.653598
6637.618737
6553.173846
6569.356509
6635.383562
6608.427359
6529.860977
6542.176788
6618.195071
6614.283516
6535.583023
6531.157378
6609.746112
6622.732475
6546.200102
6522.909584
6597.206783
6632.567243
6566.6743
6533.325497
6614.328219
6665.20079
6610.23785
6587.573181
6689.117156
6803.647495
6838.091533
6882.727967
6982.886134
7060.781963
6924.771598
6734.222976
6660.506923
6718.464997
6733.015982
6654.136676
6636.836426
6695.330941
6689.452432
6599.777234
6557.599492
6617.524519
6647.632318
6580.286512
6543.964928
6613.836481
6668.061813
6612.115397
6554.783172
6605.968667
6673.873266
6636.948185
6569.334158
6600.872469
6674.029729
6648.772257
6566.271969
6575.704405
6649.487513
6639.049249
6551.452762
6539.136951
6616.742208
6638.088124
6567.70248
6550.111657
6634.802417
6682.076357
6625.168815
6590.925943
6663.770278
6725.908128
6678.477726
6628.901557
6683.52922
6755.613596
6722.376552
6658.227045
6695.889735
6777.473602
6762.900265
6698.348427
6721.191909
6810.531832
6822.467664
6758.22875
6766.253026
6859.795077
6892.473327
6829.709629
6814.532794
6898.173022
6942.027145
6878.771708
6832.302431
6884.873734
6921.46354
6845.065277
6759.592206
6780.356977
6819.941916
6758.072288
6663.502057
6671.191057
6727.360991
6692.715787
6603.129995
6605.387521
6677.091918
6671.749851
6590.210687
6577.090213
6652.750868
6669.581732
6590.903591
6558.426506
6628.610984
6662.473877
6596.335065
6549.195236
6609.232021
6665.245493
6615.758731
6559.834666
6608.762635
6674.901447
6636.63526
6563.902684
6591.440033
6665.647824
6645.575958
6567.009576
6576.263198
6653.019089
6652.147371
6569.982358
6558.806486
6636.478798
6658.271749
6585.650931
6563.34389
6637.842254
6679.68472
6618.373885
6571.971663
6630.041496
6682.433985
6626.755789
6565.757879
6608.673228
6672.308644
6634.71301
6560.706384
6587.17085
6662.362118
6644.413667
6567.344852
6575.950274
6652.974385
6651.275653
6569.937655
6557.979471
6632.902519
6651.029784
6575.503239
6544.948404
6614.97642
6651.342708
6585.226248
6538.667564
6597.832632
6654.717821
6604.336989
6543.719058
6590.791832
6659.232874
6627.202824
6561.04166
6596.647989
6678.611836
6658.607025
6576.643178
6585.852097
6675.750813
6693.207525
6624.386504
6613.255335
6690.458261
6715.671029
6640.166836
6604.649914
6668.844124
6701.410616
6625.772312
6571.323463
6623.514786
6668.061813
6597.877335
6519.467416
6558.582969
6623.358324
6586.522649
6512.873651
6536.298279
6612.070693
6595.239829
6516.628744
6522.775474
6599.59842
6603.465271
6525.904718
6513.253631
6591.66355
6617.323353
6549.731678
6534.666602
6610.908402
6649.375755
6615.959897
6619.558527
6732.256023
6857.246978
6924.212804
6936.215691
6999.404073
6962.568398
6804.340399
6636.098818
6633.282499
6728.523282
6716.185119
6627.582804
6613.344742
6668.66531
6655.053098
6561.309881
6537.102942
6610.461367
6638.333993
6572.195181
6546.602434
6623.023048
6669.313511
6606.77333
6560.549922
6621.39137
6680.57879
6633.058981
6570.719966
6611.958934
6677.158973
6636.836426
6557.130105
6572.44105
6639.339821
6617.323353
6535.247747
6542.310899
6625.99583
6636.545853
6565.176733
6562.181599
6650.649804
6686.792575
6624.855891
6601.408911
6679.416499
6730.713753
6677.673063
6635.964708
6698.90722
6761.760326
6717.414465
6659.992833
6708.406712
6786.526058
6763.839038
6702.371741
6737.665145
6827.228585
6827.317992
6764.442535
6783.352111
6875.620112
6893.993246
6829.016725
6822.959402
6907.448996
6938.853197
6866.433545
6822.087684
6872.535571
6893.903839
6806.195594
6729.059724
6759.972186
6793.298637
6719.314363
6634.71301
6656.595368
6711.759473
6667.994758
6585.874449
6601.65478
6673.158011
6656.193037
6574.3633
6573.84921
6649.018127
6653.689641
6574.340948
6553.553826
6624.028876
6649.129885
6575.458536
6541.461532
6613.903536
6664.999624
6609.410835
6560.259349
6614.708199
6671.034595
6621.413722
6551.832742
6585.807393
6652.39324
6620.340838
6546.55773
6566.629597
6641.999679
6630.622641
6550.670451
6553.307957
6633.975403
6650.448638
6577.939579
6566.897817
6648.012298
6680.19881
6610.193146
6571.122297
6634.333031
6675.057909
6612.562431
6558.650024
6608.539117
6668.240627
6620.36319
6553.844399
6588.355492
6659.635205
6631.047324
6554.850227
6573.916265
6648.772257
6637.283461
6559.409983
6555.029041
6629.46035
6636.12117
6559.611149
6539.159303
6615.803434
6645.933586
6575.592646
6537.97466
6607.309771
6658.651728
6609.254373
6566.249617
6627.851025
6687.217258
6639.697449
6575.413832
6624.162987
6709.613706
6693.073415
6622.620716
6638.624565
6718.107369
6710.664238
6632.544891
6629.683868
6700.516546
6702.327037
6615.378751
6586.589704
6647.855836
6657.623548
6566.584893
6524.585965
6587.863754
6629.706219
6566.853114
6511.174919
6559.298224
6618.95503
6571.994015
6506.570459
6542.042678
6614.417626
6583.795736
6502.815366
6519.690933
6598.637295
6597.698521
6531.69382
6540.545111
6615.266992
6652.840275
6634.19892
6675.706109
6808.833099
6948.732668
6965.094145
6956.041688
6944.463485
6853.782458
6682.925723
6578.856001
6649.666327
6722.778883
6672.241589
6594.211649
6608.762635
6661.691566
6617.010429
6524.831834
6531.872634
6606.728626
6603.644085
6532.386724
6537.885253
6623.648897
6647.207635
6585.472117
6569.065937
6645.374792
6675.84022
6606.549812
6570.027062
6632.880167
6678.388319
6616.496338
6554.537303
6598.883164
6655.030746
6606.750978
6532.610241
6567.769536
6637.976365
6621.100798
6553.620881
6575.972626
6663.814981
6662.697394
6589.674245
6595.284533
6681.539915
6705.992723
6641.396182
6626.64403
6707.579697
6747.790485
6688.893639
6654.69547
6721.773055
6782.346282
6740.16854
6697.387302
6758.921654
6836.303393
6812.29762
6762.676747
6808.788396
6893.210935
6882.102118
6820.903041
6846.048754
6929.577223
6927.118531
6840.48317
6819.137254
6873.072013
6863.505466
6762.341471
6712.36297
6764.353128
6776.467773
6687.016092
6625.213519
6673.962673
6711.155976
6645.73242
6580.822954
6621.77135
6683.104537
6637.775199
6568.21657
6598.592591
6671.302816
6641.619699
6558.538265
6567.881294
6640.256243
6637.059943
6564.014442
6563.969739
6650.225121
6674.543819
6598.950219
6575.704405
6647.252339
6679.17063
6607.309771
6563.72387
6627.135769
6678.835354
6620.854929
6557.912416
6602.504146
6666.787763
6624.431208
6551.698631
6583.862792
6661.982138
6645.151275
6569.557675
6582.275818
6665.491362
6663.055022
6582.722853
6573.782155
6646.782952
6661.780973
6585.2486
6554.76082
6620.519652
6645.441847
6574.072727
6532.163207
6593.719911
6647.65467
6594.569277
6546.893006
6603.085292
6671.213409
6630.779103
6558.60532
6585.785042
6670.654615
6659.098763
6594.85985
6609.321428
6688.804232
6691.240572
6612.808301
6598.525536
6671.347519
6679.461203
6591.842364
6557.554788
6622.397199
6647.542911
6567.098983
6505.139948
6561.443992
6611.757769
6554.783172
6494.545221
6540.880387
6602.68296
6562.405117
6492.198288
6520.316782
6593.786966
6572.664568
6497.652113
6509.342076
6585.360358
6584.689806
6506.682218
6503.150642
6596.983266
6621.12315
6548.547035
6553.73264
6673.627397
6768.644663
6760.262759
6807.93903
6927.632621
6994.330227
6873.787269
6706.506813
6654.69547
6686.122022
6667.480668
6607.957972
6635.472969
6698.90722
6657.400031
6563.366242
6553.531474
6613.322391
6605.096949
6525.837663
6517.411055
6603.509975
6635.428266
6576.307902
6558.627672
6630.019144
6667.212447
6597.497356
6546.356564
6599.397254
6649.487513
6593.183469
6524.720076
6564.841457
6627.716914
6590.277742
6521.993163
6553.442067
6631.472007
6615.423455
6541.68505
6556.03487
6640.99385
6646.648842
6576.240847
6571.79285
6658.338804
6687.731348
6619.491472
6601.967705
6682.411633
6728.590337
6670.744022
6635.204749
6706.775034
6770.544561
6730.199662
6681.517563
6738.760381
6814.063408
6789.521192
6730.378476
6771.729204
6860.890312
6855.123562
6790.370559
6810.554184
6898.15067
6906.286705
6829.776684
6814.309277
6876.044795
6879.084632
6781.496916
6725.796369
6769.963416
6784.469698
6696.627342
6625.526443
6663.256188
6703.891659
6639.161007
6568.753012
6606.415702
6668.374737
6628.499225
6552.212721
6577.447841
6650.918025
6632.366077
6549.441105
6551.564521
6626.398161
6626.755789
6547.429448
6537.415867
6615.311696
6643.765467
6575.749108
6545.462495
6616.272821
6656.528313
6589.495431
6538.86873
6594.85985
6649.554568
6596.40212
6534.018401
6577.31373
6643.318432
6607.488585
6534.264271
6562.181599
6641.038554
6628.163949
6554.62671
6565.914341
6648.392278
6654.539007
6578.72189
6567.858942
6646.022993
6665.133734
6586.746167
6548.815256
6610.953106
6649.107534
6583.751033
6533.258442
6593.250524
6647.542911
6600.067806
6546.133047
6598.480832
6677.449546
6649.286348
6571.167001
6591.842364
6671.973368
6663.747926
6596.156251
6610.573126
6688.245438
6694.079243
6618.172719
6601.744187
6674.789688
6693.766319
6612.987115
6568.037756
6630.600289
6668.687662
6594.703388
6527.603451
6571.569332
6626.085237
6572.575161
6506.950439
6547.742372
6617.189243
6582.678149
6512.761892
6538.220529
6612.897708
6597.564411
6519.690933
6523.937765
6603.353513
6607.019199
6529.25748
6516.338172
6603.06294
6641.329127
6564.975567
6537.482922
6643.318432
6739.699154
6730.80316
6768.130573
6932.661764
7048.264986
6992.162107
6806.977905
6733.597128
6718.912032
6684.132717
6629.236833
6649.532217
6713.055874
6675.169668
6575.190315
6563.478001
6626.375809
6617.770388
6534.800712
6519.757988
6599.441957
6632.79076
6571.457573
6548.323518
6623.917118
6668.330034
6610.483719
6564.841457
6623.984173
6683.14924
6638.669269
6573.491582
6608.986152
6669.849952
6631.539062
6555.006689
6573.022195
6646.559435
6631.673173
6555.632538
6563.634463
6651.454467
6669.000586
6597.765577
6586.209725
6668.218275
6701.72354
6637.216406
6610.10374
6687.865458
6742.224901
6690.480613
6647.677022
6712.318267
6780.669901
6740.41441
6683.864496
6734.379439
6814.532794
6792.806899
6728.389171
6760.307462
6849.289757
6848.529798
6783.195649
6801.077044
6892.361568
6909.393598
6837.845664
6819.98662
6887.108909
6900.989342
6809.86128
6750.048012
6790.370559
6808.095492
6722.309497
6649.174589
6685.406767
6726.06459
6662.809153
6584.645103
6615.825786
6681.294046
6646.447676
6567.277797
6585.293303
6660.931606
6649.196941
6573.178658
6575.324425
6651.141542
6656.841237
6575.570294
6552.212721
6621.972516
6647.431153
6576.397309
6543.897872
6619.33501
6674.767336
6622.196033
6573.066899
6627.247528
6687.217258
6642.334955
6570.831725
6605.298114
6673.090955
6642.960804
6570.876428
6590.233039
6665.3349
6656.148333
6577.380786
6579.280684
6662.853856
6678.500078
6608.740283
6591.507088
6668.039461
6697.856688
6626.599327
6587.550829
6651.700336
6695.666217
6635.897653
6583.303998
6637.171702
6698.594296
6651.745039
6581.493507
6617.233946
6687.910162
6662.295063
6596.200954
6622.620716
6698.594296
6681.785784
6598.167908
6604.024065
6701.365912
6727.785674
6660.730441
6640.122132
6718.12972
6754.719526
6688.848935
6650.001603
6711.625363
6751.344413
6682.12106
6624.431208
6674.320301
6727.048067
6663.859685
6576.218495
6603.420568
6669.358214
6639.898615
6564.014442
6579.571257
6653.510827
6643.854874
6563.478001
6561.332233
6638.848083
6651.856798
6573.491582
6549.217588
6622.441902
6653.577882
6584.466289
6549.642271
6630.197958
6679.617665
6619.022086
6595.418643
6697.610819
6813.281097
6845.020574
6895.021426
7007.405997
7094.019007
6955.617005
6760.53098
6682.970426
6736.346392
6746.449381
6660.439868
6640.658574
6693.833374
6680.869362
6582.991073
6544.63548
6606.952144
6635.137693
6568.931826
6537.259404
6614.551737
6672.845086
6621.346667
6564.126201
6615.356399
6677.717766
6634.176568
6571.211704
6608.941449
6681.316397
6653.28731
6571.882256
6581.068823
6654.986042
6647.52056
6563.075669
6548.904663
6621.056094
6634.06481
6562.494524
6549.195236
6635.361211
6681.428156
6625.99583
6597.162079
6674.342653
6738.648622
6695.688569
6651.49917
6712.74295
6786.771928
6753.981919
6693.028711
6731.83134
6810.531832
6793.946838
6726.176348
6753.49018
6844.551187
6852.642519
6785.766099
6793.365692
6884.493754
6912.791063
6850.697917
6837.376277
6921.105912
6961.428459
6889.992284
6837.66685
6886.371301
6916.233232
6836.035172
6753.557235
6779.3735
6817.907908
6754.294843
6666.988929
6681.696377
6740.481465
6706.216241
6621.167853
6629.370943
6701.522374
6693.252229
6608.650876
6600.11251
6675.929627
6690.033578
6613.590612
6588.422547
6657.332976
6687.574886
6618.172719
6574.072727
6637.283461
6688.424252
6635.897653
6584.779213
6638.155179
6702.461148
6663.03267
6591.350626
6619.357362
6687.507831
6660.864551
6582.007597
6593.943428
6674.230894
6672.822734
6594.032835
6587.550829
6666.988929
6687.530182
6614.529385
6590.12128
6662.473877
6698.39313
6630.7344
6584.667454
6645.21833
6694.92861
6638.736324
6579.928884
6628.365115
6691.642903
6652.080316
6580.554733
6610.170795
6683.260999
6661.333938
6581.895838
6591.641199
6667.614778
6664.083202
6585.472117
6578.766594
6654.784877
6670.654615
6596.156251
6575.235018
6658.495266
6700.471842
6634.981231
6584.980379
6645.754772
6710.932459
6673.381528
6627.158121
6679.327092
6746.404677
6711.312438
6642.044382
6667.570075
6736.480503
6711.625363
6626.666382
6628.678039
6703.51168
6695.4427
6601.65478
6569.62473
6635.048286
6648.951071
6569.445916
6539.718096
6609.187318
6641.910272
6572.95514
6526.463512
6585.583876
6639.138656
6583.952198
6522.753122
6567.233094
6631.807283
6595.977437
6526.664677
6558.851189
6646.045345
6638.624565
6555.856056
6580.107698
6703.936363
6762.45323
6743.163674
6843.075972
7020.213547
7086.285303
6956.399316
6787.129556
6753.400773
6728.724447
6673.336825
6632.634298
6683.305703
6719.470825
6640.055077
6558.538265
6589.316617
6646.000641
6605.901612
6538.913433
6577.157268
6663.79263
6650.649804
6573.178658
6583.929847
6663.122077
6666.206618
6590.568315
6583.907495
6663.166781
6686.010264
6611.422492
6578.945408
6644.145446
6675.996682
6601.967705
6545.954233
6602.861774
6656.75183
6608.941449
6556.347794
6610.23785
6686.569057
6663.41265
6603.644085
6643.139618
6730.199662
6725.326982
6658.227045
6673.53799
6762.319119
6772.936198
6702.259982
6696.135604
6780.312274
6810.017742
6745.242386
6724.723485
6806.307352
6859.057469
6810.777701
6778.993521
6850.519103
6922.558775
6888.338254
6846.831065
6906.957258
6989.748119
6976.001796
6921.240022
6946.788066
7002.287448
6955.102915
6852.776629
6837.197463
6900.497603
6887.220667
6788.314198
6760.083945
6830.62605
6845.35585
6761.760326
6728.188005
6790.482317
6817.080893
6735.988764
6674.543819
6729.663221
6784.447346
6725.662258
6652.236778
6684.289179
6747.522264
6708.809043
6626.599327
6650.225121
6718.420293
6695.129775
6619.938507
6636.255281
6727.249232
6742.560177
6667.458316
6655.991871
6726.243404
6733.686535
6651.700336
6608.136786
6664.865513
6690.413557
6617.993905
6554.023213
6600.268972
6663.010319
6618.262126
6555.744297
6601.990056
6676.108441
6642.849045
6569.267102
6601.453614
6676.108441
6657.444734
6568.97653
6561.42164
6631.941394
6633.930699
6553.375012
6525.301221
6592.55762
6617.502167
6537.952308
6485.001026
6541.975622
6582.454632
6513.052465
6455.317909
6505.475224
6562.002785
6506.548107
6440.58811
6478.51902
6539.874558
6494.098186
6411.754359
6431.759171
6506.346942
6481.380043
6416.112949
6437.034182
6524.965945
6541.238015
6460.637624
6437.324755
6515.779378
6555.029041
6503.597677
6486.945628
6564.819105
6608.092083
6550.491637
6510.660828
6574.475059
6625.437036
6569.267102
6494.142889
6531.358544
6600.604248
6580.577085
6502.569497
6490.164279
6545.14957
6542.154436
6485.001026
6498.613238
6579.61596
6588.71312
6500.133157
6477.446136
6559.052355
6581.962893
6502.770663
6480.396566
6564.729698
6619.357362
6562.44982
6508.76093
6558.538265
6637.417571
6622.061923
6571.457573
6640.882092
6761.067422
6792.69514
6797.478413
6942.273014
7148.13258
7202.089691
7077.925751
6942.049496
6900.385845
6837.465684
6783.061538
6785.028492
6854.922397
6878.41408
6779.3735
6745.845884
6819.494882
6864.265426
6783.910904
6716.363933
6778.21121
6841.13137
6801.725245
6754.25014
6794.013893
6852.307242
6833.129446
6765.202494
6790.147041
6879.106984
6888.40531
6821.126559
6808.698989
6880.090461
6899.603534
6837.197463
6800.875878
6870.456859
6886.326597
6806.352056
6772.489163
6849.870902
6907.694865
6861.918493
6806.709684
6860.532684
6928.414932
6901.99517
6861.404402
6912.88047
6974.928913
6937.467389
6904.207993
6933.689944
6991.379796
6894.976723
6736.56991
6777.294788
6934.271089
7004.544974
6945.201092
6935.902767
7016.905489
7042.945271
7003.650904
6997.280657
7085.301827
7154.771048
7092.744958
7034.786884
7072.874257
7114.247336
7040.218358
6950.699622
6958.098049
6994.732558
6928.929022
6804.854489
6793.902134
6846.987527
6811.560012
6705.098653
6687.88781
6753.400773
6748.99748
6650.940377
6625.302926
6714.866366
6750.204474
6669.917008
6627.493397
6696.515584
6729.886738
6675.594351
6636.277632
6690.458261
6737.97807
6687.150203
6618.910327
6656.774182
6728.098598
6710.44072
6642.2679
6665.223141
6734.915881
6728.657392
6661.244531
6636.076467
6692.604028
6703.712845
6630.332068
6607.332123
6684.579752
6709.658409
6642.759638
6594.591629
6643.43019
6709.41254
6663.92674
6597.586763
6649.688679
6736.838131
6693.453395
6633.863644
6681.249342
6740.503817
6685.026787
6610.75194
6638.55751
6721.817758
6711.424197
6631.829635
6627.873376
6693.252229
6715.961601
6648.392278
6620.072618
6697.074377
6727.338639
6646.470028
6615.356399
6687.396072
6726.153997
6642.849045
6567.791887
6638.624565
6735.899357
6695.822679
6605.700446
6625.146464
6704.182232
6702.327037
6631.963746
6648.03465
6730.981974
6723.941174
6643.832522
6654.337842
6727.808026
6743.320136
6668.061813
6634.020106
6687.396072
6709.501947
6619.2009
6574.765632
6637.171702
6673.381528
6613.300039
6562.382765
6600.224268
6650.113362
6593.250524
6535.694782
6587.595533
6654.091973
6626.442865
6565.735527
6581.381748
6634.824769
6637.90931
6569.647082
6550.111657
6635.271804
6659.501095
6591.596495
6558.761782
6636.702315
6712.832357
6699.957752
6720.186081
6866.701766
7049.33787
7078.953931
7018.179538
6945.983403
6887.846516
6750.048012
6641.329127
6686.47965
6766.253026
6735.832302
6644.927757
6623.604193
6677.941284
6670.855781
6591.797661
6592.17764
6675.013205
6703.086996
6641.552644
6639.496283
6700.382435
6720.186081
6649.308699
6607.063902
6667.503019
6703.601087
6640.837388
6588.33314
6629.236833
6680.690549
6640.725629
6581.113527
6612.629487
6670.878133
6636.545853
6573.402175
6603.174699
6698.706055
6701.544726
6627.806321
6628.163949
6710.418369
6723.270622
6637.372868
6627.02401
6713.77113
6764.554294
6720.342543
6674.767336
6735.966413
6817.997315
6794.796204
6743.320136
6793.946838
6863.796039
6840.460818
6798.774814
6843.94769
6932.214729
6917.976668
6847.479266
6874.502525
6964.736517
6960.132058
6894.261467
6905.213822
6986.507116
6998.59941
6882.660911
6840.706687
6913.52867
6903.157461
6777.071271
6717.123892
6765.493067
6781.67573
6692.179345
6622.464254
6663.971444
6707.669104
6640.99385
6552.883274
6573.670396
6650.515693
6622.933641
6541.103904
6554.917282
6635.160045
6642.826693
6561.645158
6549.37405
6621.503129
6644.257205
6580.89001
6563.388594
6627.783969
6663.099726
6599.330199
6558.784134
6628.029839
6686.144374
6631.963746
6572.843382
6594.792795
6640.680926
6613.210632
6556.03487
6572.977492
6644.078391
6625.124112
6556.794829
6580.152402
6661.579807
6656.863589
6583.371053
6594.815146
6685.697339
6702.639962
6629.817978
6598.950219
6663.993795
6699.466014
6622.039571
6580.711196
6646.648842
6699.242496
6621.614888
6556.124277
6609.187318
6656.282444
6609.321428
6548.882311
6586.969684
6658.964653
6629.996792
6554.403192
6570.116469
6653.689641
6659.456391
6588.020216
6574.273893
6643.921929
6671.347519
6605.208707
6583.236943
6651.655632
6697.186136
6628.119246
6584.019254
6652.840275
6718.532052
6675.728461
6615.445806
6655.097801
6718.219127
6663.814981
6575.011501
6609.72376
6681.562267
6652.572054
6565.422602
6575.972626
6635.405914
6614.417626
6536.253576
6522.97664
6608.516766
6624.07358
6532.543186
6497.585058
6569.445916
6609.969629
6554.514951
6512.136044
6570.272931
6634.623603
6586.522649
6523.378971
6570.362338
6634.131865
6598.994923
6551.318652
6593.317579
6660.909255
6660.864551
6628.096894
6696.627342
6850.429696
6982.662616
7003.785015
7028.751913
7009.685875
6893.367397
6704.316342
6622.240737
6691.262924
6736.346392
6661.959787
6594.457518
6633.260147
6678.947112
6611.981286
6534.286622
6573.312768
6642.133789
6615.378751
6546.289509
6588.914286
6687.306665
6678.991816
6598.391425
6598.503184
6677.561304
6680.221162
6582.745204
6556.861884
6631.516711
6650.426287
6562.159248
6527.692858
6596.692693
6631.561414
6556.012518
6496.512174
6550.02225
6625.325277
6596.357417
6545.507198
6591.998827
6678.500078
6658.607025
6597.944391
6633.30485
6733.731238
6737.016945
6658.249397
6665.20079
6744.415372
6756.239445
6694.481575
6687.016092
6766.81182
6796.40553
6728.277412
6706.283296
6793.298637
6849.222702
6791.041111
6745.242386
6810.062445
6894.417929
6863.147838
6804.183937
6853.17896
6922.826996
6898.620057
6821.081855
6815.493919
6857.40344
6823.249975
6724.231747
6698.124909
6743.566006
6718.867328
6619.670286
6601.341856
6666.988929
6671.906313
6593.205821
6556.124277
6619.625583
6659.501095
6595.530402
6540.478056
6593.339931
6660.283406
6610.61783
6539.38282
6572.463402
6646.492379
6614.127054
6538.511102
6555.185503
6635.651783
6631.404952
6564.595588
6578.2078
6659.076412
6665.603121
6588.668417
6572.664568
6645.419496
6663.189133
6582.454632
6546.915358
6621.458426
6654.561359
6585.76269
6534.465436
6591.127108
6653.041441
6611.087216
6549.932843
6593.094062
6672.733327
6648.347574
6567.747184
6583.46046
6652.437944
6640.85974
6567.925998
6570.205876
6645.263034
6653.354365
6579.280684
6560.706384
6639.608042
6664.999624
6592.579972
6551.743335
6613.94824
6662.697394
6608.494414
6553.509123
6612.562431
6676.443717
6618.128016
6545.395439
6577.514896
6651.901502
6620.609059
6548.435277
6575.123259
6656.550664
6647.609967
6568.149515
6570.474097
6653.823752
6661.959787
6585.606228
6577.514896
6649.643975
6665.826638
6596.580934
6565.623768
6641.88792
6688.26779
6631.114379
6572.373995
6626.196996
6689.899467
6658.53997
6610.349609
6650.023955
6721.303668
6699.063682
6629.259185
6645.821827
6721.214261
6703.288162
6618.95503
6614.08235
6689.921819
6693.431043
6596.290361
6549.105829
6613.210632
6643.631356
6555.230207
6501.764834
6572.798678
6624.364152
6556.03487
6503.731788
6560.348756
6617.390408
6572.619864
6508.135081
6545.328384
6613.590612
6584.421585
6512.337209
6538.421695
6624.095932
6631.24849
6553.35266
6549.195236
6659.679909
6722.153034
6706.640924
6783.285056
6984.62957
7091.672074
7028.975431
6859.70567
6785.788451
6730.80316
6652.572054
6617.479815
6668.732365
6713.726427
6645.777124
6559.49939
6585.2486
6647.118228
6607.086254
6529.413942
6544.791942
6627.091065
6634.601251
6563.142724
6568.59655
6652.661461
6662.652691
6580.957065
6556.817181
6630.019144
6660.551627
6587.997864
6548.681146
6608.44971
6646.782952
6580.621789
6516.807558
6553.464419
6610.014333
6568.060108
6500.04375
6543.6073
6621.413722
6599.59842
6534.733657
6571.345815
6665.603121
6662.965615
6594.032835
6606.125129
6687.485479
6710.507776
6647.699374
6630.242661
6704.450453
6741.44259
6680.556438
6650.538045
6724.991706
6781.049881
6731.697229
6696.493232
6770.768079
6851.860208
6827.049771
6772.891494
6819.539585
6905.146766
6890.126394
6820.970097
6837.331574
6907.381941
6891.825127
6795.064425
6767.616483
6818.779626
6810.218908
6712.117101
6664.194961
6709.658409
6722.711828
6640.99385
6588.109623
6647.14058
6689.608895
6621.726647
6558.046527
6604.873431
6664.239665
6618.798568
6552.458591
6590.613018
6655.008394
6617.837443
6543.964928
6563.232131
6638.959842
6629.035667
6539.271061
6525.837663
6604.202879
6621.570184
6553.73264
6533.61607
6602.459443
6630.332068
6559.11941
6506.413997
6565.534361
6617.166891
6568.037756
6513.544203
6562.628634
6624.744132
6578.163097
6515.354695
6558.270044
6640.256243
6622.888937
6550.312823
6558.113582
6634.645955
6633.81894
6554.336137
6543.897872
6619.871452
6636.255281
6562.382765
6537.97466
6620.720818
6664.843162
6599.665475
6554.000861
6623.827711
6682.143412
6634.690658
6585.427414
6632.723705
6695.666217
6654.606063
6584.265123
6616.630449
6689.743005
6664.016147
6589.048396
6598.659646
6669.246455
6662.093897
6584.510992
6574.832687
6650.47099
6667.838295
6593.96578
6568.171867
6635.249452
6665.223141
6595.351588
6557.174809
6628.722743
6680.444679
6618.597402
6553.911454
6602.459443
6670.96754
6634.310679
6562.8298
6590.098928
6658.070583
6639.45158
6570.563504
6590.188335
6675.571999
6672.487458
6593.205821
6592.110585
6684.691511
6721.281316
6651.767391
6623.224214
6697.610819
6736.167578
6668.106516
6619.33501
6673.515639
6722.957697
6657.042403
6591.507088
6634.936528
6692.156993
6640.055077
6551.989204
6577.492544
6645.151275
6618.463292
6539.427524
6549.306995
6622.017219
6617.54687
6539.7628
6534.800712
6610.684885
6625.548795
6551.9445
6525.860015
6598.883164
6635.718839
6572.575161
6539.338117
6616.719856
6663.770278
6613.814129
6596.670341
6698.840165
6815.091588
6879.419908
6925.240985
7019.922974
7075.22119
6924.27986
6736.838131
6661.669214
6726.95866
6737.195758
6654.628414
6633.885996
6693.095767
6688.223086
6592.55762
6544.076686
6603.509975
6633.260147
6565.534361
6525.502387
6596.26801
6659.121115
6615.289344
6565.623768
6616.585745
6682.545743
6649.778086
6585.092137
6613.970591
6680.869362
6654.941339
6568.97653
6573.044547
6645.441847
6633.930699
6551.385707
6536.544149
6605.007542
6620.296135
6553.240902
6540.433352
6629.572109
6680.310569
6628.499225
6594.681036
6673.806211
6742.873102
6699.980104
6654.337842
6707.713808
6782.346282
6748.572796
6684.691511
6719.806101
6796.472585
6783.08389
6715.671029
6734.982936
6827.049771
6838.650327
6773.942026
6778.233561
6865.494772
6900.519955
6842.450123
6823.808768
6905.370284
6949.537331
6887.555943
6837.80096
6887.622999
6925.285688
6849.669737
6764.464887
6780.222867
6819.763103
6757.088811
6670.520505
6684.266828
6747.298747
6714.933421
6622.620716
6622.084275
6700.069511
6698.236668
6610.61783
6592.535268
6668.620606
6692.469918
6616.921022
6580.577085
6644.905406
6678.969464
6611.64601
6563.098021
6620.720818
6672.263941
6619.558527
6562.8298
6613.903536
6688.044272
6652.415592
6577.5596
6605.745149
6679.796479
6652.974385
6576.710233
6585.136841
6658.115287
6648.973423
6565.757879
6554.470248
6629.236833
6654.762525
6587.394367
6563.947387
6639.272766
6682.545743
6626.867548
6580.778251
6632.187263
6681.696377
6627.091065
6558.828838
6600.537193
6668.553551
6631.941394
6561.265178
6587.662588
6663.099726
6648.325223
6571.390518
6585.092137
6667.882999
6670.319339
6591.551792
6578.990111
6654.360194
6674.29795
6598.033798
6565.288492
6633.103685
6673.828563
6605.409873
6556.459553
6621.972516
6682.724557
6630.667344
6568.708309
6616.809263
6689.407729
6658.629377
6587.103794
6613.232984
6684.669159
6669.69349
6592.065882
6597.475004
6678.365967
6682.568095
6605.141652
6589.718949
6662.183304
6682.456336
6614.305867
6591.462385
6673.158011
6719.292011
6651.745039
6601.386559
6665.178438
6738.179235
6708.831395
6651.007432
6693.945133
6765.113087
6734.290032
6661.155124
6679.215333
6743.633061
6714.933421
6632.79076
6638.512807
6705.724502
6698.147261
6600.179565
6572.463402
6643.340784
6664.507886
6591.730606
6561.242826
6630.689696
6669.268807
6603.867603
6555.341966
6620.027914
6677.24838
6627.113417
6567.121335
6609.053208
6678.231857
6651.007432
6586.433242
6619.670286
6695.621514
6684.467993
6641.195016
6705.43393
6836.795132
6934.002868
6978.728709
7028.930727
7099.919868
6994.509041
6793.030416
6664.038499
6719.761398
6778.077099
6710.8207
6650.001603
6692.335807
6724.254098
6656.327147
6580.442975
6611.333085
6674.677929
6641.88792
6573.379823
6604.247582
6690.078281
6688.200735
6620.005562
6621.39137
6698.638999
6701.388264
6621.860757
6607.041551
6683.52922
6701.768244
6625.146464
6586.433242
6649.845141
6682.456336
6611.154272
6557.465381
6617.256298
6680.511735
6627.605155
6570.854076
6626.554623
6712.206508
6685.429118
6621.011391
6654.047269
6736.972241
6739.877968
6674.029729
6680.981121
6761.648567
6771.215114
6705.344523
6699.80129
6784.648512
6820.835986
6761.112125
6737.307517
6816.633858
6873.094365
6825.351039
6788.940047
6857.939882
6931.946508
6890.84165
6836.213986
6888.159441
6963.864799
6935.81336
6858.722193
6868.28874
6927.498511
6899.692941
6796.472585
6766.767116
6816.633858
6800.875878
6697.186136
6660.573978
6715.894546
6733.8877
6649.57692
6601.811242
6659.903426
6698.77311
6632.366077
6577.269027
6628.186301
6685.116194
6632.41078
6564.975567
6602.347684
6665.491362
6632.433132
6561.645158
6590.791832
6661.043365
6648.146409
6576.531419
6587.282608
6674.253246
6691.151165
6614.171757
6590.590667
6659.836371
6682.545743
6615.043475
6580.107698
6636.50115
6673.627397
6613.344742
6563.589759
6616.272821
6666.340729
6620.22908
6560.594626
6600.268972
6677.136621
6645.911234
6572.798678
6600.716007
6671.816906
6659.836371
6583.46046
6581.828783
6655.410726
6660.819848
6585.986207
6562.114544
6633.528368
6668.933531
6603.465271
6566.987224
6629.84033
6668.710013
6606.370998
6551.229245
6599.777234
6655.544836
6606.661571
6540.634518
6576.486716
6643.027859
6619.089141
6546.960061
6571.725794
6662.317415
6658.182342
6584.533344
6583.32635
6664.798458
6683.596275
6613.724722
6596.290361
6681.808136
6717.593279
6650.761563
6613.523556
6669.782897
6707.803215
6641.217368
6582.968722
6623.917118
6680.623493
6627.113417
6548.211759
6567.635425
6629.773275
6595.195126
6516.338172
6533.660773
6610.349609
6602.191222
6525.167111
6526.06118
6603.554678
6616.38458
6530.397419
6502.6142
6587.975513
6616.138711
6538.265233
6500.647247
6567.769536
6623.850062
6577.336082
6522.171977
6603.532327
6717.570927
6727.338639
6716.96743
6850.407344
6999.560535
6999.918163
6867.215856
6758.251102
6726.243404
6668.777069
6608.092083
6619.178548
6686.658464
6685.719691
6591.417681
6552.726811
6610.304905
6625.593498
6547.630614
6505.497575
6576.062033
6626.576975
6577.939579
6537.304108
6604.493452
6676.846048
6631.606118
6560.304053
6588.869582
6653.264958
6618.619754
6542.467361
6555.766649
6625.861719
6611.288382
6528.8775
6526.910547
6606.862737
6618.485644
6546.758896
6532.431428
6610.796644
6644.860702
6579.258332
6541.126256
6606.549812
6665.312548
6613.121225
6573.446879
6644.883054
6710.217203
6672.688624
6622.352495
6674.05208
6759.882779
6744.728296
6684.177421
6715.156938
6802.641666
6804.452158
6739.118009
6745.197683
6834.157626
6853.871865
6792.337512
6788.358902
6870.926246
6911.248793
6856.084687
6822.28885
6879.889295
6917.060246
6844.528835
6768.622311
6788.805936
6821.484187
6749.51157
6653.533179
6668.464144
6723.002401
6680.332921
6589.786004
6595.172774
6665.446659
6649.241644
6559.544094
6553.553826
6633.282499
6647.766429
6569.937655
6541.260367
6605.946315
6633.081333
6564.640291
6526.642326
6598.123204
6653.153199
6597.475004
6545.216625
6604.672266
6672.755679
6638.535158
6572.910437
6598.525536
6661.713917
6630.175606
6553.665585
6567.389556
6642.357307
6640.233891
6559.030003
6550.871617
6631.695525
6641.284423
6568.820068
6550.379878
6627.225176
6659.299929
6588.534306
6550.312823
6619.737341
6665.781935
6606.303943
6547.675317
6595.798623
6658.428211
6610.10374
6540.478056
6575.704405
6648.101705
6621.346667
6548.502332
6566.629597
6647.051173
6642.290252
6565.243788
6562.606283
6636.747019
6648.906368
6572.284588
6548.547035
6622.508958
6658.830542
6590.881239
6556.839532
6624.386504
6669.939359
6617.725684
6560.639329
6613.747074
6696.873211
6676.108441
6608.986152
6641.23972
6721.236613
6700.583601
6617.41276
6623.894766
6696.962618
6686.814926
6601.453614
6589.786004
6656.640071
6656.327147
6562.650986
6529.033962
6595.195126
6626.420513
6555.900759
6514.237108
6573.46923
6623.17951
6568.618902
6514.102997
6566.003748
6625.772312
6578.051338
6505.586982
6536.521797
6610.75194
6589.830707
6531.380896
6559.588797
6629.080371
6637.708144
6599.397254
6643.921929
6777.406547
6890.32756
6918.624868
6945.04463
7000.00757
6908.208955
6724.723485
6600.11251
6655.634243
6716.07336
6655.656595
6586.455594
6611.221327
6656.170685
6601.028931
6520.853224
6542.512064
6603.487623
6575.078556
6502.569497
6528.162244
6622.933641
6633.036629
6566.003748
6563.790925
6643.988984
6665.223141
6588.780175
6555.341966
6614.372923
6643.698411
6574.452707
6522.820177
6571.256408
6610.126091
6551.765686
6489.650189
6541.930919
6609.544946
6577.17962
6514.751198
6556.995995
6639.116304
6623.872414
6554.447896
6574.564466
6662.742098
6669.782897
6603.979362
6604.538155
6687.88781
6715.648677
6645.665365
6623.514786
6701.544726
6747.142285
6693.051063
6660.08224
6730.132607
6796.517288
6755.859465
6711.088921
6771.058651
6849.043888
6821.39478
6760.240407
6799.244201
6881.073938
6863.349004
6783.441518
6781.452213
6837.555091
6813.526966
6706.015075
6673.448583
6730.333773
6727.025715
6627.649859
6580.554733
6638.646917
6664.30672
6586.813222
6535.985355
6600.6266
6650.403935
6592.334103
6532.766704
6577.581951
6648.504036
6613.836481
6545.328384
6570.250579
6636.836426
6611.78012
6534.219567
6547.474152
6632.187263
6638.468103
6558.426506
6549.977547
6631.695525
6653.354365
6577.045509
6542.512064
6607.041551
6641.686754
6572.329291
6522.954288
6579.660664
6629.102722
6572.753975
6507.442177
6556.012518
6623.090103
6581.784079
6509.900869
6546.445971
6631.293193
6620.162025
6545.238977
6553.442067
6625.749961
6617.904498
6536.834721
6527.692858
6605.834556
6627.694562
6555.923111
6528.899852
6603.644085
6645.486551
6584.73451
6537.818198
6598.547888
6655.500133
6602.54885
6545.060163
6592.267047
6662.473877
6622.978344
6554.783172
6591.171812
6661.982138
6639.943318
6572.239884
6600.470138
6697.387302
6705.657447
6625.928775
6614.372923
6696.046197
6716.900375
6644.368964
6611.981286
6676.287255
6702.930534
6633.81894
6585.293303
6633.863644
6661.535104
6589.406024
6528.966907
6569.155344
6627.158121
6584.019254
6509.207965
6534.174864
6607.019199
6584.510992
6506.011666
6517.366352
6595.843327
6591.372978
6513.097169
6507.106901
6590.769481
6616.541042
6552.995032
6531.671468
6600.313675
6663.010319
6646.067696
6655.097801
6767.750593
6933.041743
6967.195209
6940.462523
6911.360551
6844.282966
6710.641886
6586.813222
6627.5381
6708.339656
6680.891714
6587.081443
6569.803544
6625.571147
6614.238812
6529.25748
6511.085512
6580.822954
6606.460405
6542.556768
6522.954288
6604.828728
6651.767391
6594.301056
6552.592701
6618.95503
6679.975293
6621.301963
6551.273948
6592.512917
6651.812095
6610.61783
6529.816273
6542.869692
6602.772367
6570.988187
6487.571476
6494.679331
6578.833649
6589.271914
6524.630669
6529.503349
6621.480777
6658.495266
6602.727664
6582.745204
6663.055022
6719.671991
6670.07347
6629.46035
6694.191002
6765.850695
6718.800273
6659.389336
6710.619534
6786.391948
6756.619424
6692.089938
6722.108331
6811.448254
6805.994428
6736.234633
6753.020794
6845.691126
6864.243074
6792.628085
6783.73209
6863.460763
6884.069071
6796.91962
6746.024698
6788.604771
6802.932239
6720.94604
6654.404897
6691.017054
6722.778883
6653.577882
6576.978454
6609.187318
6668.553551
6630.756751
6554.023213
6575.167963
6648.816961
6634.489493
6557.711251
6561.242826
6640.166836
6643.385487
6562.338062
6544.814294
6619.536176
6647.252339
6573.513934
6539.226358
6615.445806
6664.977272
6609.746112
6564.863809
6623.358324
6681.629322
6629.616812
6560.326405
6594.457518
6657.556493
6620.385542
6546.982413
6564.863809
6633.193092
6614.127054
6537.482922
6542.623823
6622.419551
6631.114379
6560.460515
6550.603396
6629.773275
6665.558418
6598.011446
6557.644195
6612.405969
6648.325223
6587.528478
6538.578157
6594.256353
6650.381583
6602.213574
6537.371163
6580.197105
6650.560397
6617.971554
6545.753067
6567.411908
6640.300946
6637.104647
6572.30694
6582.81226
6661.579807
6660.752792
6579.593608
6565.13203
6652.52735
6687.597238
6625.772312
6597.609114
6671.191057
6717.503872
6655.678946
6604.493452
6658.53997
6709.300781
6650.828618
6583.348701
6616.585745
6674.096784
6623.470083
6534.197215
6545.574253
6617.636277
6605.298114
6525.457683
6531.649116
6612.517728
6617.323353
6535.001878
6518.439236
6594.636332
6618.776216
6547.07182
6512.828948
6580.554733
6627.113417
6569.982358
6530.240957
6596.603286
6653.332013
6623.961821
6601.163042
6694.213354
6818.980791
6897.077787
6921.485892
6990.418671
7015.474977
6868.065222
6689.474784
6628.074542
6715.648677
6730.356125
6647.051173
6619.290306
6679.014168
6686.189078
6585.919152
6529.369239
6585.583876
6625.079408
6565.64612
6524.116579
6595.865678
6667.368909
6627.202824
6569.535323
6610.75194
6682.277522
6651.119191
6581.091175
6598.994923
6671.258112
6653.466124
6572.284588
6566.115506
6636.299984
6638.132827
6550.134009
6520.495596
6587.796699
6620.251431
6554.738468
6525.41298
6603.800548
6663.859685
6619.178548
6583.594571
6653.689641
6726.1987
6694.54863
6640.233891
6693.587505
6774.567875
6758.809895
6692.939304
6718.241479
6800.607658
6800.652361
6731.719581
6744.39302
6833.017687
6852.061373
6785.788451
6782.480393
6870.367452
6907.180775
6843.925338
6823.294678
6903.291572
6951.638395
6889.232324
6824.456969
6850.630862
6883.487926
6816.253879
6726.779846
6734.826474
6775.350186
6724.947003
6630.421475
6636.814074
6703.735197
6685.83145
6597.206783
6586.65676
6662.987967
6669.671138
6594.85985
6575.033852
6647.051173
6675.549647
6606.840385
6565.489658
6630.399123
6678.27656
6617.077484
6562.583931
6615.803434
6682.366929
6642.223196
6577.894876
6617.92685
6693.051063
6665.71488
6587.595533
6600.894821
6672.532162
6658.517618
6572.485754
6570.116469
6646.000641
6653.153199
6576.464364
6553.240902
6628.454522
6664.530237
6599.330199
6565.623768
6636.545853
6688.223086
6634.221272
6584.153364
6635.428266
6694.526278
6646.335917
6576.263198
6610.796644
6680.310569
6654.583711
6583.728681
6601.163042
6674.655577
6666.87717
6588.71312
6584.175716
6660.842199
6674.834391
6602.101815
6583.303998
6662.317415
6702.461148
6636.255281
6594.926905
6653.309662
6704.606915
6662.809153
6626.085237
6689.608895
6751.94791
6708.853747
6645.754772
6677.494249
6747.20934
6717.258002
6641.843217
6650.47099
6716.676857
6698.706055
6602.012408
6579.437146
6639.473932
6647.721725
6570.742318
6545.171922
6621.503129
6653.153199
6580.666492
6539.807503
6607.153309
6654.561359
6591.350626
6534.51014
6585.673283
6646.671193
6607.42153
6542.556768
6582.119355
6660.506923
6643.765467
6559.812314
6580.89001
6701.298857
6749.176294
6719.873157
6800.205326
6989.032863
7065.319367
6984.897791
6833.911757
6794.885611
6739.542692
6662.831505
6639.496283
6695.822679
6730.534939
6655.433077
6582.789908
6617.904498
6658.495266
6603.912306
6531.492654
6564.662643
6644.413667
6630.063847
6571.368166
6596.692693
6683.596275
6683.797441
6606.996847
6599.151385
6678.477726
6694.772148
6620.273783
6589.674245
6652.504999
6678.544781
6599.374902
6549.597567
6607.175661
6651.096839
6594.032835
6540.142779
6592.065882
6658.137638
6627.5381
6572.150477
6617.278649
6706.886793
6697.275543
6638.04342
6668.575903
6760.151
6769.538733
6701.097691
6701.745892
6785.676692
6810.062445
6746.784657
6737.754552
6814.86807
6849.535626
6791.957532
6764.241369
6842.40542
6909.080673
6865.025385
6818.734922
6877.654121
6946.408087
6916.72497
6853.625995
6882.571504
6943.50236
6901.48108
6798.528945
6782.815669
6836.236338
6806.307352
6706.216241
6677.941284
6732.032506
6733.038334
6652.01326
6619.46912
6685.093842
6708.049084
6631.606118
6587.483774
6652.683813
6705.121005
6649.331051
6584.466289
6627.471045
6689.29597
6645.888882
6572.44105
6602.951181
6679.952941
6658.696432
6589.540135
6610.953106
6693.386339
6694.749796
6615.915193
6603.174699
6680.243514
6695.487403
6615.915193
6582.499335
6647.00647
6677.740118
6607.533289
6555.833704
6618.217423
6674.81204
6623.335972
6561.958082
6613.210632
6684.266828
6649.912196
6584.712158
6620.251431
6695.912086
6667.860647
6580.957065
6588.668417
6670.900484
6667.681833
6586.187373
6579.414794
6658.584673
6679.081223
6608.852042
6587.640236
6659.94813
6692.827546
6623.671248
6574.3633
6633.371905
6686.524354
6630.287365
6570.652911
6622.374847
6692.894601
6661.579807
6599.509013
6626.867548
6697.789633
6684.020958
6622.307792
6649.688679
6736.05582
6739.922671
6666.36308
6656.058926
6733.932404
6748.975128
6667.77124
6629.572109
6688.178383
6715.805139
6640.85974
6577.157268
6614.998772
6661.4904
6605.834556
6540.768628
6580.264161
6647.542911
6611.355437
6535.314803
6560.818143
6634.914176
6616.406931
6539.941614
6550.178713
6624.878243
6623.984173
6546.93771
6537.97466
6617.03278
6649.912196
6588.71312
6556.481905
6645.777124
6729.395
6717.794444
6725.68461
6904.319752
7057.473905
7048.935538
6911.405255
6810.576536
6765.78364
6677.24838
6621.234908
6658.271749
6724.455264
6692.581677
6593.406986
6583.46046
6644.637185
6634.06481
6545.52955
6531.850282
6617.591574
6648.660499
6586.008559
6566.517838
6646.537083
6692.715787
6623.31362
6573.178658
6633.751885
6686.636113
6634.5789
6569.267102
6607.868565
6664.351423
6621.167853
6544.747239
6562.919207
6632.030801
6615.222289
6535.873596
6544.456666
6629.482702
6638.602214
6572.508105
6579.437146
6670.274636
6706.998552
6648.392278
6630.130903
6718.643811
6773.60675
6720.767226
6681.584618
6748.148113
6813.303448
6771.215114
6721.415427
6777.026567
6847.65808
6818.19848
6762.274416
6802.865184
6893.546211
6886.259542
6820.321896
6835.454027
6923.944583
6934.382848
6863.840743
6852.240187
6921.374133
6931.387714
6838.002126
6783.687387
6826.870957
6845.534664
6762.564988
6691.73231
6726.06459
6759.301634
6692.805194
6616.205766
6651.029784
6710.619534
6668.575903
6593.786966
6614.641144
6686.189078
6671.079298
6594.47987
6601.923001
6676.041386
6676.667235
6601.587725
6587.059091
6657.690603
6679.505906
6609.969629
6587.774347
6659.881074
6706.126834
6649.800438
6601.923001
6645.508903
6693.833374
6638.155179
6574.430355
6615.155234
6684.915028
6649.06283
6570.496448
6592.468213
6667.726537
6647.811132
6570.00471
6578.274855
6668.553551
6681.47286
6609.500242
6600.291324
6672.912141
6694.883906
6625.302926
6594.47987
6661.11042
6704.472805
6639.339821
6591.127108
6651.298005
6703.601087
6650.918025
6590.881239
6635.048286
6698.01315
6665.066679
6595.463347
6618.686809
6689.631246
6670.498153
6595.150422
6602.615905
6684.579752
6696.068549
6626.64403
6612.629487
6688.379549
6719.649639
6664.843162
6645.307737
6716.989781
6755.546541
6695.4427
6653.8014
6709.948982
6763.280244
6710.507776
6641.642051
6673.739156
6735.385267
6691.441738
6603.331161
6605.856908
6669.022938
6647.677022
6568.194219
6574.005672
6652.147371
6661.311586
6577.850172
6556.437201
6633.908347
6656.885941
6585.740338
6552.458591
6613.992943
6657.467086
6602.459443
6559.141762
6621.63724
6691.866421
6653.466124
6580.733547
6637.395219
6749.578625
6771.639797
6758.206398
6883.711443
7066.50401
7097.684693
6981.142697
6840.99726
6798.104262
6727.673915
6654.874284
6652.90733
6720.901337
6739.497988
6650.672156
6597.318542
6651.700336
6676.510772
6599.531364
6544.63548
6600.537193
6667.435964
6632.522539
6581.717024
6640.300946
6721.437779
6685.607932
6620.027914
6646.917063
6713.815834
6689.854764
6607.309771
6607.108606
6679.081223
6676.555476
6591.14946
6563.120373
6631.114379
6656.818885
6581.962893
6551.81039
6627.314583
6688.223086
6638.512807
6590.925943
6655.34367
6728.009192
6692.604028
6638.021068
6690.279447
6770.723375
6746.672898
6673.336825
6708.116139
6796.114957
6794.192707
6728.031543
6741.733163
6837.376277
6861.024423
6792.203402
6784.313236
6872.982606
6911.539365
6852.217835
6822.04298
6898.396539
6955.214674
6898.798871
6852.687222
6896.809566
6937.176816
6869.45103
6782.5698
6800.495899
6839.767914
6783.620332
6690.748834
6684.5574
6740.325003
6716.520395
6626.040533
6620.787873
6689.765357
6685.607932
6605.700446
6584.555696
6658.115287
6683.886848
6613.031818
6577.090213
6641.88792
6683.752737
6621.301963
6567.657777
6621.436074
6685.295008
6645.263034
6588.71312
6636.679964
6712.474729
6689.117156
6616.921022
6626.934603
6694.54863
6673.269769
6587.975513
6580.599437
6655.388374
6662.295063
6585.181544
6567.009576
6644.368964
6676.443717
6608.203841
6577.738414
6648.906368
6703.154052
6645.307737
6592.132937
6643.050211
6699.600124
6651.812095
6575.749108
6601.967705
6669.917008
6644.972461
6577.537248
6595.306885
6669.55938
6666.676005
6598.726702
6612.607135
6704.048121
6724.634078
6645.08422
6621.190205
6693.721616
6725.595203
6665.647824
6634.265975
6701.745892
6752.59611
6698.638999
6647.542911
6696.739101
6743.230729
6685.160897
6611.936583
6647.095877
6712.854709
6679.30474
6583.192239
6583.438108
6650.247473
6639.920967
6562.673338
6560.326405
6637.752847
6653.42142
6572.932788
6551.095134
6626.8899
6659.992833
6593.742263
6556.973643
6616.831615
6662.272711
6606.683923
6554.939634
6608.82969
6681.808136
6649.979252
6580.51003
6641.083257
6761.357994
6791.555201
6777.093622
6890.528725
7029.176596
7041.492407
6907.158423
6790.147041
6759.793372
6720.543709
6659.277577
6651.029784
6723.941174
6747.142285
6652.482647
6595.910382
6644.525426
6676.488421
6606.572164
6546.133047
6596.133899
6668.553551
6636.299984
6590.434204
6648.705202
6728.098598
6701.075339
6621.592536
6631.449655
6698.929572
6678.768298
6595.105719
6585.092137
6648.615795
6655.321319
6574.22919
6552.749163
6630.466179
6670.96754
6611.042513
6575.302073
6643.29608
6698.795462
6643.877225
6590.545963
6652.281481
6717.950907
6683.506868
6627.605155
6662.719746
6743.253081
6736.05582
6680.7129
6710.30661
6804.183937
6810.129501
6742.85075
6749.64568
6839.656155
6858.632786
6787.129556
6775.730166
6862.52199
6901.682246
6849.33446
6824.747542
6897.524821
6953.426534
6901.525784
6842.181902
6887.377129
6935.723953
6865.740641
6767.1918
6773.919675
6826.222757
6771.058651
6674.588522
6668.955883
6731.093732
6719.247308
6633.103685
6622.128978
6688.334845
6697.096729
6620.74317
6594.09989
6667.033633
6696.783805
6631.270842
6587.774347
6642.469065
6684.020958
6623.090103
6573.178658
6626.12994
6692.11229
6663.010319
6606.706274
6641.195016
6723.494139
6698.25902
6618.887975
6622.084275
6695.822679
6688.133679
6600.313675
6587.014387
6667.011281
6681.137583
6602.414739
6578.610132
6651.588577
6688.021921
6620.832577
6588.802527
6655.500133
6708.250249
6657.422383
6604.85108
6652.706164
6715.782787
6671.928665
6596.424472
6623.067751
6690.257095
6662.183304
6585.539172
6599.084329
6682.992778
6684.088014
6606.661571
6604.85108
6689.564191
6712.430026
6648.347574
6626.800493
6696.873211
6724.499968
6654.762525
6620.251431
6692.536973
6748.304575
6691.888772
6634.802417
6689.094804
6751.925558
6711.580659
6639.630394
6670.028766
6733.641831
6702.639962
6620.184376
6623.224214
6684.311531
6662.183304
6583.46046
6572.709271
6645.911234
6663.010319
6587.416719
6561.198123
6636.702315
6672.353348
6603.219402
6560.281701
6617.591574
6665.513714
6608.114434
6551.609224
6601.297152
6665.469011
6634.19892
6582.745204
6614.350571
6684.870325
6696.47088
6671.146354
6735.966413
6887.086557
7004.455567
7001.639247
7010.222317
6989.032863
6876.245961
6696.068549
6633.617775
6717.034485
6749.712735
6672.420403
6610.215498
6647.542911
6682.836316
6612.629487
6538.779323
6574.251541
6640.390353
6607.220364
6548.770553
6596.983266
6687.798403
6680.869362
6610.75194
6625.705257
6702.349389
6693.65456
6611.556603
6602.660609
6676.778993
6684.266828
6598.369074
6558.672376
6621.212557
6646.291214
6570.630559
6518.305125
6577.984283
6637.395219
6597.698521
6556.414849
6615.49051
6694.861554
6666.497191
6604.068769
6643.81017
6728.590337
6725.103465
6661.848028
6686.502002
6775.976035
6783.061538
6708.853747
6702.707017
6784.939085
6811.939992
6749.958605
6728.344468
6810.442425
6862.6561
6805.815614
6768.86818
6835.901062
6900.743473
6863.416059
6813.906945
6864.667757
6932.460598
6891.020464
6804.854489
6813.035227
6868.892237
6826.334515
6721.437779
6701.410616
6754.00427
6732.680706
6635.964708
6611.735417
6678.254208
6689.430081
6612.830652
6578.543076
6640.189188
6674.454412
6610.439016
6562.382765
6618.239774
6673.046252
6617.949202
6557.241864
6597.273838
6666.161915
6629.773275
6556.414849
6583.97455
6662.89856
6656.930644
6593.474042
6609.612001
6692.916953
6697.655523
6618.977382
6600.336027
6666.899522
6679.349444
6598.503184
6568.149515
6634.19892
6670.542857
6605.186356
6555.006689
6616.719856
6680.467031
6640.233891
6584.645103
6633.908347
6701.321209
6665.603121
6592.289399
6618.731513
6690.234743
6671.280464
6595.597457
6605.164004
6682.858668
6685.83145
6603.532327
6589.115451
6663.502057
6687.23961
6611.13192
6577.403137
6648.369926
6697.722578
6646.201807
6603.912306
6656.885941
6705.635095
6659.031708
6611.087216
6669.067641
6749.757439
6718.777921
6649.174589
6682.098708
6760.642738
6744.996517
6660.752792
6656.394202
6722.018924
6716.45334
6634.444789
6610.640181
6668.642958
6672.219237
6590.970646
6555.878407
6620.787873
6657.26592
6594.144594
6543.406134
6602.057112
6658.897598
6607.198013
6543.719058
6580.286512
6645.330089
6614.037647
6540.969794
6565.154381
6643.117266
6633.371905
6570.205876
6577.671358
6650.515693
6676.555476
6643.631356
6682.769261
6826.736847
6964.736517
6972.112593
6965.071793
6935.835711
6854.028327
6693.766319
6608.44971
6678.723595
6731.384305
6672.688624
6594.949257
6615.825786
6667.547723
6620.251431
6534.197215
6546.133047
6618.418588
6614.395274
6540.545111
6542.221492
6617.278649
6628.409818
6552.547998
6531.470303
6600.268972
6622.978344
6553.106791
6521.143797
6589.428376
6630.443827
6569.423565
6515.488805
6575.190315
6624.990001
6571.703443
6511.107863
6554.24673
6621.011391
6596.580934
6535.627727
6569.267102
6651.275653
6650.560397
6585.405062
6601.00658
6681.450508
6689.720653
6612.987115
6600.671303
6684.311531
6713.547613
6658.338804
6637.931661
6706.775034
6757.133515
6706.059778
6663.770278
6726.846901
6798.707759
6770.365747
6719.470825
6766.029509
6854.363603
6847.635728
6784.536753
6816.253879
6886.684225
6865.450068
6772.824439
6753.154904
6815.918602
6805.033303
6704.383398
6667.458316
6715.603973
6717.392113
6624.185339
6570.764669
6623.648897
6644.659536
6558.359451
6490.477203
6552.235073
6617.03278
6571.390518
6499.037921
6524.071875
6591.350626
6561.399288
6496.311008
6530.375067
6605.186356
6592.669379
6520.495596
6525.41298
6608.472062
6623.961821
6555.498428
6540.679221
6620.162025
6651.230949
6573.804507
6536.454742
6610.640181
6660.439868
6610.841347
6565.959044
6618.396237
6675.370833
6629.013315
6573.133954
6597.698521
6662.205656
6634.310679
6558.739431
6573.648044
6641.016202
6628.163949
6553.799695
6555.1408
6624.855891
6623.470083
6550.558692
6542.266195
6619.916155
6649.219292
6577.000806
6536.588852
6597.095024
6637.395219
6572.843382
6518.349829
6572.44105
6626.8899
6573.580989
6504.558802
6543.74141
6619.737341
6599.73253
6536.790018
6567.613073
6647.766429
6641.284423
6571.055242
6591.440033
6688.625418
6710.68659
6637.01524
6619.044437
6696.649694
6722.153034
6645.508903
6594.904553
6647.162932
6675.571999
6600.961876
6537.102942
6571.256408
6604.09112
6536.119465
6461.464639
6495.327532
6573.178658
6559.186466
6496.266305
6529.793922
6623.961821
6633.729533
6577.827821
6596.26801
6694.191002
6722.912994
6661.468048
6657.13181
6742.716639
6783.218
6732.703058
6718.532052
6787.777756
6843.187731
6821.841815
6819.09255
6922.201147
7068.158039
7132.575766
7121.399894
7132.709877
7055.708117
6897.055435
6721.504834
6723.494139
6803.736902
6774.009082
6669.581732
6633.68483
6675.616703
6662.920912
6563.947387
6524.943593
6589.428376
6620.385542
6558.225341
6530.531529
6607.332123
6666.005452
6615.825786
6569.669434
6629.795626
6696.560287
6655.72365
6589.674245
6623.492434
6690.234743
6655.544836
6572.731623
6581.4041
6649.465161
6633.774237
6546.602434
6540.880387
6611.891879
6618.865623
6544.680183
6530.486826
6612.204803
6651.163894
6588.109623
6557.532437
6633.908347
6695.777976
6653.130848
6608.025027
6671.839258
6745.041221
6711.379494
6654.404897
6698.460185
6778.300617
6761.268587
6696.33677
6724.857596
6814.890422
6822.847643
6760.352166
6771.483334
6859.437449
6884.292589
6820.657172
6807.93903
6887.377129
6921.016505
6846.585196
6792.449271
6836.482207
6862.320824
6782.100413
6704.15988
6731.697229
6773.383233
6711.871232
6626.800493
6647.162932
6709.345485
6675.46024
6593.429338
6601.65478
6674.43206
6665.111383
6584.421585
6577.604303
6651.476818
6661.803324
6583.661626
6555.230207
6624.922946
6655.85776
6583.013425
6540.768628
6606.974495
6662.585635
6609.768463
6557.264216
6608.092083
6669.917008
6625.302926
6551.117486
6579.347739
6647.52056
6620.765522
6540.589814
6549.128181
6622.732475
6615.714027
6537.125294
6533.61607
6615.378751
6632.634298
6558.538265
6536.678259
6608.650876
6639.608042
6567.925998
6524.742427
6587.17085
6636.277632
6579.347739
6523.669544
6575.190315
6638.401048
6597.162079
6532.766704
6566.316672
6637.506978
6613.232984
6537.035887
6553.106791
6631.136731
6626.621679
6550.603396
6550.424582
6638.222234
6664.373775
6595.239829
6567.814239
6637.238757
6677.829525
6628.387466
6604.202879
6677.158973
6732.032506
6682.433985
6629.348591
6677.270732
6737.352221
6691.821717
6614.305867
6636.657612
6700.203621
6671.459278
6582.901667
6574.586818
6632.701353
6624.58767
6543.428486
6533.526663
6608.784987
6623.067751
6546.982413
6519.914451
6591.01535
6625.191167
6556.526608
6513.11952
6574.22919
6627.471045
6573.759803
6513.253631
6566.249617
6641.574996
6610.75194
6537.08059
6583.058129
6701.880002
6734.938232
6715.425159
6841.13137
7020.235899
7063.419469
6924.101046
6772.690329
6739.52034
6698.594296
6636.545853
6620.139673
6679.014168
6695.107424
6604.739321
6540.098076
6585.405062
6626.085237
6568.887123
6514.170052
6571.614036
6649.219292
6621.39137
6557.510085
6590.63537
6666.430136
6646.827656
6572.642216
6585.092137
6664.083202
6666.206618
6587.483774
6576.307902
6651.633281
6665.3349
6583.907495
6550.245768
6612.920059
6644.19015
6576.263198
6533.213739
6599.933696
6660.149295
6616.116359
6566.987224
6625.682905
6705.94802
6679.528258
6620.944336
6661.199827
6746.471732
6736.994593
6667.726537
6684.93738
6769.091698
6776.087794
6707.199717
6706.953848
6794.595038
6825.61926
6762.833209
6746.985823
6830.11196
6878.995225
6824.747542
6792.292809
6865.47242
6929.018429
6882.012711
6824.881652
6867.171152
6916.523804
6859.012766
6765.560122
6766.81182
6813.549318
6769.985768
6671.839258
6656.908292
6714.016999
6697.834336
6602.861774
6581.515858
6650.582749
6664.329072
6583.862792
6550.178713
6614.819958
6652.840275
6587.483774
6540.053372
6597.877335
6648.615795
6593.518745
6529.704515
6572.105774
6636.210577
6599.888992
6534.577195
6569.825896
6648.571092
6631.963746
6553.106791
6559.432335
6635.2271
6634.422437
6552.950329
6538.600509
6614.127054
6634.154217
6558.270044
6526.351753
6597.743225
6641.50794
6584.175716
6543.6073
6608.561469
6667.77124
6617.79274
6557.331271
6599.173736
6660.998662
6620.497301
6548.077649
6576.821992
6651.767391
6633.908347
6555.811352
6561.555751
6636.724667
6637.328164
6559.052355
6545.641309
6621.078446
6641.954975
6567.031928
6534.778361
6603.174699
6647.095877
6591.574143
6555.364317
6620.296135
6670.72167
6613.478853
6552.83857
6608.69558
6691.687607
6670.118173
6600.805414
6628.789798
6708.473767
6693.498098
6611.847176
6612.428321
6681.137583
6673.783859
6587.81905
6567.143687
6631.986097
6635.808246
6540.27689
6498.792052
6564.349719
6601.900649
6536.253576
6485.269247
6542.154436
6597.318542
6550.603396
6490.968942
6534.554843
6607.130957
6575.346777
6502.837718
6527.759913
6606.058074
6594.09989
6526.932898
6549.195236
6625.235871
6638.289289
6601.699484
6645.285385
6777.205381
6897.323656
6939.836674
6969.028052
7014.35739
6916.948487
6735.67584
6604.135824
6663.524409
6736.502854
6679.125926
6600.738359
6618.351533
6663.591464
6613.143577
6525.837663
6542.355602
6615.155234
6607.086254
6542.981451
6560.147591
6645.106571
6654.851932
6578.856001
6563.053317
6638.624565
6662.965615
6590.657722
6558.761782
6625.660554
6663.837333
6597.787928
6539.718096
6585.717986
6632.097856
6574.698576
6505.899907
6544.858997
6617.256298
6593.96578
6532.006744
6566.808411
6655.477781
6656.885941
6591.328274
6608.047379
6698.504889
6716.58745
6650.85097
6644.771295
6731.83134
6764.576645
6699.130738
6670.833429
6743.029564
6790.191745
6737.262814
6700.114214
6768.577608
6838.203292
6801.032341
6751.299709
6805.010951
6887.377129
6872.423812
6812.163509
6843.031268
6923.206976
6907.270182
6818.95844
6806.128538
6863.952501
6848.775667
6747.186988
6704.003418
6754.406602
6756.239445
6663.323243
6607.265068
6657.042403
6687.150203
6614.797606
6555.699594
6604.269934
6660.708089
6610.126091
6542.109733
6580.331216
6643.005507
6607.220364
6535.583023
6560.505219
6639.943318
6626.711086
6546.580082
6550.424582
6636.210577
6656.930644
6585.226248
6568.104812
6642.580824
6667.525371
6592.490565
6553.129143
6617.837443
6661.892731
6598.816109
6544.099038
6597.966742
6657.288272
6609.947277
6547.183579
6590.836536
6658.741135
6622.66542
6549.731678
6575.972626
6649.040478
6640.658574
6561.667509
6560.929902
6640.569167
6647.051173
6563.410945
6547.205931
6627.448693
6657.332976
6585.092137
6549.217588
6614.21646
6655.589539
6589.540135
6537.46057
6594.256353
6658.718784
6616.38458
6561.04166
6605.432225
6675.750813
6638.825731
6567.367204
6600.470138
6692.827546
6695.666217
6623.738304
6618.195071
6699.644828
6716.788616
6637.350516
6607.220364
6667.882999
6686.434947
6609.142615
6564.260312
6618.731513
6647.542911
6567.501315
6504.670561
6559.387631
6617.92685
6567.411908
6493.51704
6528.586927
6604.068769
6574.698576
6501.496613
6515.622916
6583.616922
6571.882256
6499.708474
6504.089416
6583.371053
6595.776271
6519.042733
6503.105939
6583.46046
6613.612963
6578.163097
6599.888992
6727.718619
6838.225643
6877.89999
6886.438356
6956.846351
6952.59952
6782.390986
6604.761673
6603.800548
6690.145336
6670.96754
6594.681036
6602.638257
6655.544836
6627.180472
6529.101018
6499.037921
6560.818143
6573.312768
6502.10011
6483.525811
6569.512972
6619.960859
6569.49062
6535.426561
6595.865678
6640.792685
6585.472117
6528.564576
6579.034815
6637.998717
6586.142669
6521.859052
6570.809373
6639.898615
6607.265068
6526.530567
6535.180692
6603.465271
6598.950219
6525.681201
6531.559709
6614.909365
6626.956955
6555.65489
6547.161227
6623.760655
6664.932569
6612.02599
6581.001768
6658.182342
6726.623383
6684.93738
6638.624565
6695.710921
6768.935236
6740.995555
6689.29597
6734.848825
6823.629954
6813.504614
6745.354145
6773.450288
6858.006937
6856.75524
6774.590227
6772.176239
6863.080783
6877.721176
6795.533812
6759.703965
6807.112015
6802.462852
6711.491252
6643.206673
6680.19881
6711.133624
6644.815999
6583.97455
6617.79274
6654.986042
6597.497356
6525.010648
6559.208817
6625.168815
6591.462385
6511.867823
6522.551956
6596.133899
6591.305922
6504.78232
6492.421805
6568.574198
6585.38271
6506.481052
6487.683235
6572.06107
6613.635315
6550.02225
6509.632648
6570.250579
6617.837443
6558.47121
6503.932953
6551.318652
6608.337952
6564.439126
6489.627837
6522.507253
6599.553716
6574.720928
6501.004875
6515.332343
6590.545963
6593.094062
6520.719113
6517.142834
6592.222344
6610.662533
6535.806541
6507.73275
6573.98332
6601.833594
6532.140855
6486.498593
6549.441105
6610.282553
6566.54019
6518.148663
6572.351643
6636.054115
6596.022141
6534.308974
6571.725794
6651.87915
6641.664403
6568.998881
6579.414794
6662.071545
6656.75183
6563.410945
6551.050431
6629.773275
6640.412705
6552.995032
6520.696762
6585.963856
6606.460405
6521.501424
6467.410203
6526.642326
6575.302073
6519.534471
6462.314005
6508.738578
6573.290416
6533.906643
6462.202246
6488.711415
6560.371108
6541.506236
6465.040918
6475.32272
6554.470248
6553.844399
6478.51902
6479.569552
6570.809373
6588.556658
6524.675372
6539.38282
6662.51858
6757.021756
6764.062555
6814.644553
6918.691923
6962.59075
6807.04496
6635.025935
6598.32437
6658.897598
6640.032725
6571.681091
6594.368111
6653.086144
6603.129995
6504.894078
6500.826061
6563.410945
6555.967814
6479.591904
6475.479183
6564.394422
6597.542059
6537.862901
6518.439236
6590.814184
6621.12315
6549.306995
6501.094282
6555.431373
6604.046417
6546.334213
6480.150697
6522.261384
6587.863754
6551.139838
6485.962151
6518.528642
6596.424472
6581.940541
6511.264326
6525.524738
6606.661571
6611.467196
6540.813332
6537.371163
6621.63724
6651.566225
6591.305922
6573.46923
6654.069621
6703.489328
6650.068659
6614.998772
6683.52922
6746.404677
6701.701188
6650.672156
6706.730331
6780.26757
6754.496009
6694.682741
6734.491197
6819.450178
6809.950687
6743.655413
6761.492105
6847.926301
6853.648347
6768.711718
6743.789523
6802.015817
6800.942934
6702.282334
6642.290252
6687.105499
6701.432967
6619.111493
6556.705422
6598.927867
6640.300946
6579.638312
6513.343038
6553.665585
6613.478853
6573.290416
6500.803709
6524.3848
6597.922039
6578.028986
6497.60741
6499.708474
6578.967759
6580.420623
6500.848413
6491.415976
6571.703443
6599.553716
6534.376029
6508.62682
6578.900704
6616.652801
6547.295338
6496.288657
6551.43041
6607.667399
6557.644195
6495.908677
6536.298279
6598.883164
6561.756916
6491.0807
6520.987334
6601.297152
6589.383672
6519.355657
6532.163207
6614.015295
6617.815091
6540.701573
6528.095189
6601.341856
6618.485644
6541.394477
6504.737616
6567.076631
6603.219402
6537.125294
6488.398491
6554.783172
6621.681943
6577.894876
6516.025247
6555.096096
6620.966687
6589.204858
6524.429503
6562.986262
6643.407839
6628.94626
6556.079573
6562.561579
6637.439923
6636.747019
6550.983375
6527.357582
6591.618847
6609.276725
6532.453779
6491.483032
6542.735582
6572.552809
6508.135081
6457.195456
6511.487843
6568.328329
6519.489767
6453.887398
6495.998084
6566.875466
6534.800712
6460.302348
6482.475279
6557.95712
6544.076686
6467.589017
6471.433517
6550.111657
6564.640291
6500.379026
6481.782375
6570.38469
6637.730496
6621.726647
6648.727554
6821.730056
6971.039709
6963.373061
6883.66674
6807.067312
6750.204474
6623.246565
6560.929902
6612.517728
6671.369871
6623.425379
6525.055352
6524.630669
6581.493507
6551.899797
6464.146848
6467.566665
6549.329346
6564.863809
6499.887288
6494.232296
6578.610132
6611.13192
6540.92509
6503.932953
6570.161172
6613.635315
6554.023213
6509.252669
6570.921131
6627.605155
6571.904608
6498.188555
6532.230262
6595.88803
6558.60532
6486.900924
6511.733712
6593.295228
6587.707292
6520.205023
6531.112675
6613.56826
6627.560452
6559.141762
6553.889102
6638.870435
6675.97433
6614.261164
6587.394367
6661.311586
6706.909145
6648.884016
6606.840385
6669.335862
6733.172444
6694.101595
6642.133789
6695.733273
6778.099451
6760.754497
6700.427139
6737.061648
6827.653268
6827.67562
6757.759363
6761.536808
6833.196501
6828.524986
6734.982936
6695.107424
6743.118971
6744.080096
6650.180417
6592.669379
6639.742153
6665.111383
6589.897763
6527.424637
6575.480887
6630.242661
6579.168925
6510.079683
6547.004765
6616.764559
6588.71312
6514.371218
6531.649116
6605.432225
6592.870545
6512.203099
6509.498538
6583.706329
6588.824879
6508.76093
6491.304218
6573.893913
6613.411798
6551.475114
6520.80852
6591.171812
6632.14256
6564.953216
6510.750235
6564.081498
6624.095932
6574.899742
6502.904773
6538.399343
6608.203841
6581.15823
6509.565593
6531.626765
6609.947277
6602.146518
6525.860015
6526.95525
6604.784024
6611.958934
6535.225396
6518.483939
6594.524574
6623.984173
6555.811352
6520.585003
6587.886106
6630.622641
6567.56837
6511.420788
6566.629597
6633.416609
6596.938562
6541.662698
6583.147536
6648.459333
6616.541042
6545.574253
6575.972626
6663.479705
6667.078336
6591.372978
6591.596495
6671.571037
6679.215333
6597.81028
6571.904608
6638.222234
6657.847066
6581.582914
6538.86873
6596.245658
6625.258222
6545.350736
6485.17984
6535.337154
6593.854021
6546.647137
6478.899
6512.717189
6582.499335
6553.464419
6475.479183
6493.941724
6569.468268
6561.93573
6484.218715
6484.866915
6565.310844
6581.739376
6511.19727
6504.447043
6583.482812
6610.818995
6565.802582
6574.3633
6690.078281
6805.50269
6866.277083
6894.216763
6974.12425
6938.808493
6770.231637
6608.717931
6602.951181
6690.70413
6665.089031
6576.28555
6569.870599
6623.805359
6599.240792
6505.788148
6489.404319
6561.712213
6578.096041
6510.727884
6499.708474
6581.292341
6618.753865
6550.938672
6510.437311
6573.580989
6623.380676
6570.049413
6516.718151
6568.149515
6629.035667
6584.421585
6513.432445
6541.595643
6609.679056
6575.302073
6488.443194
6501.630724
6583.46046
6584.555696
6515.354695
6522.239032
6611.310734
6635.584728
6568.440088
6554.045564
6636.434094
6679.103575
6620.74317
6588.176678
6659.210522
6715.000476
6663.010319
6612.003638
6668.419441
6737.084
6702.684665
6641.127961
6684.04331
6767.594131
6756.619424
6697.521412
6725.796369
6817.930259
6829.374353
6764.464887
6769.315215
6853.089553
6865.964158
6781.765137
6743.342488
6794.99737
6803.066349
6709.099616
6641.574996
6682.366929
6713.502909
6639.116304
6566.271969
6602.347684
6655.656595
6606.102777
6531.716172
6561.153419
6632.030801
6608.181489
6531.023268
6542.959099
6620.698466
6616.272821
6535.784189
6526.977602
6601.632428
6613.56826
6535.180692
6509.520889
6582.141707
6621.503129
6565.020271
6531.380896
6600.11251
6653.220255
6594.613981
6528.184596
6564.684995
6621.614888
6578.811297
6508.068026
6538.086419
6611.735417
6590.344797
6515.444102
6529.548052
6609.120263
6610.014333
6534.599547
6529.860977
6607.28742
6625.861719
6548.658794
6520.920279
6591.194164
6628.320411
6564.953216
6523.803654
6585.293303
6637.283461
6580.711196
6519.892099
6564.282663
6628.275708
6588.109623
6516.785206
6549.262291
6624.654725
6602.839423
6523.289564
6534.353678
6613.56826
6613.143577
6534.465436
6525.167111
6603.129995
6628.365115
6563.567408
6546.736544
6622.397199
6653.577882
6584.086309
6547.250634
6626.621679
6692.581677
6643.407839
6586.030911
6633.68483
6699.354255
6657.623548
6581.672321
6603.018237
6667.525371
6637.931661
6556.54896
6558.582969
6622.710123
6600.783062
6508.917392
6496.735692
6570.183524
6587.81905
6511.264326
6482.005892
6552.83857
6590.769481
6522.59666
6475.009796
6534.711305
6586.924981
6533.057276
6472.975787
6521.747294
6592.691731
6558.582969
6499.283791
6539.427524
6608.069731
6604.247582
6569.557675
6633.640126
6768.443497
6880.224571
6901.414025
6938.8979
6954.119438
6839.902024
6670.766374
6578.2078
6659.232874
6708.451415
6630.801455
6562.516876
6596.156251
6629.952089
6559.991128
6489.091395
6528.452817
6595.418643
6563.85798
6500.244916
6531.112675
6604.85108
6585.114489
6507.889212
6518.930974
6602.280629
6608.203841
6533.705477
6525.524738
6602.012408
6618.038609
6538.958137
6507.017494
6570.094117
6597.4303
6523.356619
6473.512229
6534.174864
6595.418643
6554.045564
6505.564631
6560.818143
6636.009411
6609.120263
6546.714192
6582.387576
6664.664348
6656.215388
6587.975513
6603.040588
6686.904333
6695.174479
6625.057057
6620.407894
6703.623438
6733.105389
6668.777069
6644.927757
6727.450398
6782.078061
6731.183139
6697.007322
6770.611616
6841.176074
6803.759253
6755.79241
6807.916678
6876.223609
6836.795132
6754.563064
6763.324948
6816.320934
6774.456116
6671.638092
6654.404897
6709.770168
6693.833374
6599.888992
6572.999844
6636.769371
6650.180417
6570.027062
6534.443085
6598.212611
6634.891824
6568.864771
6518.014552
6576.754937
6630.823807
6578.386614
6514.01359
6553.375012
6619.804397
6584.689806
6509.543241
6535.068933
6618.128016
6611.891879
6540.589814
6547.138875
6624.632373
6624.297097
6541.148608
6521.926108
6595.128071
6617.233946
6545.283681
6512.873651
6580.822954
6622.754827
6561.332233
6513.924183
6573.960969
6635.361211
6589.517783
6529.302183
6572.865733
6640.122132
6606.326295
6530.330364
6553.73264
6628.119246
6613.590612
6536.968832
6540.746276
6617.502167
6620.676115
6542.445009
6526.999954
6601.587725
6625.749961
6553.509123
6519.489767
6587.886106
6630.332068
6565.735527
6514.728846
6568.775364
6622.598365
6570.161172
6506.503404
6547.049468
6616.317524
6585.628579
6516.606392
6540.768628
6615.311696
6602.146518
6524.451855
6528.8775
6606.77333
6611.355437
6535.650079
6524.65302
6610.573126
6647.162932
6580.375919
6541.394477
6604.582859
6651.767391
6608.44971
6574.475059
6636.702315
6693.14047
6643.787818
6581.4041
6617.591574
6679.572961
6640.85974
6559.36528
6572.44105
6642.536121
6621.927812
6531.604413
6514.572384
6575.659701
6576.933751
6494.388758
6476.060328
6550.558692
6575.547943
6503.731788
6469.667729
6538.578157
6583.259294
6521.456721
6469.243046
6525.770608
6585.181544
6541.953271
6481.357691
6528.542224
6613.389446
6586.880277
6512.828948
6561.980434
6688.111328
6726.556328
6719.806101
6839.72321
6994.620799
7016.726675
6830.49194
6698.415482
6683.126889
6680.0647
6627.560452
6589.763652
6640.85974
6660.797496
6577.336082
6509.252669
6549.575216
6601.051283
6552.860922
6490.387796
6536.231224
6614.551737
6589.808356
6515.019419
6533.839587
6610.461367
6602.951181
6533.012573
6540.723925
6621.525481
6630.980269
6548.144704
6521.724942
6586.567353
6604.515803
6531.760875
6499.753177
6558.582969
6596.491527
6539.472227
6498.076796
6562.427469
6634.601251
6601.252449
6547.094172
6595.798623
6675.549647
6656.371851
6590.210687
6615.266992
6699.2872
6696.001493
6622.486606
6626.062885
6708.607877
6722.823587
6652.974385
6644.19015
6727.293936
6765.761288
6707.020903
6683.685682
6763.906093
6822.691181
6777.183029
6738.402753
6802.753425
6872.580275
6833.352963
6770.65632
6801.881707
6860.666795
6815.851547
6718.688514
6713.25704
6766.141268
6734.379439
6633.014278
6610.953106
6670.185229
6664.418479
6575.927922
6546.758896
6615.714027
6641.798513
6570.317634
6529.011611
6591.931771
6635.920004
6574.542114
6519.422712
6568.842419
6628.007487
6582.164059
6512.158395
6545.328384
6617.099836
6595.865678
6528.162244
6551.452762
6629.773275
6620.497301
6538.824026
6532.252614
6607.689751
6616.138711
6536.186521
6511.756064
6584.935675
6614.59644
6545.060163
6507.844509
6575.860867
6625.839368
6571.301111
6520.920279
6578.096041
6641.910272
6597.743225
6530.218605
6563.232131
6631.002621
6602.481795
6526.687029
6543.540245
6619.938507
6608.516766
6527.33523
6523.781302
6600.492489
6614.015295
6538.980489
6517.656924
6590.657722
6623.380676
6556.191332
6520.048561
6585.069786
6631.807283
6573.580989
6515.55586
6564.841457
6625.749961
6582.767556
6514.840605
6548.301166
6620.899632
6594.323408
6519.154491
6536.208872
6614.819958
6609.701408
6531.716172
6527.156416
6604.269934
6618.217423
6542.534416
6525.234166
6605.700446
6643.743115
6577.358434
6533.012573
6595.686864
6649.778086
6609.433187
6568.887123
6626.152292
6688.536011
6646.358269
6578.051338
6609.34378
6678.231857
6647.408801
6562.718041
6568.998881
6640.34565
6626.196996
6536.499445
6512.337209
6573.782155
6583.616922
6505.631686
6480.44127
6551.922149
6583.84044
6514.885308
6474.026319
6537.08059
6585.2486
6524.943593
6466.851409
6517.522814
6582.007597
6543.719058
6479.524848
6522.574308
6610.059036
6585.8968
6517.612221
6571.144649
6702.707017
6748.908073
6763.682576
6866.008862
6999.269962
6988.854049
6780.446384
6654.203731
6651.923853
6684.624456
6630.019144
6577.380786
6624.855891
6650.962728
6573.46923
6499.484956
6533.10198
6590.165983
6548.077649
6482.587037
6523.334268
6601.185393
6579.817126
6503.843546
6517.701628
6598.212611
6599.620771
6524.965945
6520.696762
6600.671303
6615.289344
6533.258442
6498.076796
6561.93573
6587.416719
6511.621953
6462.38106
6524.071875
6579.48185
6530.263308
6481.871782
6543.853169
6621.748998
6594.189297
6536.678259
6580.219457
6664.709051
6651.677984
6583.527515
6603.800548
6688.737177
6691.5982
6617.256298
6613.903536
6696.046197
6719.515529
6653.197903
6636.143522
6718.37559
6766.878875
6715.738084
6686.323188
6760.419221
6825.038114
6783.46387
6735.564081
6794.527983
6868.065222
6835.834007
6765.984805
6788.604771
6850.519103
6809.905983
6710.574831
6696.783805
6750.271529
6725.930479
6626.107589
6597.720873
6656.036574
6656.483609
6569.021233
6530.755047
6592.17764
6621.570184
6550.357527
6502.390683
6561.332233
6612.070693
6555.632538
6493.89702
6536.074762
6600.671303
6562.941559
6492.421805
6521.948459
6600.872469
6586.65676
6512.09134
6521.613183
6599.039626
6596.603286
6515.086474
6502.010703
6576.710233
6592.848193
6518.88627
6488.666712
6555.610187
6589.271914
6521.501424
6476.350901
6540.567463
6599.844289
6554.023213
6499.574363
6550.178713
6619.223251
6580.577085
6507.889212
6534.063105
6605.789853
6584.555696
6505.028189
6513.097169
6588.109623
6587.30496
6509.096206
6497.22743
6573.133954
6591.238867
6516.740503
6486.900924
6556.839532
6596.491527
6533.906643
6486.275075
6544.63548
6599.084329
6545.283681
6482.676444
6526.351753
6591.395329
6554.202027
6483.816383
6510.660828
6586.455594
6570.652911
6494.008779
6505.8105
6593.518745
6605.320466
6531.045619
6514.505328
6585.963856
6613.143577
6557.308919
6542.824989
6619.089141
6659.590502
6596.089196
6551.385707
6607.309771
6658.607025
6600.939524
6528.274003
6564.439126
6626.934603
6583.773385
6499.954343
6506.145776
6566.853114
6546.200102
6465.555008
6467.566665
6542.19914
6543.22732
6464.772697
6450.400525
6526.418808
6547.362393
6471.746441
6436.542444
6504.603506
6546.960061
6484.509287
6437.592976
6506.235183
6579.683015
6529.726866
6477.222619
6559.566445
6679.192982
6692.358159
6711.245383
6840.907853
6966.636415
6924.950412
6714.866366
6617.435112
6620.296135
6625.928775
6562.405117
6537.415867
6598.279667
6596.938562
6501.496613
6451.316947
6504.715264
6536.410038
6470.427688
6425.143054
6491.192459
6558.582969
6515.354695
6457.910712
6504.26823
6578.140745
6550.737506
6483.883439
6511.823119
6590.054225
6576.531419
6495.841622
6493.226468
6563.947387
6560.482867
6476.149735
6454.848523
6527.938727
6555.051393
6488.823174
6463.520999
6542.042678
6596.849155
6549.083477
6514.460625
6583.214591
6648.973423
6607.980324
6552.078611
6599.397254
6677.002511
6655.053098
6589.60719
6616.742208
6698.281371
6693.408691
6622.933641
6638.04342
6725.68461
6741.464942
6677.941284
6674.454412
6759.033413
6794.505631
6733.552424
6710.731293
6788.671826
6841.913681
6785.90021
6737.084
6789.297675
6836.146931
6771.416279
6686.054967
6704.338694
6749.243349
6695.107424
6598.302018
6597.653818
6653.42142
6625.906423
6536.141817
6529.816273
6600.492489
6603.845251
6520.763817
6497.36154
6569.714137
6595.329236
6518.305125
6476.641473
6540.165131
6580.286512
6516.896965
6466.627892
6526.910547
6594.278704
6553.35266
6493.449985
6534.398381
6602.68296
6571.435222
6495.30518
6513.566555
6588.444899
6579.951236
6503.128291
6505.229355
6583.236943
6592.04353
6516.360523
6499.686122
6571.949312
6598.816109
6532.342021
6501.250744
6573.782155
6618.038609
6554.917282
6498.657942
6549.910492
6607.108606
6559.275873
6490.678369
6525.502387
6592.356454
6562.8298
6489.829003
6507.308067
6582.164059
6568.484791
6485.604523
6480.731843
6558.493562
6570.027062
6498.25561
6486.610351
6570.742318
6607.041551
6540.79098
6497.987389
6561.600454
6614.149405
6567.277797
6528.721038
6592.602324
6652.192074
6607.376827
6548.971718
6584.801565
6654.896635
6620.519652
6535.180692
6542.57912
6612.003638
6589.808356
6496.668636
6475.657997
6542.109733
6549.932843
6469.310101
6447.450095
6518.685105
6544.054335
6474.540409
6436.810665
6502.636552
6550.245768
6488.532601
6430.641583
6483.637569
6546.334213
6501.049578
6434.128455
6479.480145
6564.282663
6539.494579
6463.543351
6516.137006
6648.504036
6699.868345
6692.11229
6791.957532
6920.033028
6937.623851
6767.571779
6625.906423
6603.889955
6622.911289
6569.423565
6535.851244
6593.675207
6624.72178
6542.19914
6467.521962
6504.290581
6548.636442
6489.583133
6418.281069
6460.794087
6540.232186
6521.657887
6459.229464
6492.019474
6581.739376
6576.777289
6494.165241
6488.242029
6561.667509
6571.994015
6492.466508
6460.056479
6526.351753
6548.077649
6474.719223
6435.782485
6504.178823
6557.890064
6501.317799
6444.43261
6491.326569
6553.799695
6521.881404
6463.163371
6506.19048
6585.76269
6568.730661
6508.023323
6535.225396
6622.263088
6626.733437
6559.544094
6566.428431
6655.477781
6676.086089
6607.533289
6597.095024
6684.691511
6730.534939
6672.487458
6640.971499
6709.971334
6762.788506
6712.027694
6672.64392
6735.586433
6803.736902
6764.621349
6697.521412
6727.182177
6783.46387
6737.843959
6640.055077
6629.885033
6679.483554
6654.136676
6551.966852
6518.305125
6580.755899
6584.645103
6497.22743
6468.52779
6533.437256
6559.36528
6489.761947
6445.08081
6501.787186
6548.792904
6489.896058
6423.287859
6473.445174
6539.807503
6506.749273
6447.740668
6489.247857
6565.78023
6544.12139
6466.337319
6477.133212
6552.033907
6543.629652
6466.851409
6462.470467
6536.745314
6551.005727
6474.607465
6441.61629
6502.949477
6541.394477
6482.207058
6448.388868
6515.064122
6567.478963
6511.040808
6453.596825
6503.172994
6565.288492
6520.719113
6448.41122
6478.183744
6548.256463
6523.647192
6447.271281
6460.771735
6545.261329
6551.81039
6479.5472
6474.003968
6550.670451
6565.400251
6497.965038
6480.262456
6560.058184
6596.133899
6525.815311
6485.448061
6546.468323
6593.339931
6534.934823
6469.757136
6505.564631
6559.097059
6515.980544
6438.174121
6452.836866
6504.648209
6475.881514
6397.471595
6407.507528
6487.169145
6485.492764
6408.781577
6399.125624
6476.864991
6493.226468
6416.24706
6387.726234
6456.4802
6495.573401
6430.909804
6383.300589
6446.779543
6502.055407
6460.145886
6415.755321
6461.934026
6544.389611
6551.363355
6535.068933
6618.507995
6764.308425
6816.14212
6763.012023
6742.403715
6718.353238
6622.553661
6484.039901
6489.314912
6587.886106
6611.891879
6531.939689
6481.916485
6531.269137
6548.837608
6466.180857
6407.932211
6460.3247
6510.750235
6461.35288
6412.469615
6471.880552
6547.697669
6514.102997
6442.599767
6464.906808
6532.096151
6505.698741
6423.93606
6429.725162
6502.591849
6495.662808
6412.581374
6398.276257
6473.109898
6493.114709
6419.689228
6390.430795
6465.152677
6510.973753
6453.350956
6412.849595
6478.071985
6536.231224
6490.276037
6438.352935
6493.561744
6569.848248
6545.171922
6488.979636
6530.106846
6616.250469
6611.109568
6547.138875
6568.887123
6662.138601
6675.236723
6605.991019
6604.158175
6690.078281
6720.186081
6655.813057
6634.690658
6711.580659
6758.675785
6704.092825
6665.603121
6728.210357
6779.552314
6717.235651
6641.865568
6671.191057
6721.996572
6668.598255
6574.832687
6577.626655
6631.76258
6597.385597
6508.358599
6504.737616
6573.402175
6569.222399
6485.604523
6469.690081
6541.103904
6558.940596
6482.87761
6449.30529
6518.506291
6558.694727
6494.366407
6447.092467
6509.252669
6571.010538
6524.943593
6466.963168
6511.107863
6577.537248
6541.930919
6473.489877
6506.525756
6587.193201
6571.234056
6494.656979
6500.714302
6576.084384
6578.677187
6504.02236
6493.89702
6569.334158
6590.233039
6520.920279
6494.008779
6568.685957
6614.685847
6552.950329
6509.453834
6572.865733
6629.817978
6576.464364
6515.980544
6556.526608
6619.111493
6577.850172
6500.021398
6523.848358
6603.822899
6599.933696
6535.113637
6546.580082
6623.17951
6625.884071
6554.291434
6547.96589
6633.506016
6663.211484
6586.545001
6559.767611
6634.735362
6674.365005
6609.768463
6558.873541
6605.141652
6648.012298
6589.763652
6520.205023
6551.653928
6599.106681
6546.624785
6473.601636
6497.518003
6572.664568
6558.314748
6477.736709
6482.140003
6560.281701
6560.818143
6480.687139
6464.839752
6539.449875
6562.606283
6490.074872
6458.290691
6531.872634
6578.856001
6531.962041
6490.030168
6536.410038
6612.182452
6611.914231
6602.146518
6704.718674
6886.393653
6941.334241
6905.549098
6847.747487
6793.343341
6688.670121
6569.602379
6591.194164
6670.095822
6660.372813
6557.823009
6514.214756
6565.623768
6570.496448
6484.41988
6442.309194
6513.745369
6563.567408
6510.213794
6469.399508
6529.860977
6587.372015
6539.24871
6476.08268
6521.143797
6596.871507
6568.887123
6496.84745
6517.813387
6589.361321
6568.238922
6487.817346
6489.739596
6560.706384
6555.006689
6470.584151
6450.020546
6525.010648
6554.492599
6490.097224
6471.142944
6549.306995
6605.096949
6555.587835
6516.494634
6584.265123
6652.415592
6611.847176
6552.547998
6597.787928
6673.359176
6648.16876
6580.264161
6609.947277
6693.699264
6690.301799
6626.196996
6638.177531
6726.153997
6745.175331
6678.969464
6674.499115
6761.69327
6799.221849
6736.70402
6702.014113
6768.622311
6805.860317
6730.244366
6659.724612
6692.201697
6725.17052
6651.36506
6563.746222
6582.745204
6634.221272
6588.601361
6504.134119
6516.919317
6583.84044
6568.887123
6485.783337
6484.41988
6561.891027
6568.998881
6491.058349
6473.087546
6549.441105
6573.893913
6498.814404
6459.05065
6525.167111
6572.128126
6512.873651
6461.531694
6519.825044
6584.846268
6538.533454
6469.488915
6510.996105
6579.459498
6544.277852
6463.27513
6481.089471
6559.409983
6553.442067
6477.267322
6473.981616
6553.576178
6568.417736
6495.104014
6475.099203
6553.933806
6584.913324
6513.343038
6474.249837
6538.198178
6582.231114
6524.295393
6470.360633
6523.177805
6580.442975
6533.124332
6463.565703
6498.143852
6567.993053
6543.562596
6480.485973
6508.470357
6585.8968
6572.128126
6490.56661
6495.081663
6585.181544
6607.041551
6540.589814
6517.567517
6593.250524
6629.616812
6558.202989
6516.114654
6576.419661
6615.803434
6544.411963
6481.022415
6528.139893
6580.308864
6515.511157
6425.925365
6454.535598
6524.496558
6494.835793
6416.425874
6431.580357
6505.721093
6495.081663
6416.962316
6410.860289
6488.64436
6501.094282
6424.740723
6404.467691
6481.33534
6512.717189
6451.585168
6423.377266
6499.037921
6539.539282
6494.768738
6483.190534
6590.456556
6709.41254
6780.379329
6815.180995
6899.000037
6906.689037
6740.704982
6564.349719
6525.748256
6618.329181
6616.049304
6523.691895
6499.52966
6551.028079
6543.495541
6448.187703
6411.217917
6481.044767
6515.265288
6451.74163
6420.113912
6493.89702
6541.68505
6484.509287
6427.78056
6478.809593
6545.574253
6506.905735
6443.002098
6482.028244
6550.491637
6522.306087
6445.483142
6458.111877
6531.894986
6518.975677
6433.100275
6424.31604
6499.976695
6517.567517
6448.03124
6433.882586
6518.819215
6566.383727
6510.303201
6480.664787
6556.727774
6621.994868
6579.213629
6532.319669
6588.869582
6659.165819
6626.196996
6563.902684
6605.320466
6687.038444
6672.040423
6608.337952
6636.411743
6725.394037
6733.038334
6666.22897
6673.493287
6766.074212
6793.522155
6727.629212
6709.859575
6785.341416
6815.963306
6739.587395
6681.405804
6722.86829
6749.176294
6667.905351
6584.622751
6611.64601
6657.668252
6598.056149
6512.158395
6530.710343
6591.708254
6562.718041
6480.262456
6488.622008
6564.260312
6560.371108
6484.218715
6472.864029
6550.469285
6565.243788
6489.583133
6461.263473
6529.793922
6562.673338
6497.115671
6458.000118
6524.116579
6582.186411
6527.871672
6474.227485
6523.781302
6590.456556
6548.703497
6473.311063
6500.244916
6570.339986
6544.858997
6467.007872
6479.189572
6558.158285
6558.694727
6485.448061
6479.502497
6558.247692
6577.69371
6505.832852
6479.92718
6551.385707
6587.148498
6520.383837
6474.383947
6535.448913
6589.495431
6537.527625
6474.763927
6523.378971
6586.366187
6547.07182
6476.529715
6503.798843
6580.711196
6560.169942
6481.827078
6494.098186
6573.916265
6578.72189
6510.750235
6507.956267
6580.040643
6592.401158
6521.099093
6506.83868
6593.742263
6645.620661
6582.029948
6539.315765
6602.727664
6655.544836
6600.000751
6536.790018
6573.268065
6625.749961
6578.319559
6503.329456
6519.914451
6575.302073
6535.53832
6454.222674
6463.319834
6535.180692
6530.978564
6448.455924
6436.631851
6512.538375
6531.067971
6455.720241
6426.148883
6497.473299
6535.985355
6470.092412
6424.271336
6484.688101
6540.656869
6499.373197
6449.30529
6489.270209
6567.635425
6576.196143
6561.600454
6646.268862
6828.927318
6919.451883
6899.156499
6865.181847
6800.38414
6691.151165
6543.562596
6543.830817
6632.254318
6638.646917
6545.797771
6488.085567
6536.05241
6557.107753
6479.077814
6427.847615
6490.4325
6551.9445
6509.029151
6455.653185
6500.960171
6564.595588
6528.139893
6460.727031
6492.399453
6571.256408
6556.303091
6477.513191
6482.631741
6556.906588
6552.793867
6467.49961
6446.958357
6518.75216
6538.198178
6461.665805
6432.13915
6505.139948
6552.279777
6497.339189
6460.414107
6534.890119
6602.526498
6563.72387
6514.818253
6568.149515
6645.866531
6618.642106
6550.469285
6582.119355
6663.479705
6652.415592
6581.895838
6595.932734
6686.211429
6701.567078
6634.534196
6632.813112
6722.622421
6756.284148
6695.397996
6678.388319
6759.592206
6809.660114
6756.082983
6716.006305
6775.081965
6824.322858
6761.112125
6681.09288
6702.282334
6746.047049
6689.541839
6597.653818
6602.794719
6659.903426
6627.493397
6535.828893
6525.435332
6594.681036
6590.724777
6508.023323
6492.041825
6564.528533
6585.405062
6512.560727
6478.630779
6544.613128
6584.958027
6518.37218
6462.157543
6516.874613
6574.922094
6524.608317
6463.297482
6510.504366
6584.153364
6551.229245
6476.485011
6500.155509
6574.631521
6558.270044
6477.669654
6478.13904
6551.184541
6554.850227
6476.529715
6465.107973
6546.42362
6572.128126
6503.284753
6474.965093
6546.848303
6589.22721
6525.92707
6473.221656
6525.368276
6579.124222
6529.145721
6461.755212
6503.329456
6570.496448
6537.147646
6466.046746
6488.398491
6563.187428
6548.256463
6468.39368
6472.282883
6552.257425
6557.353623
6479.234276
6460.749383
6533.772532
6559.611149
6487.571476
6450.400525
6515.354695
6558.851189
6496.869802
6446.48897
6501.831889
6560.259349
6511.912526
6454.401488
6504.827023
6585.449765
6562.69569
6488.599657
6502.435386
6580.554733
6585.650931
6523.446026
6535.583023
6616.51869
6625.705257
6551.318652
6532.051448
6600.11251
6619.267955
6537.617032
6491.147756
6552.480942
6590.25539
6517.165186
6445.438438
6484.41988
6536.186521
6485.112785
6417.834034
6455.049688
6521.412018
6490.119575
6417.834034
6439.69404
6514.415921
6502.211869
6423.578432
6422.594955
6499.954343
6509.811462
6436.050705
6422.036162
6508.783282
6547.004765
6470.941779
6449.484104
6562.516876
6664.709051
6663.367947
6726.735142
6882.973836
6985.389529
6872.870847
6662.89856
6589.98717
6608.44971
6594.234001
6529.39159
6537.371163
6595.195126
6558.828838
6460.548217
6447.76302
6514.348866
6523.803654
6452.613348
6442.420953
6524.563613
6552.480942
6484.79986
6451.115781
6522.551956
6570.339986
6510.258497
6457.843656
6513.700666
6572.463402
6525.234166
6452.926273
6479.837773
6543.696707
6509.967924
6432.273261
6449.30529
6526.999954
6522.283736
6449.014717
6455.809648
6544.479018
6567.255445
6503.329456
6496.19925
6580.621789
6621.860757
6561.332233
6528.475169
6599.106681
6652.125019
6599.330199
6550.201064
6609.924926
6677.784822
6644.480722
6588.735472
6634.936528
6717.794444
6702.416444
6641.306775
6673.493287
6762.900265
6766.968282
6704.338694
6713.815834
6803.468681
6820.456007
6742.962509
6715.447511
6776.534829
6791.108166
6698.683703
6635.137693
6673.426232
6697.208488
6616.965725
6541.483884
6575.011501
6623.626545
6571.368166
6492.757081
6519.310954
6581.784079
6547.921186
6468.863066
6483.682273
6559.36528
6550.603396
6469.064232
6460.861142
6533.928994
6544.054335
6467.097278
6441.459828
6515.980544
6550.871617
6486.453889
6452.479238
6518.215718
6566.562541
6506.816328
6449.148828
6497.853279
6558.359451
6513.4995
6444.320851
6477.49084
6551.765686
6528.676334
6456.99429
6476.172087
6556.280739
6554.403192
6479.882476
6479.815421
6557.778306
6573.84921
6497.316837
6471.433517
6541.997974
6572.105774
6499.864936
6458.625967
6521.814349
6566.897817
6508.582116
6453.373307
6502.167166
6563.366242
6519.243898
6450.825209
6485.157488
6556.012518
6531.604413
6456.234331
6469.712433
6547.295338
6542.601471
6467.343148
6460.123534
6536.030058
6550.446934
6476.261494
6454.312081
6529.123369
6562.360413
6493.114709
6452.076906
6515.55586
6568.194219
6510.437311
6452.680403
6500.960171
6562.874503
6520.920279
6456.167275
6494.656979
6576.79964
6561.175771
6488.443194
6498.009741
6574.117431
6580.89001
6519.020381
6525.323573
6607.645048
6623.648897
6550.066954
6524.049523
6590.881239
6617.971554
6542.623823
6489.381968
6542.824989
6591.283571
6527.46934
6455.943758
6483.034072
6537.438218
6493.986427
6421.902051
6451.294595
6522.104922
6499.194384
6423.310211
6435.447208
6513.790073
6511.823119
6430.306307
6422.617307
6502.323628
6521.434369
6449.037069
6428.29465
6513.700666
6560.281701
6488.353787
6459.564741
6567.300149
6678.209505
6683.506868
6734.714715
6884.158478
6995.805442
6902.039874
6689.541839
6611.400141
6625.191167
6614.797606
6549.061125
6550.424582
6611.444844
6584.578047
6483.861087
6457.866008
6524.630669
6539.338117
6466.851409
6447.89713
6530.442122
6573.156306
6508.000971
6463.476296
6524.965945
6578.744242
6527.804616
6470.651206
6515.846433
6579.168925
6538.846378
6467.410203
6491.997122
6556.817181
6528.855148
6445.103162
6450.512284
6529.101018
6531.582061
6458.961244
6458.514209
6547.4518
6579.437146
6517.031076
6499.52966
6582.387576
6628.387466
6572.172829
6535.873596
6602.794719
6661.959787
6614.194109
6561.80162
6613.143577
6686.47965
6657.176513
6595.128071
6636.612908
6723.427084
6715.760436
6652.706164
6674.588522
6769.11405
6785.028492
6720.320191
6722.108331
6811.291791
6839.991431
6770.075175
6740.03443
6801.077044
6821.77476
6733.127741
6663.904388
6699.466014
6728.232709
6651.677984
6571.167001
6599.486661
6650.716859
6599.486661
6518.126311
6539.204006
6609.544946
6586.522649
6505.207003
6510.370256
6586.567353
6586.097966
6506.525756
6493.941724
6568.194219
6583.035777
6505.29641
6473.579284
6541.796808
6581.046472
6520.585003
6480.530677
6546.647137
6603.912306
6548.882311
6483.928142
6524.116579
6588.288437
6550.737506
6477.11086
6502.457738
6576.911399
6559.722908
6481.268284
6489.180802
6569.244751
6576.598475
6503.351808
6495.68516
6576.79964
6602.258277
6530.062143
6497.562706
6563.008614
6599.531364
6533.459608
6483.436404
6539.025192
6593.027007
6540.589814
6476.574418
6518.260422
6586.701463
6551.788038
6478.027282
6503.731788
6578.610132
6561.265178
6482.095299
6487.482069
6565.042623
6566.942521
6486.833869
6471.321758
6547.183579
6570.585855
6498.479128
6467.11963
6537.147646
6577.760765
6515.444102
6470.852372
6529.458646
6587.372015
6537.035887
6473.825154
6517.813387
6586.746167
6553.911454
6480.933008
6503.217698
6578.811297
6567.411908
6495.349883
6506.078721
6588.780175
6592.065882
6511.823119
6498.277962
6585.606228
6627.225176
6567.478963
6537.46057
6604.85108
6651.968557
6588.534306
6533.504311
6585.315655
6635.2271
6577.157268
6507.017494
6543.137913
6602.973533
6553.307957
6460.70468
6476.105032
6550.491637
6533.951346
6452.6357
6453.216845
6530.039791
6535.806541
6457.173104
6437.77179
6511.823119
6538.958137
6466.180857
6432.675592
6503.88825
6549.351698
6494.902849
6461.710508
6522.306087
6581.605265
6567.143687
6561.600454
6659.858723
6806.463815
6891.35574
6893.367397
6933.198206
6903.157461
6761.223884
6585.919152
6566.339024
6663.367947
6670.744022
6582.789908
6547.518855
6594.636332
6600.045455
6511.644305
6463.319834
6524.697724
6569.647082
6515.309991
6473.802802
6533.280794
6597.698521
6555.856056
6495.640456
6536.588852
6606.661571
6577.224323
6505.050541
6528.072837
6603.867603
6590.098928
6506.972791
6499.194384
6571.658739
6574.475059
6499.306142
6481.648264
6560.661681
6594.591629
6530.330364
6498.747349
6569.267102
6620.497301
6569.334158
6525.234166
6587.483774
6656.505961
6617.368056
6559.097059
6605.029894
6682.925723
6660.59633
6592.42351
6620.318487
6710.418369
6712.407674
6645.195978
6658.15999
6748.796314
6771.997425
6711.312438
6709.189023
6799.937105
6843.411248
6787.107204
6757.692308
6830.447236
6881.811545
6820.701876
6757.178218
6791.689311
6826.379219
6755.27832
6661.736269
6673.068604
6721.303668
6670.609912
6577.269027
6580.353568
6641.574996
6617.815091
6531.045619
6523.803654
6597.877335
6608.092083
6531.760875
6507.978619
6580.755899
6610.483719
6538.578157
6495.282828
6556.191332
6594.077539
6534.465436
6483.302293
6536.857073
6604.180527
6574.162134
6518.081608
6557.688899
6629.594461
6597.720873
6518.88627
6531.470303
6604.515803
6597.787928
6523.781302
6516.673448
6591.037701
6603.644085
6525.971773
6500.379026
6572.977492
6610.506071
6551.564521
6518.081608
6578.2078
6616.116359
6555.029041
6504.000009
6556.124277
6616.943373
6575.860867
6506.972791
6540.031021
6614.037647
6587.148498
6510.325552
6525.524738
6600.157213
6589.383672
6512.001933
6516.718151
6596.379768
6609.522594
6532.699648
6509.923221
6580.331216
6608.561469
6535.203044
6490.812479
6551.452762
6601.855946
6546.334213
6491.751253
6539.069896
6600.447786
6554.738468
6481.089471
6518.260422
6595.977437
6578.476021
6511.800767
6529.212776
6604.4711
6599.844289
6529.637459
6541.506236
6632.857815
6646.782952
6570.38469
6552.726811
6626.331106
6658.361156
6585.025082
6537.214701
6591.060053
6635.98706
6573.916265
6508.000971
6539.271061
6584.600399
6536.342983
6467.030223
6497.450947
6563.634463
6531.067971
6452.523941
6469.175991
6548.614091
6539.360468
6458.111877
6456.413145
6535.895948
6552.972681
6480.195401
6455.139095
6532.945518
6579.504201
6522.037866
6471.277055
6553.307957
6658.070583
6672.487458
6675.415537
6815.426864
6952.130133
6930.158368
6804.832137
6715.55927
6679.617665
6606.281591
6546.065992
6575.592646
6651.029784
6640.412705
6537.862901
6503.150642
6567.009576
6567.300149
6472.707566
6442.800932
6525.278869
6570.38469
6515.198233
6488.465546
6560.684033
6611.355437
6554.537303
6494.679331
6540.768628
6603.06294
6558.225341
6488.398491
6514.751198
6583.505164
6558.493562
6481.201229
6490.030168
6567.255445
6564.684995
6488.353787
6485.783337
6566.093155
6588.444899
6518.148663
6492.310046
6557.465381
6600.917173
6548.591739
6519.26625
6591.752957
6653.197903
6604.09112
6553.553826
6610.886051
6682.970426
6650.381583
6587.528478
6628.163949
6711.759473
6702.997589
6642.357307
6664.798458
6752.08202
6764.353128
6698.728406
6701.656485
6789.431785
6816.700914
6751.098544
6727.428046
6796.293771
6821.506539
6736.614613
6672.442755
6712.74295
6742.224901
6662.540932
6579.906533
6605.923963
6657.154162
6606.125129
6524.742427
6540.992146
6609.455539
6582.387576
6500.110805
6507.86686
6583.08048
6578.520725
6496.132195
6480.977712
6551.653928
6563.075669
6488.420843
6461.241121
6533.772532
6575.972626
6517.366352
6480.284808
6547.138875
6604.426396
6551.877445
6489.627837
6530.933861
6591.574143
6552.078611
6485.068081
6511.57725
6582.365225
6559.320576
6479.16722
6491.237162
6576.464364
6580.264161
6507.86686
6502.591849
6586.41089
6607.980324
6537.102942
6508.917392
6578.408966
6615.445806
6547.027117
6494.455814
6547.541207
6595.418643
6535.806541
6474.026319
6517.053427
6581.895838
6544.367259
6475.389776
6505.408168
6582.208762
6563.634463
6486.878572
6496.288657
6573.670396
6577.246675
6496.378064
6480.195401
6555.453724
6580.621789
6512.359561
6488.756119
6564.260312
6600.067806
6532.677297
6485.738633
6553.822047
6623.760655
6585.807393
6525.681201
6572.373995
6643.854874
6607.488585
6531.939689
6549.463457
6617.435112
6590.680074
6504.871727
6506.83868
6573.357472
6559.834666
6465.487953
6447.673613
6520.227375
6540.120428
6466.314967
6432.809702
6500.04375
6540.232186
6475.233313
6425.835958
6483.615218
6539.092247
6487.437366
6424.494854
6466.203209
6536.074762
6506.972791
6442.018621
6473.623988
6545.216625
6547.07182
6516.44993
6579.593608
6713.815834
6811.224736
6828.390876
6858.43162
6904.476214
6804.116881
6623.17951
6520.205023
6596.692693
6650.940377
6584.48864
6523.222509
6554.358489
6586.187373
6516.941669
6439.984612
6474.003968
6544.054335
6513.968887
6445.438438
6480.240104
6569.065937
6562.718041
6486.051558
6487.61618
6562.516876
6563.254483
6483.928142
6464.750345
6536.700611
6556.303091
6478.899
6441.571586
6508.023323
6550.379878
6487.124442
6439.358764
6498.166203
6561.376937
6518.550994
6460.3247
6505.184651
6579.168925
6552.570349
6487.079738
6521.948459
6610.528423
6610.729588
6543.473189
6556.68307
6643.184321
6655.20956
6579.10187
6566.964873
6649.554568
6684.602104
6623.090103
6599.821937
6679.68472
6737.419276
6690.122985
6651.789743
6722.041276
6793.388044
6758.74284
6707.199717
6755.121858
6828.748504
6796.785509
6712.318267
6716.810968
6770.343396
6735.720543
6632.857815
6610.662533
6665.491362
6654.091973
6560.147591
6529.212776
6591.238867
6606.303943
6529.324535
6488.554953
6553.106791
6594.435167
6530.978564
6477.133212
6530.66564
6587.014387
6536.544149
6467.454906
6501.518965
6567.903646
6537.929957
6464.839752
6485.045729
6563.34389
6562.271006
6494.254648
6500.714302
6582.476983
6593.630504
6514.974715
6489.963113
6561.376937
6588.869582
6516.472282
6480.016587
6541.997974
6583.549867
6519.176843
6465.175028
6521.613183
6586.27678
6546.311861
6486.789165
6531.000916
6604.135824
6577.134916
6502.278924
6517.925145
6590.747129
6576.889047
6494.947552
6492.757081
6568.08246
6575.279722
6497.406244
6476.686177
6549.999899
6581.135879
6510.16909
6471.634683
6538.041715
6584.510992
6524.89889
6470.695909
6522.775474
6583.371053
6538.756971
6471.142944
6505.989314
6575.592646
6546.915358
6472.148773
6491.214811
6574.855039
6578.386614
6509.744407
6508.090378
6582.655797
6595.262181
6527.536395
6521.434369
6606.102777
6636.814074
6565.601416
6526.396457
6590.143632
6633.796589
6568.708309
6509.655
6554.336137
6611.042513
6564.126201
6485.783337
6503.418863
6556.280739
6520.316782
6442.018621
6454.17797
6528.653983
6519.601526
6443.225615
6438.755267
6515.332343
6527.089361
6447.964185
6426.23829
6498.680293
6530.553881
6462.38106
6424.181929
6494.455814
6559.678204
6511.912526
6451.048726
6521.948459
6632.679001
6646.313566
6641.060906
6788.381253
6952.018374
6969.0057
6826.558033
6705.858613
6672.934493
6609.567298
6542.109733
6543.652003
6612.093045
6608.203841
6506.726921
6464.146848
6519.355657
6541.260367
6467.298444
6425.47833
6495.998084
6553.21855
6502.681256
6452.188665
6507.509232
6574.117431
6534.711305
6469.868895
6503.977657
6577.067861
6549.485809
6469.578322
6480.57538
6553.21855
6543.383782
6457.553084
6442.912691
6518.305125
6539.069896
6471.969959
6454.647357
6535.627727
6580.51003
6521.277907
6486.185668
6554.202027
6611.064865
6562.628634
6514.505328
6572.686919
6645.263034
6608.539117
6542.601471
6574.430355
6650.515693
6633.036629
6562.405117
6583.32635
6672.934493
6681.808136
6618.105664
6628.789798
6725.03641
6758.966358
6700.270677
6688.4019
6772.891494
6819.316068
6760.061593
6720.521357
6780.826364
6823.294678
6750.115067
6668.888827
6693.855726
6734.468846
6670.296987
6578.140745
6586.768518
6642.960804
6606.102777
6517.232241
6518.685105
6587.103794
6579.705367
6498.792052
6487.951456
6563.008614
6580.085347
6502.949477
6472.864029
6543.719058
6579.593608
6509.923221
6460.078831
6518.819215
6569.132992
6512.538375
6453.127438
6504.290581
6579.370091
6550.156361
6484.553991
6515.600564
6583.616922
6558.47121
6478.563723
6486.051558
6561.28753
6559.164114
6481.245933
6470.31593
6544.858997
6563.34389
6490.968942
6466.069098
6541.193311
6583.281646
6520.897927
6475.792107
6536.5665
6588.288437
6533.504311
6472.796973
6522.261384
6594.703388
6552.346832
6475.18861
6500.93782
6573.178658
6551.922149
6473.713395
6482.385872
6558.493562
6557.353623
6479.010758
6470.427688
6548.569387
6567.70248
6492.35475
6461.86697
6531.984393
6567.948349
6502.055407
6454.200322
6511.376084
6565.042623
6513.387741
6453.52977
6499.216735
6567.836591
6533.61607
6464.280959
6494.232296
6569.334158
6551.497466
6471.925255
6478.541372
6554.961986
6558.560617
6485.626875
6479.658959
6563.969739
6588.444899
6513.544203
6486.118613
6566.473134
6626.398161
6578.654835
6535.806541
6593.429338
6650.448638
6598.145556
6531.067971
6566.361376
6624.855891
6579.414794
6499.999046
6523.021343
6591.775309
6564.059146
6467.231389
6461.576398
6536.231224
6536.767666
6457.664842
6441.705697
6515.757026
6537.46057
6462.291653
6430.462769
6500.69195
6540.053372
6474.003968
6426.037124
6487.146793
6545.998936
6501.317799
6453.52977
6501.474261
6569.356509
6566.54019
6546.065992
6623.31362
6770.991596
6873.094365
6878.615246
6909.617115
6888.829993
6769.494029
6594.34576
6540.947442
6630.041496
6651.834446
6566.048451
6510.437311
6551.206893
6574.475059
6497.406244
6438.218825
6489.650189
6550.201064
6510.660828
6454.870874
6500.267267
6570.496448
6539.651041
6470.293578
6497.249782
6576.598475
6566.026099
6491.952418
6495.796918
6574.720928
6581.739376
6499.708474
6475.0545
6541.617995
6554.000861
6472.260531
6436.765961
6508.358599
6562.405117
6513.588907
6474.763927
6541.036849
6609.254373
6568.775364
6512.337209
6561.443992
6641.195016
6618.329181
6553.017384
6582.544039
6662.205656
6651.946205
6577.134916
6582.43228
6666.407784
6681.182287
6610.818995
6606.058074
6694.705092
6736.011116
6678.634188
6658.562321
6743.163674
6804.22864
6757.424087
6717.302706
6780.26757
6844.417077
6794.058596
6720.633116
6743.409543
6791.711663
6737.843959
6640.122132
6638.669269
6693.945133
6661.848028
6565.377899
6550.178713
6618.329181
6617.949202
6532.274965
6509.14091
6579.817126
6603.621734
6530.978564
6495.998084
6562.136896
6605.320466
6543.786114
6490.968942
6541.953271
6598.056149
6550.02225
6482.296465
6519.065084
6590.702425
6566.517838
6499.864936
6524.049523
6606.259239
6598.726702
6517.835738
6514.304163
6590.657722
6599.151385
6522.954288
6502.748311
6576.173791
6604.202879
6530.777398
6494.209945
6559.991128
6606.661571
6549.262291
6498.814404
6556.146628
6621.078446
6576.397309
6509.453834
6546.736544
6616.295173
6588.377844
6514.572384
6534.756009
6613.076522
6602.615905
6522.574308
6518.796863
6594.435167
6604.60521
6526.687029
6506.637514
6580.934713
6609.835519
6539.651041
6502.591849
6567.434259
6614.350571
6555.051393
6501.429558
6556.213684
6621.614888
6575.726757
6509.364427
6545.171922
6614.954068
6588.109623
6515.332343
6532.967869
6609.544946
6601.65478
6523.62484
6522.954288
6600.961876
6612.003638
6533.884291
6511.621953
6584.958027
6616.585745
6549.128181
6516.874613
6582.678149
6631.293193
6578.990111
6530.620936
6587.059091
6646.358269
6601.073635
6538.064067
6587.953161
6674.834391
6654.136676
6575.458536
6591.507088
6670.542857
6660.618682
6576.464364
6566.227265
6635.383562
6639.295118
6557.331271
6527.625802
6591.752957
6606.77333
6521.836701
6475.769755
6537.304108
6582.476983
6523.602488
6466.069098
6515.622916
6578.72189
6537.84055
6470.427688
6503.329456
6576.017329
6551.720983
6477.222619
6495.104014
6579.660664
6587.148498
6522.373143
6513.343038
6602.057112
6660.842199
6641.463237
6673.985025
6854.296548
6993.927895
6981.656788
6896.876621
6827.697972
6779.619369
6651.610929
6596.558582
6655.880112
6710.172499
6649.621624
6551.720983
6559.87937
6617.54687
6581.471155
6499.730825
6513.924183
6597.29619
6602.302981
6530.218605
6525.725904
6602.347684
6618.329181
6545.306032
6526.128236
6604.426396
6641.843217
6573.223361
6524.027172
6577.447841
6622.643068
6565.512009
6498.926163
6536.208872
6593.45169
6552.458591
6485.783337
6523.513081
6608.941449
6598.816109
6534.51014
6559.432335
6650.694507
6659.165819
6590.702425
6590.836536
6674.05208
6697.700226
6628.678039
6604.627562
6678.567133
6716.274526
6653.689641
6616.429283
6686.636113
6748.461038
6705.232764
6658.338804
6717.61563
6798.394835
6775.01491
6719.157901
6764.174314
6854.184789
6846.696955
6781.251047
6797.590172
6875.21778
6868.646368
6778.300617
6751.165599
6804.809785
6799.311256
6701.097691
6649.44281
6699.577773
6718.062665
6634.824769
6576.129088
6624.386504
6667.882999
6606.840385
6540.098076
6581.180582
6644.70424
6606.505109
6536.208872
6563.299187
6637.283461
6614.887013
6532.654945
6537.818198
6612.853004
6613.747074
6537.035887
6526.619974
6608.606173
6635.361211
6565.891989
6538.712268
6609.902574
6646.671193
6578.364262
6526.038829
6581.493507
6632.902519
6578.990111
6518.573346
6564.126201
6629.84033
6595.686864
6526.530567
6555.453724
6633.908347
6618.44094
6545.462495
6556.727774
6636.255281
6636.434094
6556.258387
6542.780285
6617.748036
6638.177531
6562.360413
6530.330364
6598.950219
6637.842254
6573.223361
6526.642326
6584.645103
6639.518635
6586.880277
6524.809483
6570.563504
6637.775199
6601.699484
6529.39159
6555.252559
6628.365115
6613.590612
6537.97466
6544.523721
6623.023048
6625.749961
6548.032945
6536.074762
6613.814129
6636.657612
6563.992091
6535.091285
6603.465271
6644.100743
6578.543076
6530.553881
6588.444899
6644.257205
6592.132937
6529.659811
6571.614036
6638.55751
6602.727664
6528.296355
6553.531474
6628.543929
6616.943373
6545.507198
6558.001823
6644.525426
6656.662423
6576.576123
6559.164114
6639.026897
6677.918932
6621.056094
6593.608152
6660.752792
6701.701188
6640.055077
6588.176678
6639.83156
6690.033578
6631.337897
6556.16898
6592.468213
6654.807228
6611.064865
6517.411055
6524.630669
6596.40212
6580.107698
6501.295448
6502.457738
6581.247637
6587.439071
6507.35277
6490.588962
6567.009576
6590.948295
6517.634573
6484.79986
6553.844399
6598.302018
6541.036849
6505.676389
6570.116469
6627.336934
6605.588687
6592.289399
6685.339711
6819.897213
6905.70556
6918.088426
6970.369157
6957.85218
6818.354943
6644.726592
6602.392388
6694.392168
6702.10352
6611.467196
6573.558637
6622.330144
6630.22031
6543.853169
6499.708474
6564.863809
6613.076522
6561.220474
6518.662753
6579.034815
6638.602214
6592.602324
6529.145721
6572.82103
6648.012298
6621.167853
6548.010593
6566.406079
6637.90931
6618.575051
6530.218605
6521.993163
6591.708254
6597.273838
6517.925145
6499.306142
6578.498373
6614.529385
6554.850227
6532.274965
6611.668362
6668.933531
6620.452597
6579.168925
6643.094914
6713.033523
6674.096784
6614.328219
6655.991871
6728.746799
6703.109348
6632.902519
6657.958824
6740.41441
6737.173407
6669.514676
6682.702206
6773.405585
6797.187841
6736.32404
6730.065552
6818.667867
6863.371356
6805.815614
6778.680596
6854.005975
6905.32558
6846.272271
6785.542582
6825.88748
6869.875714
6801.501727
6711.155976
6724.343505
6772.623273
6723.203566
6629.594461
6631.561414
6695.934438
6675.594351
6586.65676
6576.66553
6649.263996
