Detector 2,,,,,,,,Detector 4,,,,,,,,Detector 6,,,,,,,,Detector 8,,,,,,,,Detector 10,,,,,,,,Detector 12,,,,,,,,Detector 14,,,,,,,,Detector 16,,,,,,,
"RED1,2,3,4","IR1,2,3,4 ","RED5,6,7,8","IR5,6,7,8 ","RED9,10,11,12","IR9,10,11,12 ","RED13,14,15,16","IR13,14,15,16 ","RED1,2,3,4","IR1,2,3,4 ","RED5,6,7,8","IR5,6,7,8 ","RED9,10,11,12","IR9,10,11,12 ","RED13,14,15,16","IR13,14,15,16 ","RED1,2,3,4","IR1,2,3,4 ","RED5,6,7,8","IR5,6,7,8 ","RED9,10,11,12","IR9,10,11,12 ","RED13,14,15,16","IR13,14,15,16 ","RED1,2,3,4","IR1,2,3,4 ","RED5,6,7,8","IR5,6,7,8 ","RED9,10,11,12","IR9,10,11,12 ","RED13,14,15,16","IR13,14,15,16 ","RED1,2,3,4","IR1,2,3,4 ","RED5,6,7,8","IR5,6,7,8 ","RED9,10,11,12","IR9,10,11,12 ","RED13,14,15,16","IR13,14,15,16 ","RED1,2,3,4","IR1,2,3,4 ","RED5,6,7,8","IR5,6,7,8 ","RED9,10,11,12","IR9,10,11,12 ","RED13,14,15,16","IR13,14,15,16 ","RED1,2,3,4","IR1,2,3,4 ","RED5,6,7,8","IR5,6,7,8 ","RED9,10,11,12","IR9,10,11,12 ","RED13,14,15,16","IR13,14,15,16 ","RED1,2,3,4","IR1,2,3,4 ","RED5,6,7,8","IR5,6,7,8 ","RED9,10,11,12","IR9,10,11,12 ","RED13,14,15,16","IR13,14,15,16 "
2475,14904,344,161,156,156,157,153,11727,57480,1053,189,167,172,167,161,1175,6898,265,221,202,202,201,206,1099,7768,278,229,215,217,219,213,1410,1767,30739,35196,31806,30274,1765,1448,1010,1469,18025,17019,19528,21702,1212,1017,672,6096,12792,20719,22538,24491,37187,31617,1173,11118,22799,24427,32386,30394,32949,15686
2431,14784,338,164,159,157,157,158,11597,57514,1048,191,171,171,166,159,1162,6879,263,220,202,203,201,199,1095,7773,277,224,216,217,215,213,1415,1767,30607,34897,31731,30007,1755,1441,1013,1471,18004,16936,19477,21560,1205,1010,1051,6099,12827,20716,22493,24370,37217,31622,1351,11117,22830,24423,32367,30323,32914,15651
2425,14721,339,162,157,155,155,157,11600,57401,1054,191,167,174,163,160,1165,6872,262,220,201,201,199,204,1094,7731,278,224,216,221,216,211,1407,1751,30437,34566,31532,29658,1743,1431,1007,1456,17946,16824,19413,21418,1200,1007,1048,6075,12820,20652,22417,24209,37205,31607,1352,11078,22827,24372,32327,30239,32873,15617
2429,14717,338,162,158,156,156,153,11599,57301,1045,188,171,171,163,161,1167,6873,262,218,201,202,199,202,1090,7703,276,226,216,216,215,213,1400,1742,30348,34372,31391,29447,1736,1429,1002,1450,17910,16750,19365,21342,1196,1003,1054,6057,12810,20602,22359,24106,37186,31588,1351,11034,22809,24322,32278,30171,32834,15588
2428,14687,340,159,161,157,157,154,11593,57207,1051,189,170,173,162,159,1170,6860,262,220,201,203,199,201,1089,7686,277,223,216,217,215,211,1399,1738,30295,34315,31344,29414,1735,1429,1005,1447,17872,16710,19339,21314,1196,1002,1054,6042,12788,20566,22342,24060,37169,31567,1349,11007,22789,24280,32239,30135,32805,15573
2438,14740,337,162,156,159,157,155,11578,57159,1042,191,171,172,163,159,1173,6877,266,220,202,202,206,199,1086,7673,275,223,215,216,216,211,1395,1739,30329,34367,31366,29470,1735,1429,1001,1446,17863,16705,19336,21322,1195,1003,1054,6044,12775,20555,22343,24066,37154,31558,1352,10997,22773,24263,32225,30127,32783,15560
2448,14804,341,160,157,157,159,155,11575,57131,1050,189,169,175,163,164,1173,6881,262,222,204,202,199,199,1083,7648,276,222,216,217,215,213,1395,1738,30336,34400,31390,29514,1734,1426,1002,1447,17845,16699,19334,21332,1196,1002,1054,6038,12770,20547,22342,24069,37146,31548,1351,10989,22760,24247,32193,30106,32768,15555
2455,14831,339,165,158,156,158,157,11567,57105,1041,192,171,172,165,160,1174,6893,262,221,201,202,198,201,1080,7647,276,224,217,218,216,214,1396,1739,30361,34463,31435,29607,1747,1440,1000,1448,17836,16706,19345,21364,1201,1010,1053,6040,12767,20555,22354,24096,37134,31546,1349,10977,22751,24234,32171,30103,32759,15561
2463,14869,343,162,158,157,154,154,11558,57091,1050,190,173,174,160,158,1178,6918,265,220,202,204,201,203,1083,7668,277,228,218,221,217,212,1408,1753,30365,34482,31558,29776,1742,1431,1008,1455,17827,16712,19414,21454,1199,1001,1054,6044,12785,20595,22387,24131,37178,31577,1349,10970,22773,24285,32154,30094,32828,15589
2480,14994,343,166,157,159,155,158,11512,56893,1038,189,170,173,162,162,1183,6942,265,218,203,204,203,202,1097,7755,279,223,216,218,216,211,1395,1741,30222,34383,31731,29979,1733,1421,999,1448,17788,16691,19499,21563,1189,995,1056,6043,12803,20637,22393,24159,37201,31592,1343,10951,22926,24415,32159,30098,32909,15617
2494,15078,347,161,151,155,155,155,11508,56943,1049,194,175,170,163,165,1181,6950,264,219,200,206,201,201,1100,7771,280,227,217,216,216,216,1388,1736,30247,34506,31809,30115,1738,1424,991,1443,17789,16725,19522,21612,1190,994,1053,6048,12776,20627,22403,24196,37179,31594,1339,10934,22975,24463,32152,30103,32936,15635
2499,15113,347,161,158,159,154,155,11519,57025,1041,190,172,174,163,161,1185,6970,264,220,202,202,200,200,1102,7769,277,225,216,217,218,217,1395,1739,30365,34707,31833,30217,1747,1431,993,1443,17814,16780,19514,21647,1193,995,1055,6060,12739,20599,22425,24257,37167,31604,1342,10933,22961,24458,32135,30116,32948,15649
2503,15145,347,162,156,157,156,156,11522,57099,1051,189,171,170,167,161,1189,7002,264,225,201,206,200,201,1097,7765,281,219,215,219,219,213,1399,1750,30486,34913,31868,30319,1751,1434,994,1448,17839,16842,19525,21691,1196,998,1058,6081,12720,20599,22457,24333,37167,31602,1340,10934,22947,24466,32140,30143,32965,15657
2506,15142,347,161,158,157,154,157,11569,57251,1045,191,168,172,162,163,1194,7022,267,220,205,205,200,201,1095,7755,276,224,217,217,218,211,1401,1749,30471,34769,31800,30095,1743,1427,995,1447,17843,16806,19475,21559,1190,995,1058,6087,12741,20604,22455,24263,37172,31606,1339,10930,22942,24448,32114,30077,32923,15619
2505,15083,345,165,159,157,155,154,11592,57203,1053,191,169,173,162,163,1194,6997,265,219,209,202,203,200,1095,7733,279,225,215,217,216,214,1395,1742,30325,34447,31575,29701,1737,1423,993,1438,17781,16682,19367,21377,1188,996,1057,6070,12745,20549,22376,24102,37169,31579,1342,10895,22915,24379,32050,29981,32856,15577
2497,15036,344,165,158,159,155,156,11592,57103,1041,190,170,175,160,162,1191,6981,266,219,201,205,199,200,1093,7706,280,225,218,212,216,213,1393,1734,30262,34286,31394,29445,1732,1422,992,1436,17751,16608,19292,21263,1188,999,1060,6055,12736,20501,22318,23995,37149,31555,1342,10874,22861,24294,31992,29907,32790,15535
2500,15026,345,158,158,158,157,155,11593,57054,1052,194,170,173,162,164,1194,6974,263,220,201,203,200,200,1091,7679,278,224,216,218,215,218,1394,1735,30226,34227,31303,29354,1734,1426,997,1433,17730,16571,19245,21207,1190,999,1062,6039,12730,20476,22289,23938,37131,31539,1341,10863,22807,24224,31956,29866,32742,15516
2502,15046,343,162,157,155,156,156,11591,57021,1040,189,171,169,159,161,1195,6987,264,219,200,202,199,200,1087,7665,277,226,215,221,216,212,1396,1737,30279,34316,31316,29397,1737,1429,996,1439,17730,16582,19237,21215,1192,1002,1059,6038,12727,20475,22290,23942,37125,31530,1343,10866,22766,24190,31937,29870,32715,15503
2505,15068,345,165,161,157,157,155,11584,57001,1050,189,170,172,162,161,1197,6993,266,221,199,202,199,200,1087,7655,277,225,216,217,217,213,1399,1739,30311,34364,31341,29440,1739,1431,999,1439,17727,16587,19227,21217,1193,999,1059,6037,12731,20477,22287,23943,37115,31518,1344,10865,22731,24158,31920,29859,32682,15495
2508,15085,342,165,157,157,156,154,11579,56987,1039,193,169,175,167,161,1198,7002,263,222,201,203,203,199,1085,7648,279,223,221,211,216,214,1399,1743,30353,34445,31372,29515,1742,1435,999,1442,17732,16597,19228,21234,1197,1003,1058,6038,12729,20486,22299,23964,37108,31518,1345,10863,22704,24133,31902,29864,32676,15487
2511,15113,348,161,158,157,157,154,11571,56991,1049,191,171,172,163,164,1199,7020,266,220,201,203,198,201,1084,7653,278,224,218,218,214,211,1403,1747,30408,34578,31431,29630,1749,1437,1001,1445,17742,16631,19233,21276,1199,1006,1057,6047,12729,20503,22322,24012,37101,31520,1342,10868,22686,24123,31897,29873,32672,15495
2515,15151,344,163,158,158,159,156,11572,57012,1040,193,172,172,164,160,1205,7042,263,224,201,203,200,201,1085,7657,280,223,217,216,215,213,1410,1753,30483,34709,31495,29759,1753,1445,1007,1450,17761,16667,19245,21318,1203,1008,1059,6051,12727,20525,22345,24067,37098,31526,1343,10870,22681,24127,31892,29891,32676,15505
2520,15194,349,161,160,155,157,156,11568,57040,1051,191,171,177,163,163,1206,7059,266,221,201,203,199,202,1086,7667,277,227,218,219,215,218,1415,1760,30552,34836,31561,29886,1759,1446,1006,1454,17783,16708,19261,21361,1205,1010,1058,6059,12735,20550,22378,24129,37103,31530,1341,10878,22673,24135,31889,29919,32683,15517
2529,15255,348,163,158,156,155,154,11570,57085,1044,195,167,172,162,161,1211,7091,269,224,201,203,201,201,1085,7677,276,220,219,221,216,213,1414,1767,30623,34980,31623,30009,1764,1451,1009,1457,17809,16760,19283,21417,1207,1013,1061,6072,12742,20582,22407,24193,37108,31543,1341,10887,22673,24143,31903,29950,32697,15531
2536,15305,353,162,158,158,155,158,11568,57131,1050,191,170,171,166,160,1214,7115,267,223,202,202,201,201,1086,7687,277,226,215,217,220,213,1418,1770,30682,35057,31674,30050,1767,1449,1013,1461,17840,16800,19312,21442,1208,1011,1061,6083,12755,20611,22436,24232,37127,31555,1343,10902,22677,24169,31923,29967,32719,15526
2538,15275,346,161,159,156,155,155,11599,57143,1040,189,171,171,163,158,1215,7105,266,220,201,202,201,200,1089,7684,275,226,218,219,217,211,1420,1765,30517,34695,31566,29721,1756,1444,1012,1454,17805,16695,19241,21271,1200,1007,1061,6072,12783,20591,22377,24081,37136,31540,1345,10883,22698,24146,31885,29878,32675,15491
2537,15238,347,165,159,157,156,154,11598,57023,1049,189,171,173,163,162,1214,7089,267,221,200,205,200,200,1089,7663,278,225,221,218,215,212,1410,1753,30378,34423,31383,29422,1750,1439,1004,1445,17761,16601,19179,21158,1196,1004,1061,6055,12773,20538,22306,23942,37129,31519,1342,10842,22687,24097,31848,29806,32638,15459
2536,15219,347,161,159,160,157,158,11593,56947,1040,189,169,174,166,161,1217,7081,263,221,200,204,201,201,1089,7653,277,225,219,218,217,214,1408,1750,30316,34299,31271,29271,1745,1438,1003,1441,17739,16547,19147,21095,1197,1003,1064,6039,12763,20499,22263,23864,37111,31501,1345,10816,22668,24053,31831,29757,32609,15441
2537,15232,349,160,157,157,155,154,11589,56903,1048,194,175,171,162,158,1218,7087,268,222,202,203,203,205,1092,7642,275,228,218,218,215,213,1408,1750,30323,34335,31271,29306,1750,1440,1003,1442,17729,16535,19137,21103,1195,1004,1061,6030,12759,20496,22265,23863,37096,31490,1344,10801,22655,24031,31818,29756,32601,15438
2543,15257,346,165,160,155,156,155,11583,56891,1037,191,175,172,163,161,1218,7095,261,223,205,203,201,202,1092,7647,275,224,217,219,219,213,1408,1754,30365,34395,31311,29359,1750,1443,1004,1442,17739,16546,19139,21110,1197,1005,1062,6031,12760,20496,22274,23873,37091,31482,1344,10805,22652,24023,31815,29753,32589,15432
2550,15281,350,161,159,156,156,155,11584,56877,1048,194,171,172,163,165,1220,7109,267,222,203,203,201,201,1088,7647,277,227,216,217,217,215,1411,1754,30395,34452,31348,29416,1754,1443,1005,1445,17745,16555,19137,21125,1199,1007,1060,6033,12753,20501,22283,23887,37083,31475,1344,10803,22641,24016,31802,29753,32583,15431
2550,15310,346,165,160,155,155,155,11581,56876,1038,190,175,173,163,162,1222,7122,267,222,205,203,200,202,1089,7652,277,225,218,216,219,215,1415,1757,30446,34555,31401,29524,1758,1448,1005,1446,17757,16583,19147,21162,1201,1007,1061,6035,12751,20511,22302,23926,37078,31477,1343,10803,22638,24017,31804,29765,32592,15441
2553,15337,350,160,160,156,155,155,11574,56898,1048,191,171,172,162,164,1225,7138,264,221,202,203,202,202,1089,7654,279,227,217,218,216,216,1422,1760,30516,34690,31479,29655,1767,1450,1009,1449,17780,16621,19164,21209,1202,1011,1064,6042,12756,20528,22335,23984,37080,31486,1343,10809,22641,24027,31805,29790,32603,15450
2555,15371,350,161,159,156,155,153,11575,56927,1040,190,171,172,160,160,1225,7159,269,223,203,203,201,202,1089,7663,275,223,224,223,216,213,1423,1765,30591,34826,31551,29785,1767,1454,1010,1451,17806,16665,19187,21259,1206,1012,1063,6052,12759,20559,22367,24046,37097,31491,1342,10817,22641,24038,31822,29813,32618,15461
2562,15413,353,163,157,155,157,154,11576,56963,1049,189,173,175,162,161,1227,7172,267,224,203,203,204,202,1091,7669,279,221,217,219,215,217,1425,1770,30651,34957,31621,29907,1774,1458,1010,1455,17828,16711,19206,21311,1207,1013,1062,6063,12767,20587,22397,24109,37105,31510,1347,10829,22647,24058,31832,29845,32634,15479
2566,15451,349,162,158,156,155,156,11572,57005,1039,190,174,172,160,163,1232,7194,268,223,207,203,201,206,1087,7683,277,225,221,218,217,212,1427,1776,30723,35091,31688,30013,1776,1458,1014,1460,17865,16764,19232,21366,1207,1016,1066,6075,12774,20621,22437,24172,37113,31518,1349,10842,22649,24077,31851,29870,32665,15491
2568,15428,354,161,160,158,156,158,11602,57062,1050,191,171,175,165,159,1231,7194,269,223,202,205,199,201,1091,7685,279,228,218,218,218,216,1430,1775,30615,34803,31630,29745,1767,1453,1013,1457,17849,16696,19193,21220,1206,1010,1064,6071,12809,20625,22407,24067,37131,31516,1346,10833,22675,24075,31831,29797,32641,15455
2563,15372,349,160,156,159,153,159,11605,56933,1039,190,171,173,167,165,1233,7168,268,222,204,204,202,204,1093,7665,277,225,215,217,217,213,1422,1760,30439,34444,31427,29365,1757,1444,1012,1448,17797,16574,19123,21069,1199,1005,1067,6046,12807,20563,22326,23897,37137,31496,1348,10795,22677,24031,31795,29706,32605,15423
2562,15340,351,163,160,156,154,158,11606,56838,1049,189,171,171,164,161,1230,7154,268,221,203,203,201,201,1093,7649,279,224,215,217,217,213,1415,1753,30352,34251,31284,29150,1751,1443,1006,1441,17768,16505,19081,20985,1196,1003,1064,6027,12800,20516,22280,23793,37122,31472,1345,10762,22660,23987,31763,29645,32572,15395
2559,15328,349,163,157,155,156,152,11597,56767,1037,191,171,175,163,161,1233,7145,269,221,202,205,201,200,1093,7631,276,225,218,216,217,213,1414,1747,30325,34189,31251,29109,1751,1445,1004,1437,17756,16466,19060,20957,1194,1004,1065,6013,12789,20484,22262,23751,37112,31457,1345,10737,22654,23949,31742,29620,32554,15385
2559,15333,349,156,155,155,153,153,11584,56726,1044,191,168,171,167,163,1229,7150,269,221,201,203,201,202,1090,7626,277,228,219,216,219,214,1415,1749,30359,34261,31297,29176,1752,1443,1004,1437,17759,16472,19067,20975,1195,1005,1062,6011,12778,20477,22280,23769,37102,31442,1345,10736,22643,23941,31744,29620,32541,15381
2559,15343,349,164,161,156,153,162,11585,56721,1037,193,174,171,165,161,1233,7156,267,223,205,203,204,202,1090,7623,276,225,217,218,215,212,1414,1751,30393,34314,31343,29236,1753,1444,1007,1439,17767,16481,19068,20987,1194,1006,1064,6008,12778,20475,22291,23787,37101,31438,1346,10730,22642,23934,31741,29616,32540,15380
2561,15363,351,166,162,161,155,154,11580,56714,1045,190,171,171,164,164,1233,7165,269,223,202,203,201,201,1090,7627,279,224,217,217,217,216,1417,1752,30431,34398,31396,29336,1757,1445,1007,1439,17777,16500,19077,21021,1197,1006,1066,6010,12773,20479,22311,23814,37091,31433,1344,10733,22634,23931,31730,29625,32541,15385
2564,15392,348,162,159,160,155,155,11576,56723,1037,190,175,173,172,163,1233,7177,269,222,205,204,201,202,1091,7632,276,226,217,218,217,212,1419,1760,30499,34535,31475,29469,1758,1450,1007,1441,17801,16539,19094,21066,1199,1006,1064,6016,12778,20498,22341,23873,37095,31437,1344,10738,22638,23941,31734,29643,32549,15394
2567,15419,351,160,158,157,155,155,11573,56746,1044,188,171,174,161,164,1236,7194,268,225,206,203,201,201,1092,7640,277,222,215,217,215,215,1421,1761,30573,34671,31567,29618,1767,1452,1010,1446,17828,16585,19117,21122,1201,1010,1064,6023,12783,20525,22378,23937,37102,31449,1344,10749,22641,23958,31745,29667,32568,15413
2571,15456,349,163,156,148,154,157,11571,56780,1034,188,170,171,161,165,1237,7215,268,221,202,204,202,205,1090,7650,279,225,217,218,215,214,1423,1765,30634,34793,31678,29772,1765,1450,1010,1449,17847,16621,19167,21199,1200,1008,1063,6034,12801,20566,22424,24009,37127,31469,1345,10758,22671,24001,31759,29693,32621,15439
2576,15500,354,162,161,158,157,156,11573,56834,1047,191,171,172,163,159,1238,7234,269,223,201,204,199,204,1093,7671,277,226,214,218,215,213,1421,1766,30671,34898,31779,29925,1766,1451,1001,1446,17862,16659,19228,21291,1199,1004,1063,6045,12816,20610,22475,24083,37151,31493,1345,10745,22738,24072,31787,29717,32684,15468
2581,15529,350,162,159,157,154,154,11571,56903,1037,190,169,172,163,164,1245,7253,269,223,202,204,201,205,1097,7685,279,226,220,220,216,213,1420,1766,30704,34938,31847,29955,1763,1445,1003,1446,17891,16696,19258,21306,1196,999,1065,6054,12827,20636,22531,24133,37179,31510,1342,10740,22772,24109,31802,29721,32717,15467
2579,15475,352,162,156,159,157,153,11612,56902,1044,189,173,172,166,160,1239,7235,270,224,203,204,200,202,1097,7679,278,225,217,217,219,213,1413,1758,30508,34528,31723,29578,1749,1435,998,1437,17849,16575,19183,21113,1189,996,1066,6038,12853,20611,22471,23968,37193,31495,1345,10709,22801,24090,31757,29609,32682,15431
2571,15426,349,162,158,157,155,153,11610,56781,1037,190,172,174,161,163,1240,7212,266,222,203,206,202,205,1098,7661,277,223,216,218,217,212,1406,1741,30359,34202,31512,29218,1740,1428,995,1427,17807,16471,19115,20977,1183,991,1069,6013,12849,20549,22400,23813,37187,31469,1343,10674,22790,24030,31726,29525,32645,15399
2571,15390,350,165,159,156,159,158,11610,56688,1043,192,172,170,163,158,1237,7198,268,223,206,207,202,206,1099,7641,276,229,217,217,215,213,1402,1738,30279,34040,31382,29021,1749,1443,990,1422,17782,16410,19068,20894,1187,998,1066,5992,12834,20494,22358,23719,37163,31438,1343,10648,22767,23979,31691,29462,32605,15377
2569,15377,347,162,155,156,157,157,11600,56604,1037,191,169,172,161,163,1238,7186,272,224,202,203,202,203,1096,7622,275,228,218,218,215,214,1413,1748,30279,34028,31367,29027,1746,1439,999,1427,17778,16403,19056,20883,1190,999,1066,5982,12826,20469,22345,23699,37155,31423,1343,10639,22738,23939,31685,29455,32585,15365
2569,15384,351,163,155,157,153,154,11591,56583,1043,190,173,171,163,163,1238,7186,268,222,202,207,199,202,1098,7622,278,227,219,218,215,213,1412,1743,30322,34100,31421,29095,1744,1435,998,1427,17785,16408,19059,20899,1184,996,1067,5979,12825,20473,22364,23716,37149,31413,1343,10645,22725,23936,31698,29462,32577,15364
2569,15393,350,161,158,155,156,155,11591,56586,1033,189,174,178,162,160,1238,7190,268,227,205,204,200,201,1095,7622,277,225,216,217,217,215,1407,1742,30357,34152,31461,29159,1746,1437,996,1425,17799,16419,19062,20917,1183,993,1067,5975,12819,20465,22381,23734,37139,31408,1344,10647,22724,23925,31701,29468,32576,15365
2573,15413,351,167,168,158,158,158,11585,56585,1041,191,174,173,163,162,1238,7199,266,221,203,204,202,201,1093,7623,277,224,217,216,215,213,1407,1740,30411,34263,31521,29265,1747,1438,994,1425,17813,16452,19073,20956,1186,996,1064,5979,12827,20476,22405,23779,37147,31411,1343,10645,22720,23932,31698,29482,32583,15373
2573,15441,350,161,157,156,154,152,11581,56607,1034,189,171,172,165,161,1238,7213,269,222,203,206,205,202,1094,7627,276,225,215,217,216,213,1408,1748,30495,34408,31600,29402,1751,1443,997,1430,17843,16501,19091,21007,1190,995,1066,5987,12825,20495,22437,23835,37140,31414,1343,10659,22723,23935,31711,29508,32594,15383
2576,15472,354,161,157,154,155,155,11578,56632,1043,191,170,170,162,161,1238,7225,270,222,202,206,201,202,1095,7635,277,225,215,215,219,213,1412,1753,30579,34557,31690,29549,1759,1449,1000,1436,17875,16547,19115,21061,1193,1000,1064,5998,12831,20515,22470,23907,37147,31423,1345,10673,22716,23947,31724,29535,32610,15401
2578,15502,350,162,159,159,154,157,11581,56680,1035,191,171,172,163,160,1241,7243,268,227,205,205,201,201,1094,7650,277,224,216,218,216,212,1418,1761,30658,34705,31764,29679,1765,1450,1002,1439,17916,16609,19135,21117,1197,1005,1068,6009,12837,20543,22509,23972,37158,31439,1347,10690,22723,23969,31744,29571,32631,15417
2578,15541,352,160,157,157,154,155,11574,56703,1044,187,169,171,163,172,1243,7263,268,223,202,207,202,203,1095,7654,281,221,215,217,217,215,1423,1764,30729,34841,31837,29817,1772,1457,1009,1445,17946,16666,19166,21178,1203,1010,1066,6019,12838,20564,22539,24035,37171,31455,1345,10707,22731,23987,31759,29606,32653,15437
2588,15583,352,164,157,157,154,156,11571,56736,1037,191,169,172,166,164,1243,7284,270,224,203,205,203,204,1095,7667,277,224,217,218,215,215,1429,1771,30817,34997,31915,29937,1775,1459,1009,1449,17993,16731,19196,21247,1205,1012,1068,6030,12840,20599,22581,24110,37184,31468,1347,10728,22733,24010,31799,29653,32687,15451
2589,15565,354,164,158,155,155,154,11608,56858,1047,190,171,172,162,165,1246,7284,269,227,206,205,201,203,1099,7673,279,225,215,218,216,217,1429,1771,30717,34733,31865,29682,1767,1451,1010,1447,17991,16674,19164,21101,1200,1006,1067,6032,12886,20617,22566,24018,37216,31471,1351,10726,22762,24018,31787,29589,32674,15421
2582,15502,349,163,158,157,155,153,11614,56719,1036,193,170,175,164,164,1246,7257,270,224,203,206,205,205,1097,7654,276,225,217,217,216,213,1420,1755,30515,34317,31645,29266,1752,1441,1004,1438,17931,16544,19083,20933,1193,1000,1069,6009,12889,20549,22484,23837,37230,31460,1353,10698,22780,23982,31756,29494,32637,15389
2582,15465,352,161,157,159,157,155,11615,56639,1042,190,176,167,164,158,1244,7241,269,225,202,203,202,203,1099,7636,277,225,218,217,218,213,1413,1747,30405,34083,31490,29004,1746,1439,1000,1430,17904,16468,19035,20832,1190,998,1069,5985,12881,20499,22434,23725,37226,31438,1351,10666,22767,23938,31735,29435,32617,15369
2577,15446,349,162,159,160,156,156,11615,56562,1032,189,171,175,158,157,1243,7229,270,223,203,206,200,203,1097,7621,275,225,217,216,216,213,1409,1741,30359,33987,31431,28923,1746,1437,999,1425,17888,16427,19016,20798,1187,997,1071,5970,12879,20464,22418,23674,37223,31430,1349,10650,22770,23912,31727,29412,32605,15359
2579,15451,353,159,157,159,157,159,11598,56521,1043,190,174,172,162,161,1244,7231,270,224,202,204,200,201,1094,7611,275,224,216,216,216,213,1409,1741,30401,34058,31485,28997,1745,1438,998,1425,17897,16438,19028,20821,1189,999,1066,5967,12867,20455,22430,23694,37219,31417,1353,10647,22761,23908,31742,29429,32607,15360
2577,15455,350,161,158,155,156,155,11597,56525,1031,189,171,172,161,157,1243,7231,267,223,202,204,201,203,1096,7615,277,223,216,218,216,213,1411,1742,30448,34123,31537,29068,1747,1439,999,1429,17915,16450,19035,20835,1187,999,1070,5967,12865,20449,22452,23713,37217,31415,1352,10652,22762,23913,31743,29432,32608,15359
2578,15466,354,161,159,159,157,155,11594,56521,1042,190,167,172,164,159,1244,7239,269,222,205,204,200,202,1098,7616,277,224,217,216,215,213,1411,1745,30498,34215,31595,29166,1751,1444,1000,1430,17930,16474,19045,20870,1189,1000,1069,5969,12863,20456,22467,23743,37211,31410,1352,10653,22766,23917,31742,29443,32616,15371
2579,15487,349,162,159,157,159,155,11584,56524,1032,188,171,174,165,157,1243,7251,270,222,202,205,202,199,1096,7625,277,227,217,216,214,213,1418,1749,30570,34358,31675,29296,1755,1445,1003,1433,17959,16512,19069,20920,1195,1003,1068,5975,12859,20466,22499,23804,37215,31419,1354,10665,22773,23928,31756,29466,32630,15382
2584,15519,354,162,162,156,157,155,11585,56561,1041,189,170,170,165,161,1244,7263,271,221,203,207,201,205,1097,7635,276,224,217,216,215,212,1418,1754,30652,34507,31759,29445,1763,1453,1004,1437,17984,16566,19090,20981,1198,1006,1066,5984,12859,20487,22533,23866,37223,31435,1355,10677,22779,23947,31772,29492,32650,15400
2583,15551,352,164,158,158,155,156,11578,56589,1034,193,172,168,165,160,1246,7285,270,227,204,203,206,196,1097,7649,276,224,217,221,216,216,1426,1763,30737,34659,31842,29583,1767,1457,1007,1442,18019,16618,19124,21044,1201,1012,1069,6001,12863,20516,22570,23939,37236,31447,1355,10697,22792,23970,31790,29526,32679,15419
2590,15591,354,159,156,157,157,154,11575,56623,1043,193,174,173,163,160,1247,7304,270,223,199,205,201,206,1099,7664,281,225,218,217,216,212,1429,1767,30807,34793,31917,29718,1774,1459,1010,1447,18049,16674,19152,21107,1205,1011,1070,6011,12874,20547,22609,24004,37251,31463,1354,10713,22801,23996,31815,29566,32713,15441
2594,15630,351,161,159,160,155,154,11571,56657,1033,189,169,179,160,161,1251,7325,271,223,205,206,202,202,1099,7677,275,225,217,218,216,213,1430,1773,30879,34931,31996,29857,1778,1463,1011,1453,18079,16725,19187,21171,1210,1015,1070,6020,12878,20577,22645,24079,37271,31478,1356,10731,22816,24026,31845,29603,32747,15464
2599,15675,355,165,161,160,155,157,11572,56703,1045,190,171,172,160,155,1251,7350,275,225,207,204,205,203,1098,7691,278,225,217,217,216,212,1437,1777,30959,35079,32080,29972,1783,1462,1013,1455,18119,16789,19229,21242,1210,1015,1069,6032,12884,20613,22693,24159,37300,31505,1354,10746,22823,24049,31884,29653,32791,15483
2603,15662,353,163,155,161,156,155,11618,56853,1040,189,175,172,160,160,1260,7353,271,226,205,207,203,203,1103,7694,277,228,217,217,216,214,1433,1773,30844,34773,32012,29689,1768,1453,1015,1451,18109,16714,19192,21087,1199,1008,1074,6034,12937,20638,22683,24061,37329,31509,1359,10741,22862,24063,31874,29575,32777,15455
2596,15603,353,163,160,155,155,157,11626,56735,1047,191,170,174,169,153,1253,7327,272,225,204,205,201,203,1103,7676,279,224,217,221,216,214,1422,1755,30632,34364,31799,29281,1751,1440,1007,1439,18047,16581,19121,20921,1195,1002,1072,6011,12950,20589,22605,23879,37351,31505,1356,10710,22882,24038,31843,29490,32762,15429
2592,15566,351,160,158,156,157,155,11629,56667,1034,189,171,171,166,159,1254,7311,271,224,203,203,203,203,1102,7662,277,225,217,217,216,213,1411,1743,30503,34113,31675,29051,1738,1429,1001,1431,18019,16503,19095,20846,1186,995,1076,5990,12952,20551,22572,23780,37384,31506,1358,10683,22906,24023,31829,29434,32776,15422
2590,15548,352,162,157,155,154,155,11634,56621,1041,190,169,180,163,158,1251,7304,271,223,204,205,202,204,1104,7652,276,224,215,221,217,212,1399,1731,30401,33966,31675,29021,1727,1422,995,1420,18003,16454,19117,20841,1179,986,1071,5967,12963,20543,22584,23748,37424,31516,1357,10654,22945,24043,31849,29430,32815,15436
2591,15566,350,162,161,155,156,155,11627,56618,1034,187,171,172,167,157,1254,7314,271,224,204,210,205,203,1104,7661,276,224,216,218,217,214,1389,1721,30387,33973,31764,29111,1717,1409,985,1413,17997,16442,19150,20887,1171,978,1071,5956,12966,20554,22634,23777,37458,31529,1354,10631,23006,24089,31880,29452,32875,15454
2595,15594,353,162,157,159,158,155,11662,56779,1045,191,168,172,163,160,1256,7331,270,224,206,206,202,202,1110,7695,278,225,217,217,215,212,1380,1716,30361,33977,31822,29181,1714,1406,977,1406,18001,16447,19185,20933,1164,972,1068,5951,12970,20554,22658,23797,37471,31536,1357,10612,23073,24151,31915,29470,32923,15471
2597,15626,351,162,159,159,156,155,11669,56791,1037,187,171,172,163,161,1256,7337,270,225,208,205,202,198,1109,7705,277,224,217,217,218,213,1378,1715,30401,34079,31883,29287,1721,1413,971,1405,18011,16470,19207,20972,1165,974,1071,5962,12962,20559,22673,23830,37469,31537,1350,10597,23123,24187,31932,29481,32951,15486
2602,15653,354,162,158,155,159,155,11657,56775,1047,189,171,176,163,162,1257,7351,271,223,204,206,202,203,1111,7709,279,226,216,218,215,213,1383,1722,30482,34222,31958,29429,1725,1413,975,1407,18025,16512,19222,21025,1166,973,1070,5971,12954,20564,22700,23892,37471,31548,1351,10611,23128,24201,31929,29495,32984,15503
2601,15686,354,163,157,156,158,157,11649,56795,1035,189,170,169,165,164,1259,7366,272,224,198,205,203,206,1109,7718,277,229,217,219,215,212,1385,1726,30547,34362,32042,29581,1728,1417,974,1410,18054,16563,19257,21097,1170,977,1073,5978,12947,20577,22735,23950,37479,31559,1350,10625,23146,24227,31942,29523,33019,15528
2604,15720,356,170,159,159,155,155,11641,56811,1047,190,173,171,159,159,1263,7382,272,223,203,204,203,199,1109,7730,279,225,220,218,218,212,1390,1732,30611,34495,32123,29723,1735,1420,976,1412,18073,16615,19284,21167,1170,976,1070,5984,12943,20593,22763,24015,37487,31576,1350,10638,23157,24257,31960,29552,33062,15553
2607,15751,354,163,155,159,157,157,11640,56862,1037,193,171,175,163,161,1260,7402,272,227,204,209,203,209,1109,7747,278,225,217,217,218,213,1393,1733,30672,34623,32201,29862,1739,1422,977,1416,18102,16661,19314,21231,1169,976,1072,5992,12946,20617,22802,24091,37500,31588,1351,10652,23182,24288,31993,29581,33105,15581
2613,15787,356,155,155,157,158,157,11647,56937,1048,193,174,171,162,161,1261,7423,274,223,205,207,207,204,1111,7766,279,229,217,217,215,212,1391,1733,30728,34747,32264,29997,1741,1422,976,1414,18121,16711,19347,21306,1171,975,1070,6000,12944,20644,22841,24167,37514,31607,1352,10655,23201,24330,32023,29625,33167,15609
2617,15831,353,162,158,156,157,155,11649,57012,1038,191,170,172,167,164,1265,7447,271,226,205,207,203,211,1115,7795,279,227,215,217,217,213,1393,1740,30799,34901,32341,30147,1742,1424,975,1414,18157,16770,19391,21393,1171,976,1068,6014,12945,20678,22886,24251,37524,31623,1347,10633,23250,24386,32076,29680,33221,15636
2618,15825,359,163,157,155,156,156,11693,57207,1051,192,171,173,167,161,1268,7460,273,225,204,206,202,204,1119,7813,284,220,220,218,219,213,1397,1741,30746,34731,32332,29966,1735,1418,974,1412,18170,16750,19385,21301,1165,967,1071,6021,12981,20701,22907,24212,37561,31639,1344,10623,23295,24417,32079,29649,33235,15625
2611,15759,355,163,156,160,157,156,11710,57112,1040,191,168,172,162,157,1266,7433,273,227,203,206,203,203,1117,7793,279,226,219,217,217,215,1388,1726,30525,34300,32115,29539,1721,1408,967,1398,18102,16591,19279,21089,1157,963,1075,6006,12996,20647,22820,24031,37593,31633,1344,10589,23329,24394,32050,29546,33215,15598
2610,15725,355,160,157,155,156,154,11709,57016,1049,189,171,176,166,157,1268,7416,273,227,207,205,203,207,1118,7771,279,225,217,222,219,212,1379,1715,30405,34055,31907,29236,1714,1406,963,1391,18059,16509,19204,20959,1154,961,1073,5991,12989,20598,22763,23909,37589,31615,1345,10570,23322,24356,32011,29473,33189,15586
2607,15705,353,165,161,156,156,154,11707,56951,1038,192,172,175,161,158,1265,7404,273,225,207,216,202,203,1117,7759,278,221,218,217,215,221,1376,1711,30362,33955,31807,29110,1711,1404,961,1389,18045,16471,19164,20903,1152,961,1073,5974,12981,20563,22737,23854,37587,31610,1346,10567,23313,24321,31983,29435,33177,15577
2609,15713,356,165,160,154,157,156,11695,56895,1046,189,171,174,162,159,1263,7405,273,225,204,205,202,206,1119,7755,278,225,218,215,216,212,1376,1710,30402,34038,31817,29157,1714,1406,963,1390,18052,16492,19167,20922,1154,961,1073,5972,12964,20552,22750,23865,37590,31606,1348,10594,23296,24318,31983,29455,33178,15584
2606,15715,353,164,158,160,158,155,11692,56901,1038,191,171,174,163,160,1266,7404,272,223,204,203,202,202,1115,7754,279,224,217,217,217,211,1376,1712,30439,34088,31860,29217,1714,1405,965,1395,18065,16506,19188,20957,1152,961,1073,5970,12974,20559,22759,23891,37588,31609,1353,10612,23299,24323,31997,29477,33191,15591
2607,15717,356,163,158,156,155,155,11693,56907,1047,190,172,171,163,158,1265,7417,272,225,205,205,201,208,1118,7760,279,226,219,220,217,213,1376,1712,30463,34166,31917,29308,1714,1406,960,1395,18065,16525,19208,20999,1153,961,1071,5975,12969,20569,22779,23922,37589,31613,1352,10612,23314,24350,32019,29502,33215,15606
2605,15741,358,162,159,160,156,157,11686,56931,1042,190,170,172,159,161,1263,7423,276,224,203,206,201,203,1117,7765,277,225,218,217,216,214,1377,1714,30517,34288,31997,29443,1717,1407,962,1398,18081,16561,19232,21055,1151,961,1072,5978,12972,20584,22811,23977,37605,31621,1349,10612,23330,24372,32052,29536,33239,15623
2609,15763,358,162,160,158,155,155,11682,56953,1047,189,171,173,161,160,1265,7435,273,227,203,206,205,196,1115,7773,280,223,214,219,217,213,1377,1718,30576,34419,32071,29589,1725,1409,960,1395,18101,16614,19259,21121,1156,961,1071,5988,12971,20609,22835,24042,37609,31639,1350,10619,23330,24391,32074,29565,33264,15639
2611,15801,354,161,158,157,155,155,11679,56989,1038,187,171,175,162,162,1268,7452,272,226,203,209,204,204,1115,7780,278,227,218,212,217,214,1379,1722,30646,34566,32157,29733,1725,1412,962,1401,18135,16671,19288,21186,1157,963,1073,6000,12974,20635,22872,24110,37617,31649,1349,10631,23327,24401,32078,29591,33293,15662
2615,15831,361,162,158,157,156,155,11677,57035,1047,189,171,170,166,162,1269,7470,274,226,204,208,203,201,1117,7789,279,225,216,218,220,214,1384,1729,30721,34710,32228,29875,1733,1418,964,1403,18159,16718,19315,21253,1165,966,1071,6010,12977,20660,22905,24175,37619,31663,1351,10636,23337,24417,32097,29625,33321,15679
2615,15865,354,165,161,160,155,155,11669,57053,1043,191,173,173,162,161,1271,7487,274,226,207,207,203,203,1115,7799,278,224,218,211,216,215,1390,1733,30791,34860,32299,30020,1738,1423,968,1404,18182,16777,19341,21321,1165,969,1075,6019,12976,20690,22931,24247,37630,31680,1349,10650,23339,24438,32121,29672,33344,15701
2619,15897,358,164,161,156,155,153,11673,57123,1049,190,170,171,162,164,1272,7505,272,227,204,206,205,204,1117,7815,280,226,217,218,215,213,1391,1740,30849,34936,32355,30065,1741,1419,971,1413,18223,16822,19374,21359,1164,969,1073,6033,12983,20713,22973,24307,37657,31701,1347,10671,23338,24456,32148,29703,33379,15708
2618,15842,354,164,161,156,160,154,11727,57233,1041,193,174,173,163,163,1273,7487,272,229,207,207,202,205,1120,7807,282,224,216,218,217,213,1388,1733,30670,34551,32231,29717,1725,1408,965,1401,18185,16706,19302,21163,1159,960,1077,6025,13023,20708,22931,24175,37675,31700,1350,10656,23383,24458,32119,29614,33366,15687
2611,15794,357,162,158,158,157,155,11728,57124,1050,191,169,172,167,164,1273,7467,274,226,205,206,203,203,1122,7790,279,225,217,218,221,226,1379,1717,30499,34231,32017,29361,1713,1402,961,1391,18119,16586,19226,21017,1150,957,1075,6009,13025,20655,22860,24025,37689,31686,1350,10630,23390,24428,32089,29528,33344,15667
2609,15765,355,162,158,157,154,155,11723,57049,1039,190,171,171,162,159,1273,7453,273,225,203,207,205,202,1121,7775,278,235,209,218,215,214,1372,1710,30422,34063,31889,29173,1705,1398,956,1383,18094,16524,19183,20938,1144,952,1080,5993,13023,20620,22825,23943,37685,31677,1354,10615,23392,24403,32063,29481,33332,15658
2608,15760,358,161,157,155,159,156,11721,56997,1049,191,172,175,163,166,1270,7446,273,224,204,206,202,203,1118,7761,279,229,220,222,215,211,1370,1705,30411,34072,31866,29176,1705,1395,953,1381,18087,16509,19170,20937,1144,954,1073,5981,13018,20606,22819,23931,37683,31661,1350,10603,23392,24399,32056,29478,33337,15662
2607,15768,354,162,157,156,156,155,11710,56987,1038,190,170,172,162,163,1273,7449,271,224,205,206,203,205,1119,7766,281,226,217,217,216,218,1369,1709,30451,34142,31899,29230,1706,1398,952,1382,18094,16530,19179,20959,1144,953,1075,5984,13009,20604,22830,23954,37685,31667,1353,10615,23395,24404,32060,29489,33339,15670
2609,15775,356,163,158,155,159,156,11706,56984,1047,190,169,174,163,162,1269,7454,275,224,207,204,203,202,1116,7762,278,224,217,220,215,213,1372,1708,30481,34212,31931,29298,1710,1399,951,1387,18108,16553,19186,20981,1147,954,1071,5988,13002,20601,22840,23973,37671,31666,1351,10628,23397,24409,32057,29510,33343,15675
2610,15796,355,163,161,156,159,153,11701,56975,1038,190,172,171,163,162,1269,7466,272,223,206,205,203,205,1115,7769,280,228,215,217,217,209,1373,1710,30537,34319,31983,29409,1713,1402,956,1390,18117,16583,19200,21029,1151,958,1073,5990,13003,20615,22859,24018,37676,31670,1353,10649,23398,24421,32069,29529,33357,15687
2611,15827,356,162,157,156,158,157,11697,57002,1048,195,170,170,163,161,1271,7480,272,225,205,207,203,203,1115,7781,279,228,216,213,217,213,1376,1716,30601,34465,32054,29542,1720,1406,957,1397,18138,16631,19225,21086,1152,959,1074,5996,13001,20635,22883,24080,37671,31676,1353,10667,23396,24431,32079,29555,33368,15699
2615,15856,356,166,158,159,161,157,11693,57043,1039,191,170,171,162,163,1271,7492,273,225,203,204,203,203,1115,7785,279,222,219,222,217,213,1379,1722,30681,34615,32130,29692,1726,1410,961,1397,18163,16681,19253,21155,1153,962,1074,6011,12999,20657,22911,24143,37667,31689,1355,10684,23391,24438,32091,29593,33385,15715
2617,15890,357,163,158,158,156,154,11695,57087,1049,191,169,172,162,158,1272,7509,274,224,205,206,206,206,1113,7792,277,225,215,215,217,213,1381,1725,30747,34753,32203,29825,1731,1413,961,1401,18186,16733,19285,21223,1157,963,1073,6022,13003,20686,22935,24205,37675,31700,1353,10694,23385,24457,32112,29632,33409,15737
2619,15922,357,161,159,158,160,156,11686,57107,1039,189,172,172,164,162,1273,7527,272,225,204,206,203,202,1114,7802,280,225,218,218,215,215,1386,1731,30804,34889,32281,29973,1734,1418,965,1404,18203,16775,19314,21289,1159,965,1075,6035,13009,20714,22959,24269,37690,31718,1355,10706,23385,24476,32137,29673,33432,15756
2624,15960,359,165,158,158,158,158,11682,57143,1050,190,171,173,163,161,1277,7545,275,223,203,205,202,204,1114,7815,279,225,222,219,217,213,1386,1736,30879,35017,32359,30085,1734,1416,968,1408,18225,16833,19353,21351,1162,965,1076,6045,13011,20749,22998,24342,37707,31739,1351,10720,23390,24495,32171,29726,33466,15775
2621,15927,360,163,159,155,156,155,11740,57332,1046,191,171,172,162,159,1276,7543,278,226,203,205,202,202,1117,7818,279,225,219,225,220,213,1385,1730,30753,34726,32281,29807,1725,1405,962,1401,18213,16753,19311,21194,1153,958,1076,6044,13061,20772,22988,24254,37735,31739,1353,10716,23423,24499,32154,29650,33442,15748
2617,15869,358,160,157,156,159,156,11748,57223,1049,189,169,173,162,158,1275,7515,275,227,204,206,204,206,1117,7800,279,225,217,218,216,214,1378,1719,30561,34365,32058,29421,1717,1405,959,1391,18144,16619,19223,21027,1149,956,1077,6027,13068,20726,22899,24090,37735,31722,1356,10689,23429,24462,32122,29568,33417,15726
2614,15839,357,162,160,155,155,156,11740,57128,1041,190,172,171,160,164,1273,7501,273,223,202,205,201,203,1117,7783,279,226,221,221,220,211,1375,1713,30485,34200,31900,29201,1708,1398,957,1386,18110,16549,19176,20940,1147,957,1075,6015,13061,20687,22852,23999,37727,31710,1355,10676,23421,24435,32105,29512,33389,15711
2612,15829,359,164,158,155,159,155,11739,57082,1047,190,171,176,163,160,1273,7493,272,224,202,204,204,203,1114,7771,280,225,217,221,216,213,1373,1710,30470,34179,31841,29153,1711,1401,954,1384,18099,16526,19158,20915,1147,955,1074,6002,13053,20665,22823,23965,37719,31697,1355,10665,23405,24409,32087,29497,33381,15710
2611,15836,355,161,152,157,154,154,11727,57054,1039,195,170,168,163,162,1273,7498,273,225,203,204,200,204,1113,7769,278,225,215,219,221,213,1375,1711,30524,34266,31861,29203,1717,1402,958,1386,18113,16551,19164,20936,1149,957,1077,6001,13051,20670,22831,23979,37713,31688,1359,10687,23396,24402,32091,29514,33375,15708
2614,15847,360,162,160,160,157,155,11728,57069,1049,193,175,171,163,160,1272,7500,272,224,204,203,202,201,1112,7769,279,226,216,218,217,217,1379,1713,30557,34330,31895,29254,1715,1404,957,1391,18118,16568,19174,20958,1153,959,1074,6002,13049,20670,22835,23992,37694,31689,1358,10698,23376,24397,32087,29520,33365,15709
2615,15864,356,162,154,156,157,157,11723,57060,1041,189,169,171,166,161,1272,7509,271,223,202,205,203,203,1113,7769,279,227,221,217,217,214,1377,1715,30619,34436,31937,29349,1718,1408,960,1397,18135,16601,19197,21003,1155,962,1075,6008,13046,20684,22842,24023,37685,31686,1359,10711,23362,24392,32091,29546,33364,15717
2615,15882,358,161,151,155,158,155,11709,57062,1051,189,174,172,162,163,1272,7520,279,225,203,205,202,205,1111,7776,280,224,217,218,216,216,1377,1720,30690,34580,32005,29482,1725,1414,962,1399,18146,16641,19223,21058,1157,966,1073,6015,13042,20698,22859,24071,37677,31693,1361,10728,23346,24391,32106,29570,33371,15730
2617,15906,355,163,157,157,155,150,11705,57104,1039,193,170,175,162,158,1275,7533,270,227,204,208,203,205,1113,7787,281,225,216,217,220,214,1383,1725,30772,34726,32075,29610,1730,1416,965,1404,18173,16690,19253,21118,1161,967,1075,6027,13043,20721,22879,24127,37681,31700,1360,10743,23333,24393,32119,29605,33383,15739
2619,15938,363,163,160,153,154,155,11708,57155,1050,192,171,174,161,159,1275,7547,273,225,202,205,204,205,1115,7798,280,225,217,218,218,213,1388,1731,30844,34874,32143,29749,1740,1423,970,1407,18194,16740,19285,21183,1164,971,1075,6037,13045,20746,22900,24187,37676,31706,1359,10750,23315,24401,32129,29640,33400,15757
2620,15971,357,162,160,156,157,157,11700,57166,1042,190,174,171,165,160,1275,7565,273,226,207,205,205,203,1112,7803,277,228,218,219,217,214,1390,1737,30916,35023,32231,29896,1741,1424,969,1413,18220,16795,19317,21260,1169,972,1075,6051,13051,20775,22923,24253,37677,31718,1359,10763,23307,24409,32159,29689,33409,15778
2621,15976,361,163,159,157,156,155,11720,57282,1051,187,171,172,165,162,1276,7573,275,225,203,206,203,203,1114,7812,279,240,217,218,218,214,1393,1740,30893,34917,32226,29776,1737,1418,973,1409,18229,16783,19326,21189,1164,970,1074,6061,13078,20807,22934,24234,37697,31726,1360,10775,23317,24422,32168,29674,33405,15754
2617,15911,357,161,157,159,153,155,11747,57235,1041,191,170,176,163,159,1275,7543,273,225,203,208,201,204,1120,7798,277,225,216,218,220,214,1389,1725,30697,34533,32039,29392,1724,1411,969,1402,18168,16643,19245,21012,1156,963,1077,6041,13097,20774,22863,24076,37707,31713,1360,10746,23333,24395,32139,29579,33375,15731
2615,15877,359,161,157,157,155,157,11748,57162,1050,189,168,169,164,161,1277,7533,277,225,204,209,203,203,1116,7783,279,221,217,218,216,213,1381,1719,30590,34328,31871,29154,1717,1405,970,1395,18130,16569,19204,20924,1155,963,1078,6026,13095,20735,22808,23972,37691,31693,1360,10721,23322,24353,32117,29519,33354,15713
2615,15859,356,165,158,163,151,154,11747,57096,1040,192,170,171,163,165,1272,7522,274,225,204,205,202,206,1114,7773,279,225,215,218,219,213,1380,1717,30557,34253,31797,29069,1717,1409,962,1391,18117,16531,19188,20893,1153,963,1076,6015,13091,20711,22782,23925,37685,31683,1361,10709,23311,24329,32106,29502,33337,15705
2612,15868,360,164,158,156,156,156,11727,57059,1050,190,170,171,165,165,1272,7523,272,224,203,206,202,202,1114,7764,282,225,217,217,219,217,1380,1717,30597,34341,31815,29125,1721,1413,963,1393,18123,16549,19201,20917,1157,965,1073,6013,13080,20708,22786,23937,37673,31671,1362,10719,23299,24324,32122,29526,33331,15707
2613,15870,358,163,160,156,153,157,11732,57081,1043,193,171,173,168,160,1274,7529,276,229,205,206,207,203,1113,7767,277,223,217,219,217,213,1386,1727,30631,34391,31835,29171,1730,1420,964,1397,18141,16572,19213,20942,1161,968,1075,6011,13083,20719,22793,23954,37661,31664,1364,10731,23292,24320,32133,29551,33323,15706
2615,15883,359,162,157,157,157,150,11726,57076,1048,191,169,175,163,165,1275,7537,275,225,207,205,206,203,1114,7766,280,226,217,219,217,217,1390,1727,30667,34485,31880,29261,1731,1421,967,1400,18147,16592,19231,20978,1161,970,1074,6016,13082,20730,22797,23982,37641,31660,1367,10740,23283,24325,32152,29574,33327,15713
2616,15904,356,162,160,157,156,153,11716,57085,1039,190,173,175,162,164,1277,7548,271,223,204,207,201,207,1115,7775,277,226,216,218,217,214,1392,1730,30739,34624,31949,29386,1737,1423,969,1406,18170,16637,19257,21037,1164,973,1078,6025,13074,20743,22817,24029,37635,31659,1366,10753,23281,24333,32176,29606,33327,15720
2617,15928,359,164,159,157,158,152,11710,57096,1049,189,168,171,161,164,1276,7558,277,223,206,205,206,204,1113,7778,279,225,216,218,216,218,1397,1739,30817,34773,32023,29521,1744,1430,971,1410,18190,16682,19287,21100,1170,975,1074,6033,13072,20768,22835,24085,37623,31667,1366,10768,23271,24341,32186,29643,33334,15732
2619,15955,356,163,151,157,158,156,11703,57133,1040,191,169,172,162,162,1276,7575,273,229,205,205,203,203,1114,7784,281,225,220,219,218,217,1401,1743,30896,34925,32092,29658,1749,1438,976,1413,18215,16735,19326,21170,1177,981,1076,6044,13073,20792,22864,24152,37613,31676,1367,10785,23261,24346,32211,29683,33339,15742
2619,15995,359,163,157,158,159,155,11704,57181,1050,189,173,173,163,165,1281,7593,277,223,204,207,204,204,1111,7794,278,225,219,219,216,217,1410,1754,30989,35099,32163,29803,1760,1443,981,1421,18248,16800,19361,21246,1180,987,1073,6055,13084,20824,22896,24220,37614,31678,1366,10805,23245,24354,32244,29732,33348,15759
2622,15995,357,160,157,159,159,146,11715,57263,1042,189,171,173,163,160,1279,7606,275,227,204,207,203,202,1114,7797,280,225,216,219,217,213,1413,1759,31015,35072,32181,29722,1756,1442,985,1427,18271,16809,19379,21205,1180,980,1077,6067,13107,20855,22917,24219,37629,31690,1368,10814,23244,24359,32279,29739,33339,15741
2617,15931,359,163,156,160,155,157,11736,57193,1051,190,171,174,162,162,1280,7575,275,226,206,207,202,203,1113,7773,279,226,217,220,216,213,1412,1750,30805,34645,31988,29317,1746,1435,986,1417,18209,16677,19293,21014,1174,982,1077,6048,13127,20823,22833,24053,37626,31668,1369,10795,23260,24330,32254,29657,33291,15704
2613,15893,356,162,157,160,159,154,11730,57081,1039,190,171,173,162,163,1277,7556,273,226,203,207,202,203,1111,7753,278,226,221,219,217,213,1405,1739,30684,34397,31786,29013,1738,1429,982,1413,18179,16597,19245,20907,1172,980,1076,6031,13125,20770,22767,23931,37609,31647,1370,10774,23243,24278,32243,29604,33249,15677
2609,15858,357,161,157,162,158,154,11734,57029,1048,189,174,173,164,179,1278,7541,273,225,205,204,203,205,1111,7740,274,225,217,218,216,214,1402,1735,30618,34263,31685,28869,1736,1431,983,1407,18161,16548,19219,20854,1171,980,1076,6012,13111,20737,22736,23860,37598,31626,1370,10754,23233,24250,32244,29582,33213,15663
2611,15859,356,165,157,156,154,153,11717,56972,1039,193,171,168,166,167,1276,7543,277,230,204,205,206,206,1111,7727,278,225,216,219,216,213,1402,1734,30629,34299,31688,28919,1735,1429,980,1408,18159,16540,19229,20875,1170,980,1077,6007,13104,20727,22738,23863,37582,31622,1376,10751,23225,24244,32263,29617,33207,15659
2611,15868,361,164,158,155,154,154,11710,56979,1048,190,169,175,164,159,1275,7546,274,224,206,205,202,203,1108,7725,281,226,217,221,217,214,1402,1735,30664,34365,31743,28985,1740,1428,979,1409,18165,16557,19250,20903,1171,980,1074,6012,13103,20735,22745,23881,37575,31620,1372,10757,23221,24238,32278,29638,33192,15658
2609,15870,357,161,162,156,156,154,11714,56974,1038,188,175,174,159,158,1273,7550,274,225,207,205,204,204,1109,7727,278,226,217,219,217,213,1401,1736,30686,34423,31793,29065,1738,1428,979,1411,18174,16564,19265,20939,1171,980,1077,6010,13099,20739,22753,23905,37570,31615,1372,10757,23219,24242,32287,29649,33195,15659
2609,15890,358,161,160,158,155,154,11705,56992,1048,193,170,174,165,157,1274,7562,274,225,203,205,205,204,1107,7734,281,229,217,218,218,214,1399,1738,30724,34526,31865,29189,1741,1433,977,1411,18180,16595,19290,20990,1173,980,1073,6020,13100,20757,22773,23947,37573,31623,1370,10757,23223,24254,32294,29672,33209,15675
2614,15905,357,162,158,155,160,158,11701,57017,1038,189,168,171,163,161,1277,7569,273,225,204,205,203,203,1112,7741,278,226,220,217,218,214,1401,1743,30776,34647,31950,29325,1743,1430,981,1413,18201,16641,19327,21050,1178,986,1076,6027,13100,20778,22800,24002,37580,31635,1373,10765,23231,24273,32310,29699,33225,15687
2612,15927,359,162,159,157,154,156,11698,57035,1048,191,169,172,164,161,1279,7584,275,225,205,206,203,203,1111,7749,280,226,217,219,218,213,1402,1744,30831,34770,32026,29465,1748,1437,984,1417,18216,16681,19359,21110,1177,984,1075,6038,13098,20800,22833,24061,37579,31643,1374,10774,23233,24293,32321,29725,33237,15698
2613,15951,353,163,158,156,155,155,11693,57063,1041,194,169,174,167,160,1279,7602,275,229,204,209,205,206,1110,7759,279,225,221,219,222,217,1414,1761,30893,34894,32092,29587,1768,1451,988,1426,18248,16736,19389,21172,1188,993,1075,6047,13104,20823,22859,24114,37582,31651,1375,10789,23222,24293,32324,29750,33248,15712
2618,15987,360,162,156,157,154,155,11695,57117,1051,191,173,172,159,161,1280,7621,277,225,204,206,205,204,1110,7769,279,225,221,219,218,214,1421,1766,30937,34976,32161,29663,1762,1444,996,1434,18282,16783,19422,21211,1186,987,1075,6057,13106,20849,22888,24162,37591,31666,1375,10807,23227,24318,32358,29782,33264,15714
2614,15939,360,162,158,156,159,158,11734,57169,1042,188,168,171,162,163,1280,7604,274,223,203,204,201,205,1111,7759,278,227,219,218,216,213,1413,1753,30765,34596,32039,29309,1744,1430,986,1421,18234,16667,19364,21029,1177,985,1078,6046,13133,20834,22823,24020,37602,31655,1375,10785,23260,24316,32345,29706,33234,15687
2609,15888,359,162,159,155,155,156,11733,57056,1048,189,174,174,163,164,1279,7577,273,226,204,205,201,202,1112,7742,279,225,217,219,217,216,1402,1736,30584,34265,31809,28953,1730,1422,981,1408,18179,16555,19301,20899,1168,977,1077,6025,13131,20781,22746,23873,37599,31632,1375,10745,23261,24269,32336,29640,33203,15656
2606,15851,355,163,161,156,155,155,11735,56992,1038,189,171,175,162,158,1276,7561,274,224,204,204,202,202,1112,7725,277,228,217,219,219,213,1393,1728,30500,34083,31675,28752,1724,1418,975,1399,18146,16481,19262,20819,1163,973,1077,6004,13125,20733,22699,23781,37582,31613,1375,10718,23249,24233,32324,29602,33177,15637
2603,15835,356,166,158,156,158,157,11730,56931,1046,190,170,171,163,159,1275,7554,274,224,206,206,202,202,1110,7709,277,226,217,216,218,213,1389,1724,30485,34067,31655,28742,1722,1418,973,1399,18127,16455,19251,20808,1162,974,1076,5992,13111,20713,22678,23758,37562,31599,1375,10697,23232,24206,32331,29607,33161,15631
2603,15841,355,161,160,159,158,155,11721,56919,1037,191,174,169,164,161,1274,7558,271,225,205,206,199,200,1109,7705,277,224,217,219,216,216,1392,1722,30538,34152,31700,28809,1723,1421,974,1399,18133,16466,19262,20834,1168,975,1075,5992,13106,20711,22689,23774,37553,31590,1376,10704,23219,24190,32348,29627,33156,15630
2603,15842,357,163,160,156,155,157,11717,56914,1045,193,171,173,163,164,1275,7559,274,225,204,204,201,202,1110,7701,278,225,217,217,219,213,1392,1727,30562,34206,31741,28871,1726,1419,974,1401,18134,16471,19279,20860,1166,974,1073,5991,13102,20709,22696,23783,37537,31585,1376,10712,23211,24186,32350,29639,33141,15629
2605,15853,354,163,156,157,157,156,11711,56911,1037,190,170,175,163,160,1274,7563,274,224,203,208,201,203,1109,7700,278,225,219,218,219,214,1393,1726,30609,34304,31802,28986,1729,1422,976,1401,18138,16495,19297,20903,1166,974,1075,5995,13102,20719,22707,23821,37527,31583,1379,10717,23211,24195,32354,29656,33155,15635
2603,15867,359,161,159,157,156,157,11707,56940,1047,191,172,173,161,156,1276,7575,274,222,203,204,206,201,1109,7707,277,228,219,217,218,213,1396,1731,30681,34441,31876,29113,1735,1425,976,1405,18156,16539,19322,20961,1169,977,1074,5998,13095,20733,22736,23869,37514,31584,1378,10719,23213,24203,32370,29687,33165,15647
2606,15893,357,162,158,156,156,155,11707,56975,1037,192,166,171,166,153,1277,7591,271,224,204,205,207,202,1109,7718,281,225,217,219,217,214,1395,1735,30753,34574,31967,29253,1738,1426,977,1407,18185,16582,19356,21019,1170,979,1076,6009,13098,20758,22763,23931,37515,31595,1383,10730,23214,24223,32393,29721,33181,15660
2608,15921,358,162,157,157,156,157,11705,57010,1047,193,173,171,162,162,1277,7608,275,225,202,205,203,203,1111,7725,279,227,219,218,217,212,1398,1741,30816,34707,32054,29393,1745,1429,979,1411,18201,16627,19392,21082,1173,980,1074,6022,13104,20787,22792,23987,37514,31604,1379,10741,23227,24251,32411,29751,33202,15675
2611,15957,357,162,156,157,155,155,11698,57032,1038,189,169,170,163,162,1279,7624,272,224,205,209,203,205,1112,7740,281,228,219,219,220,213,1401,1745,30891,34852,32150,29543,1750,1433,980,1416,18234,16681,19432,21153,1177,984,1079,6035,13110,20820,22825,24053,37519,31626,1382,10756,23234,24277,32439,29801,33227,15695
2613,15975,359,162,158,157,157,154,11703,57106,1050,190,172,170,166,161,1279,7641,274,227,204,207,203,202,1112,7757,279,225,217,217,215,213,1403,1748,30922,34853,32183,29512,1745,1428,983,1420,18256,16706,19460,21146,1175,978,1076,6048,13122,20841,22853,24077,37540,31630,1383,10773,23258,24299,32465,29806,33241,15690
2607,15909,357,162,162,156,159,157,11737,57096,1038,191,171,172,164,166,1278,7613,273,227,204,213,202,203,1113,7739,280,224,217,218,216,212,1396,1735,30702,34419,32009,29103,1728,1417,982,1411,18196,16566,19383,20957,1168,976,1078,6026,13143,20802,22775,23903,37549,31613,1386,10740,23279,24281,32449,29723,33212,15663
2603,15861,357,162,161,157,160,153,11739,56999,1046,190,171,176,163,163,1277,7591,271,224,201,206,203,201,1115,7719,277,225,217,221,216,214,1389,1722,30543,34125,31798,28783,1719,1412,973,1397,18146,16467,19331,20834,1161,969,1077,6001,13135,20747,22709,23767,37532,31594,1383,10699,23276,24241,32437,29667,33191,15640
2600,15822,355,163,157,157,159,155,11736,56924,1036,191,171,175,163,164,1277,7578,272,223,203,207,200,206,1113,7704,278,223,216,217,218,212,1383,1717,30471,33954,31695,28622,1713,1408,971,1388,18117,16401,19295,20767,1158,968,1079,5988,13123,20693,22673,23689,37508,31566,1383,10661,23264,24198,32421,29619,33171,15627
2599,15812,356,162,157,157,154,155,11729,56850,1045,189,173,171,164,159,1275,7573,276,224,204,204,199,205,1112,7685,277,225,219,218,216,213,1380,1714,30473,33971,31709,28663,1714,1413,967,1387,18097,16379,19299,20780,1159,968,1073,5981,13105,20672,22660,23667,37499,31562,1382,10638,23257,24180,32423,29625,33166,15627
2595,15815,355,161,157,158,159,158,11690,56751,1033,189,171,175,163,161,1274,7572,273,224,201,208,201,202,1107,7672,278,226,215,217,217,213,1383,1715,30503,34028,31754,28731,1717,1409,972,1389,18089,16379,19316,20803,1159,967,1076,5978,13098,20656,22656,23680,37501,31558,1383,10646,23255,24180,32445,29643,33173,15631
2595,15822,358,165,158,156,155,158,11691,56767,1043,189,169,170,163,162,1272,7573,273,226,207,204,207,202,1107,7672,276,223,215,215,216,213,1384,1712,30525,34077,31777,28775,1715,1410,968,1388,18090,16387,19319,20818,1159,967,1075,5969,13092,20658,22655,23690,37493,31561,1381,10649,23245,24171,32441,29649,33157,15632
2600,15853,357,162,157,155,155,155,11702,56819,1035,189,169,170,165,160,1273,7583,271,224,200,203,205,208,1109,7680,277,224,218,218,215,212,1382,1710,30575,34179,31817,28862,1716,1411,969,1389,18100,16416,19333,20859,1160,966,1076,5970,13101,20677,22686,23733,37483,31557,1385,10648,23238,24167,32447,29666,33158,15633
2603,15889,359,162,159,157,156,155,11713,56889,1046,190,175,177,165,161,1274,7607,272,224,209,204,201,202,1109,7683,278,224,216,218,216,213,1384,1721,30659,34333,31891,28987,1726,1418,968,1391,18133,16466,19365,20913,1167,974,1075,5986,13113,20714,22719,23790,37473,31564,1384,10655,23231,24172,32458,29695,33171,15646
2606,15922,358,163,159,156,155,158,11709,56907,1036,191,171,172,162,163,1276,7623,273,223,204,204,200,202,1107,7687,278,223,217,217,219,213,1393,1730,30751,34484,31980,29124,1739,1429,977,1401,18167,16511,19400,20978,1173,983,1077,5999,13123,20743,22750,23837,37482,31573,1385,10677,23225,24184,32471,29727,33182,15657
2607,15952,359,162,159,156,155,158,11696,56905,1044,188,169,173,161,161,1278,7635,276,226,205,205,206,203,1106,7683,275,223,215,218,217,214,1405,1745,30807,34603,32081,29267,1760,1449,985,1410,18189,16563,19439,21038,1190,998,1078,6015,13136,20771,22766,23887,37470,31576,1387,10692,23219,24190,32489,29761,33193,15670
2611,15974,357,163,158,156,156,154,11683,56902,1037,188,170,171,161,161,1280,7655,274,225,202,206,202,203,1107,7694,277,225,219,217,216,210,1423,1767,30919,34796,32173,29425,1789,1484,1002,1433,18238,16633,19485,21111,1214,1023,1081,6025,13133,20783,22797,23957,37469,31586,1392,10715,23210,24198,32508,29801,33196,15686
2613,16006,361,161,161,157,157,156,11681,56950,1046,191,171,171,163,158,1281,7668,275,225,203,207,203,206,1106,7706,278,228,219,218,218,215,1459,1807,31046,34955,32255,29541,1825,1517,1029,1464,18304,16718,19524,21163,1241,1047,1079,6042,13133,20807,22826,24023,37451,31581,1389,10744,23205,24212,32530,29831,33210,15691
2611,15951,357,163,161,159,155,158,11699,56963,1036,193,174,174,162,162,1281,7652,275,226,207,206,201,203,1109,7701,279,225,217,217,218,214,1490,1830,30911,34600,32087,29186,1833,1521,1051,1479,18290,16635,19464,20993,1249,1058,1083,6039,13170,20806,22769,23895,37463,31575,1395,10742,23214,24194,32497,29757,33167,15654
2604,15885,359,161,157,160,155,159,11687,56801,1044,192,173,172,161,161,1279,7625,276,223,203,206,204,204,1109,7677,280,226,219,218,218,215,1493,1826,30760,34276,31869,28823,1827,1521,1058,1481,18249,16535,19393,20851,1252,1059,1082,6019,13157,20728,22699,23750,37438,31554,1399,10714,23187,24132,32447,29686,33128,15624
2597,15850,355,163,157,159,158,155,11681,56723,1034,188,171,177,164,158,1278,7615,274,225,205,207,203,203,1109,7661,277,227,217,218,217,213,1495,1824,30706,34116,31718,28611,1826,1525,1066,1478,18241,16481,19350,20764,1255,1062,1085,6005,13162,20696,22651,23663,37443,31541,1395,10683,23177,24090,32433,29644,33097,15606
2597,15852,357,165,157,157,156,154,11682,56679,1045,189,170,172,163,161,1277,7600,276,224,204,207,205,199,1103,7647,278,225,217,219,219,213,1501,1827,30701,34095,31668,28575,1836,1532,1064,1480,18230,16456,19343,20758,1258,1065,1082,5992,13168,20694,22629,23630,37458,31551,1395,10671,23167,24072,32443,29650,33097,15611
2599,15869,356,162,158,157,156,155,11663,56621,1033,189,171,174,166,161,1274,7599,275,226,201,208,203,203,1104,7640,276,226,216,219,212,216,1509,1831,30728,34147,31707,28648,1834,1529,1067,1483,18229,16455,19367,20792,1257,1064,1082,5991,13179,20703,22636,23634,37455,31534,1399,10688,23161,24063,32460,29675,33087,15607
2599,15873,359,163,159,159,157,158,11651,56563,1041,190,175,172,165,162,1275,7613,274,226,205,203,199,199,1103,7631,277,226,222,219,220,213,1501,1826,30746,34173,31769,28724,1831,1525,1065,1483,18236,16459,19377,20807,1258,1065,1081,5999,13160,20674,22665,23673,37423,31521,1398,10683,23138,24031,32438,29669,33063,15599
2601,15885,356,161,161,156,157,153,11647,56586,1032,190,172,173,162,163,1278,7624,274,225,205,205,202,206,1104,7634,279,225,218,222,221,213,1500,1830,30806,34275,31823,28817,1843,1534,1068,1486,18267,16490,19391,20840,1262,1072,1085,6010,13165,20689,22692,23711,37429,31527,1401,10683,23123,24030,32435,29673,33076,15609
2604,15919,359,162,158,160,155,155,11654,56633,1043,193,171,172,166,159,1276,7635,279,225,203,205,206,207,1106,7643,276,229,219,218,219,213,1509,1838,30882,34414,31906,28954,1847,1543,1071,1491,18290,16525,19419,20883,1268,1075,1081,6011,13170,20711,22716,23760,37437,31537,1402,10691,23129,24043,32439,29696,33092,15622
2607,15947,357,162,157,157,155,157,11646,56647,1033,189,169,174,163,162,1276,7649,276,226,205,210,205,205,1103,7648,278,226,219,213,220,214,1515,1846,30951,34549,32009,29101,1858,1548,1077,1497,18319,16571,19455,20950,1271,1081,1083,6019,13177,20728,22747,23820,37444,31542,1403,10709,23134,24060,32455,29734,33109,15639
2607,15961,358,162,158,156,156,154,11650,56695,1043,187,168,174,166,163,1281,7669,286,231,210,208,205,205,1107,7665,278,226,217,219,220,218,1521,1854,31006,34660,32122,29267,1853,1539,1082,1502,18349,16615,19512,21026,1270,1073,1083,6027,13185,20764,22789,23887,37464,31556,1405,10727,23147,24089,32508,29791,33148,15658
2605,15985,358,163,157,156,155,155,11657,56769,1035,188,168,171,162,159,1281,7691,277,225,205,207,203,204,1107,7689,278,229,215,219,217,214,1509,1846,31033,34769,32275,29463,1846,1534,1073,1499,18379,16657,19571,21110,1264,1069,1085,6041,13193,20793,22840,23962,37489,31577,1403,10731,23200,24144,32572,29862,33190,15682
2610,16026,363,162,158,155,155,155,11651,56790,1044,191,173,175,163,157,1282,7711,278,227,205,207,204,206,1107,7711,279,227,219,221,213,216,1509,1846,31108,34930,32389,29614,1848,1535,1071,1500,18418,16718,19614,21179,1265,1068,1083,6057,13195,20819,22888,24035,37513,31595,1402,10739,23233,24187,32635,29924,33237,15701
2610,15999,359,164,161,160,155,155,11686,56887,1039,193,173,172,163,160,1283,7701,279,230,206,207,204,207,1111,7714,278,226,217,218,221,217,1505,1839,31002,34639,32287,29310,1837,1522,1070,1496,18398,16640,19570,21025,1257,1062,1087,6051,13225,20817,22861,23937,37545,31599,1403,10741,23269,24196,32644,29870,33227,15678
2605,15951,361,163,160,155,159,155,11698,56801,1045,189,171,172,163,165,1281,7679,276,230,204,206,205,203,1112,7697,282,224,218,219,216,211,1494,1827,30819,34286,32052,28922,1821,1509,1064,1486,18339,16526,19501,20881,1250,1058,1085,6028,13223,20760,22788,23781,37544,31582,1403,10710,23274,24157,32613,29800,33211,15659
2604,15929,356,163,161,157,156,154,11698,56729,1034,190,173,171,162,158,1279,7663,274,226,206,205,203,204,1111,7680,278,222,217,221,221,212,1485,1811,30727,34081,31935,28735,1807,1499,1058,1473,18314,16457,19479,20815,1241,1050,1085,6012,13217,20717,22751,23695,37540,31567,1405,10679,23275,24128,32602,29767,33204,15647
2601,15921,358,164,157,159,157,157,11687,56645,1041,188,169,173,166,161,1277,7656,276,226,209,207,203,203,1109,7663,277,225,217,217,219,212,1471,1799,30668,34011,31933,28734,1797,1491,1050,1464,18293,16418,19478,20807,1239,1045,1084,6002,13209,20687,22746,23670,37537,31554,1401,10655,23274,24113,32608,29749,33207,15650
2603,15929,356,162,157,155,155,155,11673,56599,1032,188,170,174,162,161,1277,7656,276,226,205,209,203,203,1107,7660,277,225,217,218,213,211,1463,1794,30696,34077,32004,28823,1793,1488,1049,1463,18301,16431,19499,20841,1235,1042,1086,5998,13198,20675,22775,23694,37538,31559,1407,10653,23273,24111,32621,29765,33221,15661
2602,15938,359,168,157,155,156,154,11676,56609,1041,190,169,174,165,162,1278,7663,276,225,206,207,204,205,1107,7659,277,225,213,220,219,214,1461,1789,30707,34113,32059,28899,1790,1482,1044,1461,18310,16435,19515,20863,1235,1043,1083,5999,13200,20673,22790,23714,37541,31554,1405,10657,23279,24113,32623,29767,33237,15665
2603,15952,357,162,158,159,156,155,11667,56593,1032,191,170,175,162,164,1279,7670,276,226,205,209,201,207,1109,7657,277,225,215,217,219,213,1456,1788,30747,34201,32121,29009,1791,1485,1043,1459,18320,16460,19534,20902,1234,1043,1085,5999,13203,20679,22817,23753,37543,31555,1408,10664,23279,24113,32627,29786,33246,15678
2605,15975,359,159,158,156,155,158,11665,56603,1043,189,167,173,162,160,1277,7682,278,225,208,207,202,204,1109,7665,279,224,218,217,217,214,1455,1792,30823,34343,32213,29156,1793,1484,1045,1465,18347,16506,19556,20955,1237,1043,1084,6007,13199,20693,22853,23816,37545,31560,1408,10685,23275,24117,32632,29814,33261,15691
2607,16006,358,163,158,155,154,157,11662,56653,1033,193,171,175,167,161,1280,7697,276,228,204,207,207,203,1109,7677,278,224,220,215,216,213,1455,1794,30907,34497,32307,29305,1795,1486,1045,1467,18389,16559,19597,21021,1239,1043,1091,6023,13211,20720,22900,23890,37553,31572,1410,10699,23275,24130,32650,29842,33281,15709
2607,16038,361,162,158,157,157,155,11666,56694,1043,188,169,171,162,159,1280,7713,276,229,204,207,204,205,1108,7693,277,223,217,217,215,213,1457,1795,30983,34641,32411,29454,1799,1483,1047,1468,18418,16604,19631,21083,1239,1044,1086,6038,13218,20757,22942,23955,37569,31587,1407,10714,23293,24155,32673,29877,33311,15725
2610,16073,359,161,160,155,153,156,11657,56713,1034,197,171,170,163,160,1279,7728,277,227,205,207,205,204,1109,7699,278,225,217,217,216,213,1456,1797,31061,34778,32513,29615,1795,1483,1046,1474,18454,16658,19673,21156,1240,1045,1087,6049,13230,20789,22984,24033,37592,31607,1411,10733,23311,24191,32709,29932,33345,15751
2614,16105,364,163,161,159,155,164,11649,56741,1044,189,171,171,161,161,1280,7747,276,226,205,205,204,204,1108,7718,278,225,217,217,216,214,1454,1797,31119,34891,32607,29740,1794,1473,1045,1473,18483,16707,19720,21222,1237,1041,1085,6062,13247,20829,23041,24109,37612,31623,1409,10754,23327,24222,32747,29974,33398,15766
2611,16068,359,163,157,156,157,159,11686,56854,1036,185,171,171,160,161,1283,7740,277,227,204,207,204,205,1113,7727,270,226,216,217,215,213,1444,1786,30977,34565,32530,29438,1775,1461,1037,1465,18458,16627,19684,21070,1225,1029,1087,6054,13286,20836,23030,24015,37660,31635,1412,10746,23380,24237,32745,29916,33395,15752
2603,16003,362,162,158,157,154,153,11700,56769,1044,192,168,171,165,160,1279,7710,277,225,208,206,204,203,1114,7711,279,227,215,217,213,211,1436,1769,30763,34162,32289,29040,1760,1450,1032,1451,18391,16489,19610,20919,1217,1021,1087,6032,13289,20775,22958,23852,37677,31628,1411,10700,23400,24217,32735,29849,33400,15732
2604,15979,356,162,166,157,157,166,11700,56674,1033,189,172,169,167,164,1279,7692,274,225,204,206,205,205,1115,7700,279,223,217,217,216,211,1421,1757,30653,33942,32146,28817,1745,1440,1024,1439,18359,16415,19579,20836,1209,1016,1089,6013,13280,20726,22920,23758,37673,31610,1413,10665,23408,24190,32733,29812,33401,15725
2602,15966,360,163,157,154,155,154,11698,56621,1043,193,171,171,163,161,1276,7683,277,225,204,207,203,203,1113,7687,276,227,218,217,221,213,1413,1744,30607,33863,32109,28781,1741,1435,1017,1429,18335,16371,19566,20811,1203,1011,1086,6001,13273,20693,22923,23736,37670,31600,1407,10634,23405,24165,32728,29790,33405,15726
2601,15976,358,162,161,157,158,156,11693,56591,1032,188,174,170,165,166,1275,7687,275,225,207,205,204,207,1108,7684,278,223,215,217,215,212,1407,1741,30644,33935,32174,28876,1737,1429,1013,1428,18346,16379,19599,20859,1200,1007,1087,6001,13269,20695,22951,23765,37687,31607,1408,10629,23414,24182,32759,29807,33444,15745
2599,15985,363,163,156,157,153,154,11695,56595,1040,189,169,170,164,159,1276,7688,277,226,206,204,203,204,1116,7693,277,224,215,217,218,212,1401,1734,30639,33951,32247,28957,1731,1423,1010,1423,18331,16368,19632,20896,1195,1001,1086,5998,13271,20695,22973,23787,37696,31610,1407,10619,23458,24204,32778,29815,33477,15755
2599,15995,359,168,161,156,156,154,11693,56601,1034,194,171,172,161,161,1274,7693,276,228,207,206,202,205,1113,7698,276,223,215,216,215,211,1394,1731,30658,34018,32313,29062,1728,1419,1002,1421,18339,16385,19648,20934,1191,999,1087,5995,13264,20698,23017,23831,37709,31619,1411,10613,23480,24215,32793,29829,33507,15770
2599,16015,359,163,154,158,156,155,11698,56651,1041,188,168,172,164,166,1275,7703,278,229,208,205,204,203,1114,7707,277,223,214,217,217,213,1394,1729,30724,34162,32396,29205,1730,1421,1005,1420,18359,16432,19674,20992,1194,1002,1086,6002,13262,20715,23054,23900,37713,31620,1406,10620,23490,24235,32794,29848,33530,15788
2605,16049,358,158,157,159,155,155,11696,56681,1034,190,171,175,166,165,1274,7716,276,224,203,209,207,205,1115,7720,278,226,216,216,215,212,1395,1735,30811,34314,32481,29354,1736,1425,1002,1425,18395,16480,19699,21054,1196,1003,1087,6013,13262,20729,23099,23967,37719,31633,1408,10633,23503,24258,32803,29873,33553,15804
2605,16080,361,161,158,155,155,158,11695,56719,1044,190,169,173,163,161,1276,7735,278,226,206,206,203,204,1115,7731,277,223,215,217,214,211,1399,1742,30896,34471,32569,29502,1742,1430,1002,1428,18426,16542,19726,21118,1197,1003,1085,6028,13263,20755,23133,24037,37729,31649,1408,10651,23508,24278,32818,29906,33577,15823
2608,16115,361,163,158,168,157,158,11696,56757,1037,188,173,172,166,161,1276,7748,277,226,206,207,204,204,1115,7735,275,225,216,216,217,212,1404,1749,30962,34599,32643,29639,1755,1444,1004,1435,18465,16603,19757,21175,1207,1009,1089,6045,13274,20789,23158,24105,37732,31653,1407,10671,23517,24300,32833,29941,33597,15841
2611,16145,361,164,157,155,159,154,11682,56775,1045,191,175,173,163,157,1276,7763,277,226,204,206,204,207,1114,7750,278,224,216,217,215,213,1414,1762,31066,34783,32723,29797,1769,1451,1012,1441,18511,16671,19791,21250,1213,1017,1087,6061,13275,20809,23185,24173,37742,31673,1411,10696,23508,24311,32859,29986,33614,15857
2612,16188,361,164,159,150,159,155,11679,56826,1036,193,168,168,168,161,1279,7781,278,228,204,206,204,205,1113,7760,286,225,220,217,217,215,1425,1773,31185,34963,32791,29898,1777,1461,1021,1453,18580,16762,19831,21306,1221,1020,1086,6075,13279,20841,23220,24238,37749,31684,1413,10729,23498,24318,32901,30035,33643,15871
2611,16147,360,163,157,157,159,150,11730,56954,1046,189,174,170,163,161,1279,7770,278,225,205,210,202,203,1116,7756,277,224,217,217,215,213,1430,1773,31071,34638,32653,29531,1767,1453,1024,1449,18567,16676,19765,21114,1215,1019,1089,6075,13312,20831,23173,24113,37767,31679,1415,10735,23509,24303,32885,29968,33611,15836
2607,16093,359,163,159,159,156,156,11725,56831,1035,188,174,175,163,158,1277,7741,275,226,206,209,202,203,1116,7735,279,224,216,216,217,213,1425,1764,30900,34273,32377,29104,1760,1450,1026,1445,18517,16557,19683,20955,1212,1021,1093,6055,13310,20772,23071,23936,37777,31665,1418,10715,23496,24255,32872,29907,33577,15815
2607,16058,358,161,161,159,156,155,11723,56726,1044,190,170,172,161,159,1275,7724,279,226,203,205,206,208,1120,7711,276,223,216,218,216,212,1424,1760,30815,34074,32209,28860,1759,1450,1023,1440,18483,16487,19643,20867,1212,1020,1092,6045,13302,20717,23009,23823,37766,31643,1417,10702,23476,24215,32868,29871,33548,15794
2602,16045,358,163,155,159,156,155,11711,56645,1032,190,169,175,163,160,1272,7711,276,225,203,207,203,202,1112,7689,275,228,219,216,219,213,1425,1763,30793,34025,32167,28819,1758,1451,1022,1437,18474,16455,19637,20851,1210,1019,1090,6031,13297,20689,22984,23794,37762,31635,1421,10693,23467,24183,32886,29874,33537,15793
2603,16059,362,158,159,160,158,154,11705,56621,1042,188,171,173,163,157,1274,7720,275,226,207,205,203,206,1113,7690,277,224,216,217,215,213,1421,1759,30855,34133,32215,28904,1761,1454,1022,1439,18492,16479,19653,20882,1213,1019,1088,6032,13294,20697,23012,23822,37761,31635,1419,10701,23460,24181,32909,29889,33537,15798
2602,16070,359,165,158,158,157,154,11703,56618,1032,194,172,162,164,161,1272,7719,277,229,205,205,202,202,1110,7687,277,217,216,217,214,213,1426,1762,30910,34207,32276,28995,1761,1453,1023,1442,18509,16495,19670,20907,1216,1017,1087,6034,13296,20701,23025,23837,37757,31627,1421,10707,23463,24177,32919,29903,33538,15796
2603,16083,361,162,157,157,156,156,11693,56593,1040,195,171,172,165,161,1271,7724,281,227,204,205,204,203,1108,7684,279,226,217,217,219,215,1425,1765,30959,34314,32336,29103,1765,1456,1024,1445,18526,16522,19689,20954,1220,1026,1087,6038,13298,20713,23043,23884,37759,31627,1423,10717,23463,24185,32925,29925,33539,15799
2599,16104,361,163,157,156,157,155,11679,56586,1031,189,177,173,162,165,1272,7735,276,223,205,207,204,204,1107,7689,277,227,216,216,218,216,1429,1767,31046,34472,32427,29255,1773,1462,1030,1450,18559,16571,19714,21012,1222,1029,1091,6050,13294,20725,23073,23945,37755,31633,1424,10732,23463,24198,32941,29953,33547,15815
2606,16129,363,165,154,160,156,154,11680,56641,1042,189,169,173,167,175,1272,7748,275,225,204,207,203,203,1109,7700,276,231,217,217,218,214,1433,1773,31141,34641,32522,29415,1777,1468,1032,1455,18594,16629,19749,21079,1228,1034,1089,6059,13300,20758,23115,24020,37761,31637,1423,10748,23473,24214,32955,29987,33560,15829
2609,16161,361,162,157,158,154,155,11677,56674,1033,190,176,177,166,162,1272,7766,276,226,205,210,206,204,1109,7711,277,226,217,218,215,212,1437,1783,31228,34794,32617,29564,1780,1467,1031,1459,18633,16684,19789,21151,1228,1035,1091,6077,13309,20791,23155,24101,37775,31653,1424,10768,23471,24236,32983,30025,33579,15847
2608,16191,365,161,161,156,156,155,11677,56714,1043,193,171,176,163,162,1273,7783,278,226,205,206,203,203,1108,7725,279,227,217,218,219,215,1439,1786,31303,34948,32697,29715,1787,1469,1033,1464,18662,16741,19832,21223,1233,1039,1088,6090,13311,20819,23196,24170,37787,31668,1423,10787,23486,24263,33011,30065,33607,15862
2611,16225,359,165,157,157,156,154,11671,56743,1033,189,171,174,159,162,1274,7799,277,227,205,210,204,206,1111,7732,280,223,215,217,216,212,1443,1790,31384,35093,32770,29857,1788,1471,1038,1469,18697,16795,19867,21289,1235,1039,1092,6102,13317,20857,23230,24245,37810,31692,1425,10809,23493,24292,33039,30115,33631,15879
2612,16272,364,160,159,157,158,157,11666,56795,1043,192,170,165,162,159,1275,7819,279,227,208,207,203,207,1108,7747,278,225,216,217,216,213,1445,1795,31467,35274,32843,30012,1796,1476,1040,1475,18736,16864,19908,21371,1239,1041,1090,6115,13325,20892,23267,24325,37825,31703,1425,10831,23501,24322,33072,30167,33660,15903
2614,16273,361,162,159,158,155,157,11694,56964,1037,189,175,170,165,162,1276,7836,278,227,209,206,207,205,1109,7763,276,226,217,217,215,211,1449,1796,31472,35209,32855,29923,1790,1469,1045,1475,18765,16876,19928,21331,1236,1037,1093,6129,13352,20933,23305,24338,37867,31729,1427,10845,23527,24346,33114,30173,33681,15895
2610,16209,365,162,162,158,157,155,11732,56953,1046,191,171,170,171,160,1275,7800,277,226,203,206,202,202,1111,7749,278,227,217,218,216,213,1442,1783,31223,34722,32633,29453,1775,1460,1038,1465,18696,16723,19830,21117,1228,1030,1094,6116,13384,20897,23225,24157,37892,31725,1427,10815,23558,24330,33087,30077,33662,15871
2608,16177,360,162,157,156,157,159,11727,56845,1035,190,168,174,169,161,1274,7784,277,226,204,209,204,204,1112,7730,276,227,217,216,217,212,1431,1772,31069,34425,32409,29119,1767,1452,1032,1456,18654,16629,19777,21000,1222,1028,1094,6100,13389,20860,23156,24022,37896,31708,1429,10791,23563,24304,33085,30036,33653,15862
2603,16151,361,165,157,157,155,154,11723,56778,1046,190,171,173,163,158,1273,7771,277,224,205,207,203,207,1109,7712,278,224,216,218,215,213,1427,1765,31000,34283,32294,28965,1762,1454,1029,1452,18629,16577,19760,20948,1221,1025,1091,6085,13379,20828,23127,23955,37898,31699,1429,10775,23555,24283,33101,30023,33639,15848
2604,16157,358,162,158,158,155,155,11712,56722,1033,188,169,175,165,159,1270,7766,276,226,205,208,208,202,1110,7704,278,225,218,219,216,212,1427,1763,31020,34336,32315,29020,1762,1454,1029,1450,18635,16576,19772,20970,1223,1025,1092,6076,13377,20818,23139,23970,37890,31697,1432,10773,23557,24278,33127,30047,33649,15850
2604,16167,363,163,158,161,155,155,11709,56726,1043,190,171,171,164,162,1271,7771,279,227,205,205,203,204,1109,7707,276,224,217,217,217,213,1425,1767,31070,34415,32372,29106,1764,1454,1030,1453,18651,16602,19792,21011,1221,1029,1091,6078,13374,20828,23166,24001,37898,31695,1431,10783,23563,24289,33157,30077,33658,15853
2604,16177,360,161,159,156,158,157,11706,56729,1033,189,174,172,162,163,1270,7776,276,228,207,206,204,205,1108,7707,278,224,217,218,216,212,1427,1768,31115,34501,32433,29201,1767,1454,1029,1454,18666,16618,19814,21043,1222,1030,1093,6083,13377,20837,23187,24038,37897,31698,1434,10791,23570,24292,33175,30093,33666,15863
2605,16193,363,163,160,158,155,156,11701,56742,1043,188,170,172,160,159,1270,7783,277,227,204,206,205,208,1107,7713,277,223,215,218,216,212,1429,1772,31173,34641,32511,29341,1773,1461,1030,1458,18692,16660,19839,21100,1226,1031,1091,6090,13377,20859,23222,24093,37897,31703,1433,10805,23576,24307,33194,30118,33681,15876
2606,16225,363,161,158,156,156,155,11699,56769,1035,190,173,169,159,160,1269,7799,277,227,204,207,201,203,1108,7721,276,224,217,218,215,214,1431,1778,31260,34799,32606,29504,1776,1466,1035,1461,18720,16710,19873,21170,1229,1033,1092,6101,13377,20890,23257,24165,37909,31717,1430,10816,23580,24328,33218,30155,33700,15889
2609,16256,364,165,162,157,159,157,11699,56805,1043,189,171,174,159,154,1271,7815,278,225,202,207,204,203,1109,7731,278,225,218,217,215,213,1437,1782,31343,34964,32703,29663,1786,1466,1036,1465,18751,16772,19911,21247,1232,1036,1091,6114,13380,20917,23287,24238,37921,31736,1434,10841,23583,24354,33239,30188,33721,15906
2610,16289,362,160,161,160,155,155,11695,56857,1035,190,170,173,163,165,1272,7829,277,228,206,208,199,204,1107,7746,277,224,216,216,217,216,1441,1793,31421,35120,32785,29815,1792,1474,1040,1472,18787,16829,19951,21323,1235,1039,1091,6123,13392,20957,23327,24314,37937,31745,1433,10860,23590,24377,33265,30229,33747,15922
2612,16323,362,163,157,155,157,155,11700,56914,1045,189,171,174,162,154,1272,7849,279,228,202,210,204,207,1111,7758,279,225,221,217,216,213,1443,1796,31491,35272,32854,29960,1795,1479,1042,1478,18815,16891,19988,21394,1242,1043,1090,6138,13395,20987,23359,24383,37943,31763,1435,10879,23598,24398,33292,30268,33779,15943
2615,16360,363,165,158,159,155,158,11693,56945,1037,189,170,173,163,167,1272,7865,277,228,205,208,204,205,1108,7769,279,224,219,218,218,212,1450,1803,31570,35434,32941,30129,1804,1482,1047,1482,18849,16948,20031,21477,1244,1049,1092,6148,13401,21028,23394,24459,37961,31775,1434,10895,23604,24426,33325,30319,33805,15963
2615,16395,365,165,158,157,159,157,11693,57019,1049,189,174,167,165,161,1273,7886,279,227,205,210,205,206,1108,7788,279,231,217,218,215,213,1454,1809,31643,35552,33014,30203,1806,1481,1048,1485,18881,17004,20075,21527,1245,1044,1089,6162,13413,21063,23445,24531,37993,31803,1432,10915,23611,24450,33370,30367,33851,15974
2614,16342,364,162,158,157,155,159,11755,57187,1041,191,175,175,163,161,1273,7867,279,226,207,204,204,205,1111,7778,279,229,217,218,220,212,1452,1799,31455,35135,32875,29827,1791,1470,1047,1480,18839,16882,20004,21319,1237,1041,1092,6159,13457,21071,23399,24403,38024,31803,1435,10896,23650,24455,33348,30282,33831,15951
2608,16288,367,166,159,156,156,155,11752,57071,1048,190,172,172,172,160,1273,7846,278,230,207,207,204,201,1110,7765,279,225,216,219,216,214,1442,1786,31260,34777,32625,29439,1779,1464,1041,1469,18773,16763,19934,21177,1235,1034,1093,6146,13462,21023,23309,24245,38031,31797,1434,10876,23665,24426,33331,30215,33817,15931
2603,16257,361,165,157,156,159,155,11749,56991,1037,191,170,171,164,165,1270,7830,277,227,209,205,203,205,1111,7748,277,224,217,218,217,213,1437,1778,31173,34607,32478,29232,1771,1460,1037,1465,18740,16703,19902,21108,1232,1036,1094,6130,13455,20991,23266,24154,38029,31783,1443,10861,23657,24404,33327,30179,33811,15922
2603,16245,364,162,157,157,154,156,11747,56963,1046,194,171,172,163,165,1270,7827,278,226,204,206,197,203,1110,7741,279,227,216,218,216,213,1435,1777,31157,34601,32442,29221,1773,1462,1037,1463,18731,16690,19899,21106,1231,1038,1092,6119,13448,20977,23257,24142,38023,31779,1437,10855,23656,24395,33339,30193,33809,15923
2605,16255,361,162,159,156,154,155,11736,56961,1038,189,175,175,167,161,1268,7833,276,227,205,210,206,204,1109,7742,281,226,218,218,216,215,1433,1778,31214,34683,32487,29302,1776,1465,1037,1463,18749,16712,19921,21142,1233,1037,1092,6123,13440,20984,23281,24177,38018,31777,1440,10866,23661,24396,33367,30220,33815,15926
2603,16261,369,163,158,158,159,159,11735,56963,1047,189,169,172,163,162,1268,7833,277,227,209,213,198,204,1108,7737,278,225,216,219,215,213,1436,1781,31246,34750,32543,29390,1781,1464,1039,1465,18757,16731,19939,21176,1234,1038,1092,6127,13438,20985,23294,24204,38020,31778,1441,10877,23663,24405,33385,30243,33823,15929
2601,16280,363,165,159,158,154,154,11726,56953,1036,191,171,171,163,162,1267,7839,277,227,204,207,205,207,1105,7741,279,226,220,217,220,213,1441,1785,31300,34866,32609,29520,1785,1468,1042,1470,18769,16761,19969,21231,1236,1041,1092,6131,13439,20996,23317,24254,38016,31780,1439,10893,23665,24419,33401,30274,33830,15940
2602,16299,365,165,159,155,157,155,11719,56988,1045,191,171,172,162,159,1268,7853,280,227,205,208,204,205,1106,7750,278,223,218,217,215,213,1440,1787,31373,35031,32691,29671,1790,1476,1043,1477,18797,16814,19999,21298,1240,1043,1089,6140,13433,21015,23348,24320,38017,31785,1438,10903,23663,24433,33415,30302,33845,15954
2605,16331,366,163,162,157,158,154,11717,57027,1038,190,172,170,162,161,1270,7867,276,229,206,205,209,204,1109,7759,278,228,218,219,216,218,1445,1794,31459,35189,32777,29829,1794,1479,1048,1481,18826,16868,20032,21368,1245,1047,1094,6151,13437,21043,23385,24390,38012,31797,1440,10925,23666,24455,33433,30338,33871,15969
2605,16354,364,164,161,157,158,158,11722,57079,1048,193,170,170,162,161,1269,7881,274,228,209,210,203,205,1109,7773,278,234,217,219,217,212,1449,1800,31531,35332,32863,29975,1801,1481,1051,1483,18857,16919,20070,21441,1248,1050,1091,6161,13437,21074,23414,24456,38023,31812,1441,10934,23672,24470,33458,30369,33879,15984
2606,16391,363,165,160,157,158,154,11716,57106,1038,193,170,175,162,160,1267,7895,278,232,204,212,209,205,1108,7783,281,226,218,217,217,215,1453,1807,31600,35479,32934,30135,1808,1488,1053,1490,18882,16974,20109,21517,1251,1053,1089,6175,13443,21105,23444,24525,38030,31822,1440,10947,23671,24487,33477,30417,33903,15998
2609,16422,366,163,157,156,156,153,11709,57145,1050,191,170,173,165,162,1269,7913,284,227,206,207,205,206,1108,7793,280,223,218,219,220,214,1457,1812,31677,35636,33025,30259,1811,1487,1056,1493,18916,17038,20147,21588,1256,1055,1090,6188,13452,21141,23482,24601,38047,31840,1443,10966,23671,24511,33519,30467,33937,16011
2607,16383,365,162,159,160,156,153,11758,57315,1043,190,168,173,160,162,1270,7907,279,229,205,203,202,207,1109,7795,278,225,220,218,217,214,1457,1811,31541,35317,32934,29979,1799,1477,1054,1488,18898,16957,20107,21431,1246,1050,1091,6190,13494,21159,23465,24521,38076,31843,1440,10960,23709,24519,33508,30402,33927,15985
2602,16330,366,162,157,157,157,159,11766,57215,1050,190,175,175,162,161,1270,7882,279,228,205,207,202,205,1109,7778,280,225,219,218,216,213,1450,1794,31335,34950,32695,29594,1788,1471,1049,1479,18831,16837,20025,21279,1241,1043,1090,6173,13491,21114,23383,24359,38078,31831,1437,10934,23719,24493,33480,30323,33899,15964
2599,16299,364,162,160,155,159,159,11759,57147,1041,189,175,171,166,161,1267,7870,279,227,209,213,203,204,1108,7764,278,226,217,217,214,215,1443,1790,31259,34798,32549,29396,1783,1471,1046,1472,18804,16777,19991,21212,1241,1042,1092,6159,13483,21078,23333,24271,38066,31816,1439,10915,23719,24466,33472,30283,33888,15954
2598,16294,364,161,159,156,156,157,11761,57105,1047,187,170,170,164,160,1264,7862,280,230,208,210,204,205,1113,7756,279,225,210,217,221,213,1442,1786,31239,34775,32509,29380,1785,1471,1044,1469,18789,16763,19986,21211,1239,1041,1088,6151,13479,21059,23320,24255,38059,31809,1442,10909,23710,24448,33474,30284,33877,15950
2595,16303,361,160,158,158,159,154,11748,57091,1038,190,172,175,162,160,1264,7868,278,227,205,207,203,207,1107,7753,279,231,217,217,213,213,1444,1789,31286,34857,32551,29457,1787,1471,1047,1478,18801,16792,20008,21250,1239,1045,1088,6151,13474,21064,23340,24281,38050,31805,1443,10917,23708,24453,33490,30319,33882,15953
2595,16307,364,162,158,157,159,155,11749,57102,1047,188,169,171,162,161,1263,7869,278,231,206,207,203,201,1106,7752,277,225,217,218,215,213,1446,1791,31307,34918,32587,29535,1791,1472,1046,1477,18811,16807,20023,21277,1242,1045,1088,6151,13465,21063,23349,24310,38043,31796,1442,10929,23711,24458,33501,30334,33883,15953
2596,16322,363,163,159,159,159,155,11745,57115,1038,189,172,175,162,160,1266,7881,279,227,209,207,203,203,1107,7753,277,232,217,222,217,213,1445,1793,31361,35024,32649,29647,1792,1480,1047,1479,18823,16837,20047,21325,1244,1047,1091,6158,13465,21076,23374,24355,38040,31799,1444,10934,23705,24465,33511,30356,33889,15960
2597,16347,368,161,161,159,155,156,11742,57124,1047,191,171,173,159,164,1264,7893,279,226,204,208,205,206,1106,7767,278,225,218,218,217,216,1450,1797,31427,35173,32727,29788,1801,1480,1052,1484,18843,16883,20075,21388,1247,1051,1088,6164,13461,21090,23397,24415,38032,31809,1441,10951,23708,24482,33521,30386,33892,15973
2597,16367,365,162,160,157,157,155,11733,57153,1042,190,173,175,163,161,1265,7905,283,227,209,210,204,205,1108,7771,278,228,217,212,219,215,1452,1805,31506,35327,32812,29952,1806,1489,1053,1489,18867,16936,20112,21465,1251,1052,1089,6175,13457,21113,23427,24479,38027,31814,1444,10962,23706,24495,33541,30415,33909,15987
2598,16400,368,162,158,156,158,154,11734,57206,1050,190,174,175,162,161,1267,7920,278,227,205,208,205,205,1107,7786,283,225,217,220,217,215,1457,1811,31572,35470,32894,30102,1811,1489,1057,1492,18893,16989,20147,21538,1255,1055,1087,6184,13464,21140,23459,24550,38035,31825,1442,10979,23705,24510,33553,30452,33927,15999
2599,16427,366,164,158,158,156,156,11727,57218,1042,194,171,173,163,165,1265,7933,280,229,206,207,207,207,1107,7793,278,225,219,218,216,213,1459,1815,31630,35607,32974,30262,1813,1492,1057,1499,18916,17042,20187,21621,1258,1059,1089,6191,13460,21171,23487,24617,38038,31840,1443,10990,23709,24526,33579,30493,33940,16017
2603,16453,368,165,158,157,157,155,11729,57301,1051,189,170,169,163,159,1265,7951,281,228,206,209,203,205,1106,7813,281,224,217,217,214,211,1462,1817,31699,35704,33045,30321,1813,1491,1059,1499,18950,17088,20226,21657,1257,1055,1086,6204,13468,21201,23524,24677,38063,31856,1446,11003,23711,24555,33612,30523,33970,16018
2598,16387,367,163,157,155,157,157,11778,57381,1047,190,171,170,166,159,1266,7925,283,229,205,207,205,205,1108,7798,276,227,218,217,215,218,1458,1810,31486,35268,32902,29945,1799,1480,1057,1495,18895,16961,20144,21447,1251,1049,1090,6195,13505,21184,23467,24531,38079,31849,1444,10984,23753,24546,33591,30430,33942,15986
2593,16335,365,165,157,157,155,159,11777,57273,1050,188,169,176,165,162,1263,7902,280,229,209,207,204,204,1109,7777,279,223,217,222,217,207,1447,1795,31296,34926,32653,29572,1788,1473,1051,1481,18839,16849,20069,21307,1244,1046,1089,6173,13499,21132,23383,24371,38077,31831,1444,10955,23749,24504,33556,30352,33907,15962
2589,16303,363,163,161,157,157,153,11776,57212,1041,191,173,172,162,165,1263,7891,278,228,206,207,203,208,1111,7767,277,226,217,218,221,218,1441,1789,31215,34755,32513,29371,1783,1468,1047,1475,18804,16789,20036,21239,1239,1045,1089,6161,13490,21090,23331,24274,38053,31808,1444,10932,23743,24470,33532,30300,33889,15941
2586,16293,366,165,160,158,154,155,11770,57140,1049,190,170,171,162,160,1260,7880,278,229,207,207,204,205,1105,7750,277,219,217,217,216,214,1440,1786,31202,34757,32483,29381,1783,1473,1045,1474,18789,16773,20031,21248,1241,1045,1084,6149,13473,21064,23315,24261,38037,31792,1438,10923,23732,24449,33530,30314,33875,15935
2586,16298,362,164,156,157,156,154,11757,57121,1039,188,172,171,163,162,1263,7884,278,226,205,207,203,206,1106,7747,277,229,217,218,225,212,1442,1789,31241,34824,32526,29457,1785,1471,1046,1478,18799,16789,20045,21276,1241,1046,1089,6148,13462,21057,23327,24281,38027,31786,1442,10931,23730,24449,33546,30336,33862,15933
2584,16301,365,165,158,155,158,154,11761,57139,1049,189,169,175,163,159,1258,7883,278,228,207,207,203,205,1106,7748,281,225,213,218,215,214,1442,1790,31273,34885,32567,29532,1786,1471,1046,1480,18803,16805,20061,21306,1242,1046,1084,6145,13454,21055,23342,24303,38012,31775,1443,10932,23727,24450,33547,30348,33861,15933
2587,16318,364,164,156,154,157,154,11753,57139,1039,191,171,170,162,165,1260,7898,278,228,204,206,203,206,1107,7750,277,224,218,219,214,213,1443,1791,31318,34993,32631,29658,1791,1475,1048,1481,18814,16832,20083,21354,1244,1049,1085,6150,13448,21063,23359,24349,38004,31777,1441,10935,23724,24452,33547,30371,33858,15937
2586,16337,366,165,158,155,158,154,11747,57143,1047,189,172,175,161,162,1257,7905,278,228,205,206,206,205,1104,7757,278,224,218,220,215,213,1445,1796,31376,35127,32706,29799,1795,1477,1048,1485,18833,16880,20109,21420,1250,1051,1084,6158,13443,21075,23381,24404,37994,31778,1442,10950,23721,24464,33547,30388,33865,15944
2587,16363,363,161,158,155,155,158,11745,57176,1039,192,171,170,167,160,1257,7917,279,227,205,208,208,204,1105,7765,280,224,217,217,217,213,1449,1801,31448,35275,32789,29947,1799,1482,1053,1489,18858,16933,20142,21483,1252,1053,1084,6169,13443,21097,23406,24461,37987,31785,1443,10960,23723,24481,33555,30416,33872,15958
2590,16388,366,162,159,159,157,156,11748,57218,1051,190,171,171,167,161,1260,7935,279,228,205,206,205,205,1107,7778,280,224,217,217,217,214,1451,1805,31512,35411,32857,30086,1806,1482,1055,1494,18879,16985,20171,21552,1256,1055,1085,6178,13443,21116,23431,24526,37975,31791,1441,10973,23721,24494,33570,30442,33884,15972
2590,16424,364,163,155,154,159,156,11741,57251,1039,191,171,173,164,159,1261,7951,277,230,206,207,204,205,1105,7784,276,226,216,222,217,214,1455,1810,31578,35555,32935,30235,1811,1483,1059,1497,18908,17042,20209,21631,1257,1057,1086,6185,13447,21144,23464,24595,37981,31805,1442,10982,23723,24519,33586,30477,33905,15982
2590,16424,366,164,162,159,157,157,11754,57339,1051,192,171,172,163,164,1262,7961,279,229,206,208,204,205,1104,7795,278,226,217,218,221,217,1458,1811,31565,35457,32934,30125,1803,1477,1059,1499,18919,17037,20212,21563,1254,1053,1082,6196,13459,21164,23475,24587,38005,31811,1439,10994,23735,24530,33602,30454,33901,15965
2585,16346,366,165,145,160,156,155,11781,57294,1045,191,170,173,167,161,1259,7922,280,226,204,207,205,206,1107,7774,281,224,215,216,216,216,1447,1796,31315,34995,32719,29695,1785,1470,1052,1489,18846,16887,20111,21365,1246,1045,1086,6170,13473,21117,23383,24402,38005,31793,1442,10958,23755,24497,33557,30350,33867,15931
2581,16303,364,160,159,157,158,159,11779,57197,1051,191,171,172,160,164,1261,7905,279,228,205,207,205,205,1107,7759,281,228,216,218,215,217,1440,1785,31175,34719,32514,29394,1779,1461,1047,1477,18796,16793,20064,21263,1240,1041,1083,6151,13466,21063,23307,24255,37983,31765,1438,10919,23752,24456,33535,30291,33837,15901
2578,16271,362,165,158,158,156,153,11776,57113,1038,193,169,172,162,161,1255,7892,278,228,203,208,205,206,1106,7736,279,224,219,218,216,212,1433,1778,31097,34578,32425,29267,1770,1458,1042,1470,18765,16736,20040,21219,1233,1038,1083,6131,13455,21025,23273,24183,37972,31747,1439,10895,23750,24425,33526,30265,33815,15887
2574,16266,364,161,161,159,160,153,11766,57070,1048,191,172,177,163,162,1253,7886,279,226,205,205,204,204,1105,7728,276,227,217,221,217,212,1429,1774,31111,34628,32437,29334,1774,1459,1040,1466,18757,16735,20050,21242,1235,1037,1080,6119,13436,21005,23279,24193,37953,31731,1439,10887,23739,24418,33531,30276,33807,15885
2575,16271,365,162,157,158,156,152,11763,57068,1041,190,171,176,163,157,1254,7889,280,227,205,209,202,205,1105,7730,277,225,216,217,217,214,1433,1779,31141,34689,32483,29409,1775,1460,1039,1468,18757,16749,20058,21263,1233,1035,1083,6120,13431,21003,23291,24209,37932,31716,1439,10886,23739,24405,33529,30283,33791,15880
2572,16267,365,163,157,159,155,153,11755,57038,1047,189,175,171,161,161,1254,7889,279,228,204,210,207,205,1103,7725,277,225,217,218,217,213,1430,1778,31166,34766,32532,29505,1777,1460,1039,1471,18759,16765,20069,21299,1234,1039,1080,6121,13418,20994,23293,24235,37911,31712,1441,10887,23731,24402,33519,30282,33787,15879
2573,16285,362,163,160,157,158,155,11747,57043,1037,190,175,170,162,161,1258,7900,278,226,208,206,204,204,1105,7730,276,227,217,221,217,213,1431,1778,31223,34887,32603,29643,1779,1465,1039,1474,18775,16795,20090,21351,1237,1038,1081,6124,13413,21001,23315,24281,37901,31709,1439,10889,23731,24409,33522,30302,33789,15888
2576,16307,365,162,154,156,155,158,11743,57071,1046,190,170,171,166,162,1255,7912,278,228,205,211,203,204,1104,7740,287,226,218,218,218,215,1433,1783,31284,35020,32683,29795,1781,1464,1042,1476,18790,16843,20117,21416,1242,1040,1079,6134,13405,21013,23338,24339,37893,31716,1439,10897,23733,24421,33521,30321,33793,15897
2576,16328,363,161,161,157,157,153,11743,57103,1039,189,171,173,161,162,1255,7924,279,227,206,208,203,206,1110,7743,278,226,218,219,216,213,1434,1786,31355,35164,32771,29942,1786,1467,1043,1478,18812,16894,20146,21481,1242,1045,1083,6141,13402,21034,23373,24402,37890,31720,1438,10903,23738,24439,33524,30352,33810,15909
2577,16354,366,165,157,159,158,155,11743,57135,1047,190,176,171,162,158,1254,7938,280,227,204,208,205,209,1108,7759,277,224,218,218,218,214,1438,1795,31419,35305,32842,30076,1791,1474,1044,1484,18841,16953,20179,21546,1245,1046,1081,6153,13399,21052,23396,24465,37889,31731,1439,10915,23743,24461,33525,30376,33819,15925
2579,16389,364,170,161,160,159,155,11733,57165,1039,191,173,174,164,161,1256,7955,279,227,206,210,203,203,1109,7770,278,224,219,218,218,215,1443,1802,31499,35434,32915,30175,1798,1477,1048,1489,18877,17007,20209,21597,1247,1046,1082,6166,13407,21083,23431,24525,37891,31741,1438,10938,23746,24482,33551,30408,33841,15925
2577,16342,365,163,158,155,155,157,11763,57221,1049,189,171,173,164,160,1257,7941,281,227,204,207,204,205,1106,7762,282,226,220,218,217,214,1443,1793,31334,35068,32790,29841,1783,1464,1047,1487,18836,16911,20137,21416,1239,1041,1080,6159,13437,21068,23383,24398,37905,31730,1437,10930,23768,24470,33529,30328,33800,15891
2572,16280,362,163,157,154,157,159,11768,57098,1038,188,170,171,164,161,1255,7913,278,227,205,207,204,204,1110,7741,276,226,216,219,217,214,1434,1779,31135,34707,32546,29459,1773,1457,1042,1475,18771,16782,20061,21269,1236,1037,1085,6132,13425,21008,23296,24231,37891,31709,1442,10887,23765,24425,33505,30253,33771,15864
2567,16243,365,164,158,159,155,158,11766,57009,1047,190,171,172,165,160,1255,7898,279,233,204,207,203,207,1107,7723,278,226,220,218,217,212,1428,1771,31035,34519,32389,29256,1767,1454,1039,1466,18732,16713,20019,21190,1233,1034,1082,6117,13406,20955,23237,24126,37874,31687,1435,10853,23751,24378,33483,30201,33733,15840
2565,16220,362,165,160,158,157,155,11755,56950,1035,188,171,173,161,160,1251,7889,279,228,206,207,204,204,1107,7710,285,224,218,218,216,214,1425,1767,31005,34479,32351,29233,1765,1455,1036,1461,18711,16687,20003,21177,1232,1033,1081,6103,13393,20927,23209,24094,37855,31671,1436,10829,23738,24350,33467,30183,33717,15828
2563,16233,363,164,158,158,156,157,11750,56935,1044,189,172,171,163,165,1251,7892,279,226,205,208,203,205,1105,7708,277,224,220,217,216,217,1426,1770,31040,34555,32370,29303,1767,1453,1035,1464,18710,16703,20009,21207,1230,1037,1079,6100,13380,20921,23222,24107,37839,31661,1437,10831,23731,24340,33469,30187,33700,15823
2561,16235,361,166,157,156,156,155,11747,56932,1036,191,171,173,161,165,1250,7895,278,227,205,207,203,204,1105,7703,279,224,217,218,217,212,1428,1773,31063,34598,32398,29356,1767,1455,1038,1463,18712,16713,20021,21226,1231,1038,1081,6101,13374,20917,23224,24113,37829,31650,1437,10828,23725,24332,33467,30197,33691,15820
2562,16252,365,166,158,161,162,154,11741,56931,1046,189,172,173,163,163,1251,7905,279,229,205,206,203,205,1106,7703,277,223,218,217,217,213,1429,1772,31096,34693,32440,29457,1771,1459,1037,1465,18718,16740,20027,21268,1234,1037,1081,6102,13367,20914,23239,24149,37818,31650,1435,10834,23724,24335,33489,30220,33691,15823
2565,16276,362,162,158,160,159,154,11735,56948,1036,188,173,172,163,164,1253,7918,278,227,204,208,203,205,1106,7708,279,226,217,217,219,213,1431,1775,31159,34823,32505,29589,1778,1462,1039,1470,18736,16786,20047,21318,1239,1041,1079,6105,13358,20925,23260,24204,37807,31655,1437,10837,23721,24345,33501,30249,33695,15837
2566,16307,361,165,156,162,157,156,11733,56976,1049,190,172,171,164,158,1255,7931,280,226,209,210,205,205,1106,7723,279,225,219,218,220,214,1436,1781,31234,34969,32589,29739,1785,1465,1042,1474,18759,16835,20071,21376,1241,1042,1081,6118,13363,20947,23289,24266,37805,31661,1435,10846,23723,24358,33503,30277,33702,15842
2572,16333,364,162,157,158,156,156,11731,57014,1037,190,172,170,165,161,1257,7945,279,224,205,206,207,206,1105,7727,279,225,218,218,217,215,1437,1789,31308,35119,32671,29886,1788,1471,1045,1478,18789,16887,20104,21445,1244,1044,1082,6125,13363,20972,23318,24327,37805,31667,1438,10861,23721,24375,33501,30302,33709,15856
2573,16370,368,170,163,157,156,156,11728,57051,1046,189,173,173,161,156,1253,7962,281,229,205,208,207,204,1106,7740,279,225,220,220,218,213,1442,1795,31389,35273,32760,30039,1798,1473,1046,1484,18816,16944,20136,21514,1246,1048,1080,6141,13366,21005,23352,24403,37810,31686,1436,10878,23730,24401,33499,30333,33733,15875
2575,16380,365,164,158,157,155,159,11735,57123,1041,193,172,172,161,163,1255,7975,283,229,205,208,203,205,1109,7752,279,223,219,221,217,214,1446,1800,31416,35250,32789,29987,1791,1470,1051,1487,18836,16959,20146,21477,1239,1043,1083,6149,13379,21032,23376,24409,37837,31697,1438,10895,23756,24428,33520,30332,33730,15863
2566,16310,367,161,158,156,157,157,11761,57079,1047,188,168,172,159,160,1254,7944,280,230,205,209,205,206,1108,7732,279,226,219,218,216,213,1440,1787,31174,34799,32581,29564,1778,1462,1047,1475,18766,16815,20047,21279,1236,1039,1086,6132,13396,20985,23287,24230,37841,31679,1438,10862,23778,24402,33475,30233,33702,15826
2565,16269,362,162,156,158,156,155,11759,56979,1036,194,169,174,167,164,1253,7927,276,231,205,207,204,205,1109,7714,279,225,220,218,217,214,1431,1775,31035,34539,32366,29266,1768,1458,1039,1470,18719,16724,19988,21169,1231,1035,1085,6110,13385,20935,23212,24096,37830,31667,1442,10825,23770,24359,33452,30167,33673,15802
2562,16244,364,163,157,160,157,154,11755,56909,1046,186,175,174,163,161,1250,7908,279,227,204,206,203,205,1107,7699,278,225,221,218,216,214,1427,1770,30957,34402,32237,29129,1765,1454,1035,1461,18688,16670,19962,21116,1229,1033,1081,6094,13372,20890,23171,24015,37815,31643,1438,10801,23755,24323,33430,30127,33647,15785
2559,16244,362,166,158,159,157,156,11747,56866,1034,190,169,173,168,158,1248,7908,279,227,204,207,203,205,1107,7693,278,223,218,217,216,214,1429,1771,30966,34439,32231,29169,1765,1455,1037,1460,18683,16666,19962,21133,1229,1033,1082,6086,13354,20874,23168,24019,37807,31635,1439,10786,23750,24309,33425,30129,33641,15783
2562,16254,364,163,157,159,155,154,11745,56862,1046,189,174,169,163,163,1248,7918,280,229,205,205,202,203,1108,7691,279,226,219,217,216,213,1426,1769,30970,34482,32245,29210,1767,1456,1035,1463,18678,16674,19963,21149,1231,1035,1082,6082,13349,20872,23171,24022,37795,31626,1437,10789,23741,24302,33413,30127,33628,15779
2560,16258,362,165,157,157,155,155,11741,56868,1039,190,171,171,174,159,1248,7919,278,228,205,207,207,205,1107,7692,279,223,218,217,216,214,1433,1771,30993,34539,32264,29276,1770,1460,1039,1461,18685,16691,19968,21169,1232,1035,1081,6082,13338,20871,23180,24043,37782,31628,1442,10783,23741,24300,33409,30133,33623,15782
2562,16275,368,164,158,159,156,155,11735,56870,1043,189,169,172,167,158,1247,7929,279,227,210,206,203,208,1108,7696,276,225,215,218,218,214,1431,1774,31043,34659,32321,29399,1776,1464,1037,1463,18698,16732,19981,21219,1236,1036,1081,6089,13330,20879,23201,24088,37782,31631,1436,10789,23733,24305,33412,30156,33626,15793
2560,16302,363,163,157,156,156,154,11731,56887,1036,188,172,174,163,162,1249,7941,278,227,204,208,205,207,1106,7702,277,225,217,219,219,213,1433,1779,31121,34809,32399,29540,1781,1465,1039,1470,18718,16773,20009,21266,1237,1040,1082,6096,13331,20896,23231,24150,37780,31640,1439,10801,23737,24322,33416,30180,33631,15801
2565,16329,365,162,158,155,155,155,11730,56934,1046,189,171,177,163,161,1251,7954,280,228,206,207,205,206,1109,7711,279,225,217,222,220,213,1439,1787,31187,34945,32476,29681,1788,1473,1044,1474,18743,16825,20031,21324,1242,1044,1081,6107,13330,20918,23267,24213,37784,31650,1438,10815,23739,24338,33408,30206,33643,15812
2565,16362,364,162,157,155,155,155,11730,56972,1036,190,172,172,162,161,1250,7969,280,228,205,211,204,205,1109,7725,279,225,218,218,218,216,1443,1790,31263,35078,32567,29827,1795,1477,1046,1482,18774,16876,20062,21391,1245,1045,1083,6118,13337,20948,23303,24283,37799,31665,1438,10831,23753,24363,33415,30247,33659,15829
2569,16394,366,161,158,158,157,155,11722,57001,1047,194,175,173,163,158,1251,7984,281,228,206,207,203,204,1109,7736,284,228,218,219,216,213,1449,1797,31344,35242,32675,29991,1798,1478,1048,1483,18803,16935,20097,21467,1247,1048,1083,6133,13340,20975,23345,24363,37803,31679,1437,10847,23765,24397,33436,30291,33691,15845
2569,16378,363,161,159,156,157,154,11739,57087,1037,191,175,172,161,161,1253,7991,279,228,206,207,205,205,1113,7744,280,227,216,222,218,214,1448,1798,31301,35083,32647,29810,1789,1472,1050,1482,18812,16907,20084,21359,1241,1042,1086,6138,13367,20995,23343,24310,37837,31688,1441,10860,23797,24413,33449,30261,33681,15823
2561,16318,366,162,158,156,154,154,11754,56997,1047,190,170,171,163,159,1250,7958,278,228,212,212,203,205,1111,7727,278,225,217,217,216,214,1443,1784,31065,34663,32413,29396,1777,1463,1043,1473,18739,16769,19996,21195,1235,1038,1086,6116,13370,20942,23251,24132,37843,31671,1440,10823,23811,24382,33412,30179,33661,15799
2561,16283,363,161,158,160,156,158,11750,56909,1036,190,168,172,161,162,1251,7944,279,226,206,202,204,204,1112,7707,278,228,216,218,217,215,1433,1776,30954,34446,32229,29146,1770,1461,1040,1464,18700,16691,19949,21106,1231,1036,1089,6098,13359,20894,23189,24019,37829,31655,1438,10792,23804,24347,33399,30127,33636,15785
2558,16266,362,163,161,159,157,157,11755,56869,1048,189,165,171,151,161,1249,7931,279,228,205,206,208,205,1111,7695,278,221,219,218,216,213,1432,1770,30889,34352,32128,29050,1770,1459,1039,1459,18678,16654,19927,21071,1230,1035,1084,6080,13343,20861,23161,23963,37818,31646,1437,10768,23791,24321,33382,30105,33621,15776
2558,16281,363,162,158,156,155,157,11746,56840,1035,194,171,174,166,167,1247,7934,279,231,205,205,207,206,1111,7691,278,225,219,222,217,213,1432,1771,30919,34427,32149,29123,1770,1461,1038,1461,18675,16664,19935,21098,1231,1038,1085,6081,13329,20850,23172,23983,37820,31645,1439,10768,23791,24315,33381,30116,33621,15777
2557,16287,365,163,159,157,159,154,11743,56827,1046,189,167,179,166,161,1247,7936,281,228,206,210,204,208,1111,7690,280,226,217,219,217,214,1434,1772,30937,34471,32174,29174,1772,1461,1038,1462,18675,16671,19943,21111,1233,1038,1084,6083,13327,20854,23181,23996,37813,31644,1438,10767,23785,24318,33375,30113,33615,15776
2557,16296,363,162,160,156,157,159,11737,56829,1042,187,175,173,163,161,1249,7943,283,226,213,207,204,205,1110,7691,277,225,218,218,219,215,1433,1774,30966,34552,32217,29255,1776,1464,1039,1464,18683,16695,19951,21140,1234,1039,1088,6081,13314,20851,23196,24028,37817,31645,1439,10773,23785,24315,33369,30124,33620,15788
2558,16321,366,165,158,156,156,156,11737,56860,1040,190,173,174,163,165,1247,7957,281,227,203,208,204,206,1109,7703,278,225,221,221,217,214,1437,1776,31029,34684,32287,29393,1781,1468,1039,1466,18702,16736,19970,21192,1236,1041,1084,6093,13316,20869,23227,24085,37818,31653,1441,10780,23790,24331,33371,30147,33631,15799
2559,16347,363,165,159,157,159,155,11734,56897,1035,191,174,173,162,164,1249,7971,279,229,202,206,204,205,1113,7709,281,224,217,222,217,213,1440,1785,31102,34827,32375,29535,1787,1471,1043,1468,18727,16782,19995,21249,1240,1044,1087,6102,13317,20899,23260,24151,37829,31666,1443,10791,23792,24352,33374,30182,33643,15814
2564,16375,367,163,158,156,154,156,11739,56947,1045,191,169,174,163,165,1245,7984,279,228,210,204,201,209,1112,7723,282,226,217,219,217,217,1444,1791,31180,34979,32463,29683,1791,1476,1049,1477,18755,16834,20026,21313,1244,1048,1087,6113,13322,20926,23302,24219,37839,31681,1441,10812,23803,24378,33383,30217,33663,15829
2564,16407,364,163,158,158,153,156,11733,56974,1035,191,170,177,166,157,1249,7997,280,228,206,210,209,206,1111,7729,279,226,219,218,218,215,1449,1796,31255,35128,32563,29846,1798,1481,1051,1482,18787,16889,20060,21379,1247,1050,1088,6128,13327,20957,23341,24294,37858,31706,1442,10829,23815,24405,33398,30260,33683,15845
2568,16446,367,161,158,156,159,155,11727,57019,1047,190,174,169,163,162,1250,8017,285,228,207,212,205,206,1111,7743,279,227,221,217,217,214,1452,1805,31342,35283,32661,29983,1804,1481,1051,1487,18825,16954,20094,21439,1251,1052,1084,6141,13330,20990,23391,24374,37870,31720,1443,10857,23824,24435,33426,30313,33714,15859
2565,16412,367,163,157,158,159,155,11759,57106,1042,190,171,175,163,161,1250,8006,284,227,205,211,203,205,1115,7746,277,227,218,218,217,215,1453,1803,31227,34994,32573,29691,1791,1476,1053,1484,18808,16881,20050,21288,1243,1046,1095,6139,13367,20998,23363,24271,37895,31721,1446,10858,23858,24444,33421,30254,33694,15836
2561,16362,366,162,159,155,156,153,11769,57013,1045,189,171,174,162,162,1249,7982,280,233,205,207,205,204,1113,7726,279,226,219,220,219,215,1445,1786,31026,34633,32333,29310,1781,1467,1048,1477,18750,16760,19977,21149,1240,1045,1089,6120,13368,20947,23274,24105,37910,31711,1446,10825,23865,24414,33397,30198,33677,15820
2560,16343,363,162,159,157,158,154,11763,56941,1035,190,170,173,166,161,1249,7971,279,229,206,210,200,204,1114,7714,280,226,219,222,216,216,1439,1781,30932,34456,32187,29114,1773,1466,1045,1470,18723,16697,19944,21081,1237,1040,1092,6105,13359,20903,23230,24017,37907,31704,1447,10797,23861,24384,33386,30162,33659,15807
2558,16335,364,162,156,157,154,154,11760,56895,1045,189,173,172,163,160,1247,7967,282,229,200,207,204,206,1112,7707,279,226,222,219,217,215,1437,1777,30899,34421,32142,29092,1777,1464,1043,1466,18705,16671,19932,21079,1237,1042,1089,6097,13344,20880,23216,23998,37901,31693,1444,10784,23855,24371,33386,30161,33665,15813
2557,16348,363,165,160,157,156,157,11751,56887,1034,190,174,175,160,160,1247,7971,279,228,209,212,203,206,1113,7702,279,224,217,219,222,215,1438,1777,30942,34498,32175,29152,1776,1466,1043,1470,18715,16691,19943,21101,1236,1041,1091,6097,13338,20881,23234,24022,37910,31700,1446,10789,23855,24375,33391,30170,33663,15812
2558,16353,363,163,160,160,156,154,11756,56884,1043,191,172,172,163,163,1246,7979,281,227,206,207,204,206,1111,7701,280,227,219,219,217,215,1437,1777,30949,34525,32217,29211,1771,1462,1043,1469,18716,16695,19961,21118,1237,1041,1088,6095,13337,20883,23250,24039,37910,31704,1449,10791,23860,24382,33382,30167,33680,15821
2561,16364,366,163,162,160,154,154,11751,56895,1036,190,175,173,168,161,1246,7988,282,227,208,207,206,205,1113,7705,279,229,218,218,218,213,1432,1774,30992,34616,32290,29321,1772,1462,1042,1466,18725,16721,19988,21169,1239,1039,1091,6098,13337,20900,23292,24091,37927,31718,1449,10794,23877,24401,33405,30197,33695,15838
2560,16388,366,161,158,157,155,155,11750,56919,1044,190,172,173,160,163,1247,7996,281,227,207,209,206,205,1112,7717,279,226,219,220,218,214,1434,1779,31051,34751,32382,29471,1779,1462,1043,1470,18751,16765,20016,21229,1240,1044,1089,6103,13331,20914,23330,24153,37944,31732,1446,10803,23889,24432,33414,30231,33721,15850
2561,16411,365,161,159,157,157,155,11749,56957,1035,189,174,176,163,159,1249,8011,280,229,212,212,205,205,1114,7732,280,225,219,220,227,214,1436,1779,31112,34893,32475,29617,1779,1463,1047,1472,18775,16812,20054,21291,1241,1042,1093,6113,13335,20937,23380,24230,37958,31751,1449,10817,23907,24457,33419,30255,33737,15869
2565,16441,368,163,157,159,159,154,11754,57014,1049,190,169,172,163,162,1247,8022,282,228,208,208,210,206,1117,7747,289,227,216,219,217,216,1435,1781,31186,35031,32565,29775,1785,1467,1048,1476,18804,16866,20083,21357,1243,1046,1091,6125,13338,20960,23433,24304,37975,31771,1446,10834,23915,24482,33417,30285,33754,15884
2565,16477,365,163,158,157,156,155,11748,57054,1036,193,170,172,159,160,1250,8044,279,232,202,208,205,206,1114,7756,279,226,218,225,219,218,1437,1789,31264,35185,32682,29943,1789,1471,1048,1481,18843,16925,20122,21435,1245,1046,1093,6142,13337,20983,23477,24386,37993,31783,1448,10854,23930,24516,33434,30335,33783,15900
2567,16465,368,161,157,159,158,155,11772,57135,1048,190,170,171,163,165,1250,8042,283,233,207,210,206,202,1117,7759,280,225,218,219,217,215,1440,1791,31209,35008,32655,29751,1782,1460,1050,1483,18845,16894,20103,21330,1241,1044,1093,6147,13362,20998,23475,24326,38013,31789,1451,10865,23964,24532,33441,30302,33778,15881
2562,16407,364,166,159,158,158,153,11785,57055,1037,190,170,172,162,163,1250,8011,280,229,206,208,205,209,1118,7745,281,222,219,219,219,214,1433,1779,30995,34609,32423,29348,1769,1453,1043,1470,18785,16766,20022,21173,1233,1038,1098,6125,13368,20948,23392,24156,38023,31782,1450,10835,23975,24505,33415,30236,33761,15869
2557,16385,366,161,159,155,156,157,11785,56988,1046,190,172,174,163,161,1248,7999,282,227,206,202,205,204,1118,7730,281,229,218,220,222,215,1428,1769,30888,34408,32258,29131,1762,1450,1042,1464,18752,16696,19987,21096,1232,1033,1095,6107,13358,20901,23334,24058,38019,31767,1447,10801,23973,24482,33412,30202,33751,15859
2557,16371,363,162,160,157,155,158,11782,56929,1034,190,175,170,163,161,1246,7986,279,229,207,207,205,205,1117,7719,282,227,223,219,219,214,1425,1763,30847,34339,32201,29074,1764,1454,1036,1460,18738,16664,19973,21080,1229,1034,1095,6094,13341,20868,23310,24025,38013,31763,1448,10787,23968,24465,33399,30195,33747,15858
2557,16389,368,162,159,158,156,158,11769,56903,1046,190,171,173,166,159,1245,7991,281,228,206,207,204,207,1117,7720,279,227,219,225,220,215,1424,1765,30894,34419,32230,29141,1763,1455,1036,1459,18742,16684,19987,21105,1231,1033,1094,6098,13331,20863,23329,24047,38014,31763,1450,10788,23965,24461,33407,30201,33749,15867
2558,16397,365,162,157,156,155,157,11770,56921,1037,191,171,173,163,161,1243,7993,281,227,206,211,204,205,1115,7714,280,228,219,218,219,215,1427,1765,30910,34464,32270,29191,1764,1455,1039,1461,18756,16695,19997,21124,1230,1035,1093,6094,13327,20862,23336,24065,38011,31764,1449,10791,23963,24462,33412,30207,33751,15868
2560,16413,367,162,162,159,159,158,11765,56914,1047,190,171,172,163,161,1244,8001,281,227,205,206,204,205,1113,7717,280,227,218,219,217,212,1425,1766,30949,34549,32323,29291,1769,1455,1037,1461,18768,16719,20013,21163,1232,1036,1094,6100,13322,20866,23364,24105,38014,31772,1449,10793,23959,24467,33405,30220,33766,15881
2561,16436,366,162,158,159,157,158,11759,56929,1035,190,170,173,164,161,1243,8010,279,229,207,209,205,206,1114,7725,282,227,220,220,218,216,1426,1770,31013,34679,32411,29440,1771,1459,1038,1464,18791,16763,20041,21219,1235,1039,1095,6105,13322,20883,23404,24167,38017,31773,1449,10802,23969,24484,33413,30247,33783,15895
2560,16457,365,161,159,157,155,155,11753,56958,1044,194,173,171,160,158,1243,8021,281,227,207,213,208,206,1114,7734,277,229,220,219,213,215,1430,1775,31085,34826,32514,29599,1777,1461,1041,1468,18823,16812,20071,21282,1237,1041,1093,6116,13319,20905,23447,24241,38023,31786,1453,10815,23973,24507,33425,30287,33799,15911
2560,16483,365,167,159,154,157,158,11755,57001,1035,189,172,170,167,161,1244,8033,279,228,206,207,205,205,1117,7747,279,226,217,220,216,215,1434,1782,31163,34967,32615,29758,1777,1462,1044,1470,18851,16864,20103,21349,1241,1041,1097,6130,13326,20934,23497,24321,38038,31803,1451,10834,23990,24533,33438,30320,33829,15933
2563,16516,370,163,157,155,159,155,11753,57055,1048,189,169,173,162,160,1244,8049,282,230,207,208,206,210,1116,7762,280,229,215,220,218,216,1432,1780,31227,35105,32751,29951,1781,1458,1042,1474,18877,16915,20156,21439,1239,1039,1094,6138,13339,20976,23560,24411,38072,31828,1451,10848,24015,24573,33455,30359,33876,15959
2562,16512,367,163,158,158,154,156,11775,57160,1040,188,171,171,164,160,1245,8058,283,229,206,207,204,206,1116,7772,279,227,219,220,217,215,1429,1779,31164,34959,32829,29872,1766,1445,1040,1470,18896,16905,20192,21401,1227,1026,1098,6147,13384,21027,23607,24405,38133,31855,1452,10848,24077,24629,33506,30364,33906,15953
2557,16443,370,162,161,157,157,158,11795,57080,1047,185,170,171,165,162,1247,8021,280,232,206,208,205,207,1120,7759,279,227,215,220,219,215,1415,1759,30907,34481,32614,29433,1749,1434,1029,1454,18816,16748,20107,21210,1217,1018,1101,6121,13403,20985,23514,24217,38158,31853,1446,10797,24117,24618,33495,30287,33899,15935
2555,16415,364,162,157,158,154,153,11799,57016,1035,193,168,173,162,165,1241,7999,279,231,207,208,207,207,1121,7745,282,225,219,219,216,214,1407,1745,30773,34215,32382,29113,1738,1427,1021,1443,18770,16656,20035,21095,1211,1017,1098,6098,13394,20926,23450,24091,38145,31831,1450,10755,24111,24580,33474,30227,33890,15924
2553,16383,365,163,158,160,155,151,11798,56944,1045,190,171,171,165,161,1240,7991,280,231,205,208,204,206,1120,7735,283,226,222,219,217,214,1399,1738,30706,34079,32253,28959,1734,1424,1015,1436,18737,16595,20003,21037,1209,1011,1097,6084,13374,20871,23421,24022,38133,31817,1446,10723,24104,24547,33445,30181,33884,15915
2553,16388,366,161,159,154,157,158,11790,56900,1038,188,173,173,166,162,1239,7981,286,228,206,208,205,206,1119,7722,279,226,220,219,216,214,1399,1737,30717,34116,32263,28997,1733,1424,1017,1431,18731,16588,19999,21044,1206,1010,1096,6075,13355,20847,23433,24031,38123,31807,1445,10708,24094,24535,33426,30172,33901,15926
2553,16395,367,163,160,155,156,154,11782,56881,1044,191,171,171,163,157,1238,7982,281,227,205,211,203,208,1121,7719,279,226,218,218,217,216,1398,1736,30750,34171,32292,29047,1735,1425,1014,1431,18732,16595,20010,21062,1204,1009,1097,6073,13342,20837,23449,24053,38108,31797,1443,10702,24096,24531,33419,30163,33905,15932
2553,16393,364,163,165,158,158,155,11774,56877,1035,190,174,172,165,161,1238,7980,279,228,209,207,204,203,1121,7724,277,229,213,220,217,215,1398,1738,30778,34233,32331,29126,1735,1427,1011,1431,18741,16610,20010,21085,1203,1008,1097,6070,13332,20827,23471,24087,38087,31795,1442,10695,24094,24540,33407,30162,33920,15941
2550,16408,369,164,159,155,156,154,11773,56895,1044,190,172,173,162,163,1240,7989,280,229,207,207,205,205,1119,7727,279,227,218,219,218,215,1399,1740,30839,34355,32421,29263,1741,1430,1012,1434,18759,16648,20038,21138,1205,1010,1094,6075,13325,20833,23514,24141,38082,31798,1441,10695,24099,24546,33414,30184,33934,15956
2550,16426,365,160,158,156,159,155,11766,56899,1034,189,171,172,162,162,1237,7994,279,227,206,207,203,205,1117,7736,279,223,213,219,219,218,1401,1744,30911,34492,32523,29420,1745,1432,1014,1432,18782,16691,20057,21195,1205,1010,1094,6085,13324,20847,23553,24212,38083,31802,1442,10707,24109,24564,33413,30207,33956,15969
2552,16447,369,163,161,157,157,155,11753,56917,1043,188,171,174,164,165,1240,8006,281,232,206,209,205,205,1120,7745,279,227,220,217,220,215,1404,1748,30990,34634,32630,29577,1755,1445,1016,1438,18801,16738,20085,21255,1211,1017,1096,6098,13320,20863,23595,24289,38078,31797,1441,10718,24119,24585,33416,30235,33969,15983
2550,16449,364,163,157,155,157,149,11754,56945,1036,188,171,171,163,159,1239,8023,281,229,207,209,206,206,1122,7755,281,227,219,220,222,214,1418,1765,31040,34729,32743,29755,1765,1445,1018,1446,18838,16798,20124,21327,1214,1018,1096,6109,13325,20885,23653,24375,38079,31817,1442,10732,24113,24599,33399,30255,33983,15998
2550,16469,369,166,151,167,156,158,11741,56955,1044,189,169,173,166,159,1241,8039,281,229,207,209,205,210,1119,7761,280,226,219,219,212,213,1419,1767,31064,34789,32864,29869,1753,1434,1019,1448,18873,16850,20158,21369,1207,1007,1099,6125,13325,20910,23700,24440,38086,31816,1441,10749,24130,24627,33419,30288,34004,16004
2545,16409,364,162,160,157,153,154,11759,56967,1035,189,171,175,162,163,1240,8013,279,229,208,210,203,208,1122,7754,279,222,216,218,218,213,1403,1746,30905,34427,32721,29490,1729,1411,1007,1433,18817,16729,20073,21171,1188,991,1103,6117,13356,20897,23636,24282,38119,31818,1449,10739,24169,24633,33406,30221,33972,15976
2542,16361,365,163,155,163,155,154,11774,56901,1044,190,170,172,165,163,1233,7979,279,226,205,207,204,204,1118,7733,278,225,217,216,219,213,1382,1718,30725,34081,32437,29070,1707,1394,991,1410,18758,16617,19981,21021,1173,975,1098,6087,13347,20827,23551,24121,38106,31797,1445,10707,24167,24592,33387,30154,33933,15950
2539,16317,363,162,160,157,159,158,11776,56822,1034,187,174,176,162,161,1232,7954,279,226,207,209,203,203,1119,7710,277,226,217,218,218,213,1365,1701,30637,33879,32253,28827,1690,1379,975,1390,18723,16540,19933,20927,1155,960,1100,6068,13333,20763,23493,24026,38077,31762,1447,10679,24157,24548,33363,30103,33897,15927
2536,16301,366,162,157,155,158,155,11770,56743,1043,189,172,173,162,163,1230,7943,279,226,204,206,204,203,1117,7688,277,225,219,217,216,212,1351,1683,30605,33825,32189,28778,1679,1370,963,1374,18719,16521,19903,20902,1146,952,1099,6061,13311,20724,23494,24008,38054,31743,1443,10656,24134,24507,33333,30075,33865,15913
2533,16303,363,163,162,163,155,155,11756,56727,1033,187,174,176,163,165,1227,7940,278,226,206,208,202,204,1114,7687,275,224,215,216,218,210,1347,1679,30653,33888,32223,28827,1678,1368,955,1369,18736,16539,19907,20915,1141,953,1100,6058,13299,20708,23519,24037,38022,31726,1445,10662,24129,24495,33316,30058,33843,15915
2531,16293,365,163,157,158,158,154,11758,56719,1045,192,172,172,162,164,1225,7925,278,226,203,205,203,204,1111,7677,277,227,219,217,215,212,1344,1681,30691,33950,32276,28893,1685,1375,951,1365,18756,16556,19911,20933,1144,954,1099,6059,13301,20713,23524,24039,38025,31724,1441,10659,24122,24493,33311,30058,33839,15914
2524,16258,362,166,159,157,159,157,11724,56614,1030,195,171,169,167,162,1219,7901,275,225,203,204,203,204,1109,7667,277,224,220,217,217,213,1351,1681,30751,34062,32363,29020,1686,1374,958,1377,18759,16581,19935,20979,1147,952,1097,6050,13292,20713,23522,24071,38020,31716,1448,10681,24118,24494,33309,30072,33822,15920
2516,16246,364,162,161,156,157,155,11701,56583,1041,188,170,174,165,159,1216,7903,278,226,204,205,202,208,1110,7674,280,225,217,217,219,212,1350,1681,30817,34191,32461,29177,1685,1373,955,1375,18782,16620,19966,21041,1151,954,1094,6056,13274,20709,23551,24137,38007,31711,1444,10693,24114,24503,33310,30098,33825,15932
2515,16239,359,163,157,155,156,155,11712,56689,1034,189,175,172,172,161,1214,7912,276,222,206,205,204,202,1113,7707,277,227,216,217,216,213,1346,1679,30911,34345,32544,29309,1683,1371,959,1377,18824,16683,20000,21103,1155,958,1095,6060,13267,20722,23614,24219,37987,31707,1445,10694,24121,24519,33307,30110,33837,15933
2517,16265,363,165,157,159,159,154,11744,56814,1041,191,174,172,162,162,1215,7927,279,225,203,206,202,204,1118,7723,277,224,217,217,216,212,1344,1684,30984,34470,32644,29479,1698,1382,960,1382,18888,16761,20038,21181,1159,964,1096,6077,13261,20731,23671,24315,37964,31704,1443,10687,24135,24535,33289,30128,33837,15944
2515,16272,361,161,157,160,157,158,11709,56763,1032,188,168,171,162,163,1217,7931,279,226,204,207,203,206,1117,7718,275,224,218,217,218,212,1358,1703,31100,34668,32787,29683,1711,1393,967,1393,18929,16823,20089,21269,1167,971,1100,6094,13271,20771,23695,24383,37994,31727,1445,10703,24160,24586,33322,30187,33855,15963
2502,16223,364,162,159,157,157,155,11692,56747,1042,189,171,177,162,165,1215,7933,280,230,204,207,203,204,1115,7722,281,225,217,221,216,214,1371,1713,31149,34695,32882,29716,1706,1387,975,1399,18962,16862,20139,21288,1167,971,1097,6106,13269,20774,23738,24423,37990,31721,1444,10741,24186,24613,33346,30218,33846,15949
2493,16135,362,162,161,157,155,154,11693,56635,1034,189,173,177,158,161,1215,7906,278,225,205,209,203,203,1113,7693,276,226,217,217,216,215,1360,1701,30939,34240,32703,29300,1693,1383,971,1392,18910,16733,20067,21107,1162,961,1103,6094,13281,20721,23677,24262,37997,31707,1448,10707,24221,24598,33318,30133,33811,15917
2490,16078,361,161,162,158,157,154,11678,56505,1039,192,171,171,162,163,1211,7871,283,226,205,206,203,204,1110,7674,276,225,217,216,216,212,1354,1688,30787,33932,32489,28963,1689,1379,969,1385,18867,16635,20018,20999,1158,964,1098,6065,13271,20658,23615,24130,37986,31680,1448,10672,24225,24562,33308,30070,33781,15895
2482,16013,358,162,159,157,151,153,11670,56409,1027,192,175,172,166,161,1211,7840,275,230,205,206,206,202,1113,7651,278,224,215,221,217,213,1353,1682,30702,33753,32362,28783,1687,1380,966,1382,18848,16578,19982,20926,1159,965,1099,6042,13254,20606,23580,24045,37966,31658,1445,10639,24218,24521,33282,30021,33742,15879
2477,15995,360,163,154,154,155,158,11665,56381,1037,188,175,172,163,154,1205,7837,277,226,205,206,204,204,1110,7641,277,225,218,218,217,211,1355,1684,30713,33774,32344,28797,1689,1383,966,1381,18853,16583,19975,20931,1160,965,1097,6030,13241,20585,23574,24047,37946,31641,1447,10631,24195,24493,33266,30003,33719,15870
2476,16012,358,162,160,159,159,154,11670,56413,1027,192,168,172,163,153,1207,7848,277,228,207,206,203,203,1109,7642,277,223,216,217,217,213,1355,1689,30769,33844,32380,28858,1693,1385,969,1381,18882,16613,19976,20949,1159,966,1098,6032,13231,20568,23583,24065,37933,31628,1445,10633,24172,24473,33260,29992,33695,15862
2482,16050,361,162,159,158,157,159,11655,56371,1035,191,169,169,160,161,1207,7852,279,226,206,206,202,204,1107,7631,277,223,216,217,216,212,1358,1693,30802,33905,32448,28940,1698,1388,967,1384,18894,16635,19994,20974,1164,967,1098,6046,13219,20559,23583,24081,37933,31627,1447,10645,24167,24465,33240,29987,33677,15862
2487,16079,362,163,157,157,156,154,11633,56303,1027,192,171,172,161,163,1204,7847,279,227,204,208,202,209,1106,7630,277,224,215,219,215,212,1361,1695,30887,34036,32547,29084,1700,1391,974,1390,18917,16673,20025,21027,1167,973,1100,6047,13214,20569,23602,24125,37931,31619,1447,10664,24170,24473,33226,29997,33667,15863
2488,16101,361,165,157,157,155,154,11615,56290,1034,189,159,170,164,159,1205,7853,279,227,205,206,203,205,1105,7638,278,223,216,218,216,215,1369,1699,30975,34196,32647,29239,1708,1394,975,1395,18945,16717,20054,21085,1171,976,1097,6050,13215,20581,23634,24193,37929,31626,1450,10684,24162,24483,33221,30020,33665,15868
2488,16131,359,166,158,155,156,156,11623,56367,1027,189,171,171,165,162,1207,7868,276,226,204,205,204,204,1106,7650,277,223,217,218,215,215,1369,1702,31075,34364,32741,29393,1711,1401,979,1399,18983,16775,20086,21145,1173,976,1101,6059,13222,20613,23670,24267,37926,31634,1451,10704,24166,24497,33233,30055,33664,15882
2493,16168,362,164,158,157,156,155,11631,56436,1039,188,169,171,165,161,1207,7888,279,225,207,208,203,204,1105,7659,278,225,216,216,220,212,1373,1709,31167,34518,32846,29551,1718,1402,980,1403,19019,16829,20119,21214,1181,978,1098,6082,13230,20639,23707,24337,37931,31652,1455,10732,24167,24519,33249,30093,33669,15891
