 EMG Channel 
9262.764068
9273.582312
9252.549321
9234.690277
9234.243242
9233.930318
9229.996411
9219.558146
9219.379332
9242.848664
9234.533815
9215.579535
9225.257841
9222.195652
9193.294846
9161.912997
9191.752576
9224.073198
9209.522213
9172.239503
9158.470828
9176.128706
9173.558256
9158.470828
9145.484465
9177.179238
9188.913904
9166.897436
9148.278433
9164.170523
9191.640817
9163.835247
9137.86252
9164.416392
9172.038337
9145.842093
9121.411636
9138.197796
9175.681672
9194.792413
9152.34645
9125.859633
9151.720602
9155.632157
9133.12395
9162.404735
9199.24041
9193.272494
9170.361956
9157.129724
9175.435802
9175.14523
9147.049087
9141.259985
9190.947913
9227.783588
9185.739957
9130.978183
9154.447514
9178.47564
9167.232712
9144.992726
9171.323081
9174.228808
9160.728355
9155.430991
9172.641834
9175.100526
9151.31827
9154.492218
9159.253139
9172.910055
9174.027642
9123.110369
9117.343619
9171.010157
9182.498954
9146.132665
9151.452381
9181.448422
9192.467832
9162.382384
9143.539863
9150.625366
9165.422221
9156.995613
9126.127854
9147.071439
9179.481468
9157.710869
9141.259985
9150.379497
9170.272549
9150.513607
9143.450456
9145.640927
9165.422221
9190.255009
9154.894549
9119.377627
9157.129724
9177.469811
9145.640927
9129.838244
9156.347413
9166.852733
9144.121008
9132.498101
9149.932462
9166.808029
9152.34645
9136.029677
9143.204587
9152.905244
9150.334793
9135.314421
9147.026735
9173.334738
9147.09379
9080.642054
9086.60997
9114.504947
9115.555479
0
9007.68596
9014.883222
9025.388542
9013.139786
9006.255449
9015.084388
9043.918138
9040.431266
9006.635428
8997.113585
9028.964821
9042.129998
9006.456614
8996.15246
9025.254431
9035.044495
9000.175774
8997.672379
9032.630507
9037.302022
9001.226306
8989.961027
9021.700504
9036.989097
9020.918193
9003.126204
9012.022199
9019.21946
9019.062998
9009.116472
9023.890975
9041.682964
9034.910385
8996.420681
8989.961027
9036.564414
9055.786914
9018.034818
9001.561582
9039.559548
9049.528426
9010.926963
8991.391539
9018.012466
9036.586766
9017.431321
8998.320579
9015.665533
9044.275766
9026.595536
8997.828841
9023.131016
9051.24951
9035.536234
9008.244754
9013.564469
9048.321432
9042.15235
9003.953219
9009.719969
9051.24951
9045.840388
9013.631524
9006.546021
9026.036742
9036.340897
9023.756865
9021.879318
9052.322394
9069.82381
9035.379772
8987.457632
9002.545059
9048.835522
9038.374905
9011.53046
9023.466292
9047.9191
9036.877339
9021.14171
9031.021181
9052.344746
9039.626603
9020.851138
9030.641202
9046.37683
9042.129998
9021.789911
9006.411911
9020.225289
9042.487626
9023.980382
9015.88905
9037.704353
9048.343783
9032.295231
9014.525594
9033.032838
9046.712106
9026.550833
9005.651952
9016.067864
9041.280632
9047.203844
9013.475062
9010.949315
9041.750019
9041.034763
9004.310847
9012.491585
9041.12417
9043.113475
9013.3186
9003.014446
9042.979365
9060.34667
9029.903594
9010.569335
9031.065885
9046.332126
9024.896803
9008.490623
9035.536234
9053.484685
9029.07658
9011.172832
9033.636336
9058.111496
9050.22133
9029.165987
9026.282612
9058.670289
9050.623661
9016.157271
9009.898783
9048.746115
9059.206731
9029.456559
9021.0076
9051.495379
9061.10663
9024.583879
9012.245716
9033.703391
9048.67906
9034.820978
9019.21946
9035.379772
9063.252397
9041.571205
9013.877393
9030.171815
9051.160103
9035.536234
9011.843385
9026.707295
9058.245606
9052.344746
9022.371056
9018.951239
9041.392391
9047.78499
9024.919155
9018.57126
9049.036687
9060.480781
9031.401161
9008.06594
9037.816112
9062.201865
9045.929795
9025.790873
9039.783065
9057.440943
9044.164007
9019.912364
9020.560565
9043.895786
9044.946318
9032.496397
9037.838464
9065.196999
9062.984176
9026.439074
9009.451748
9029.993001
9041.034763
9025.053266
9009.630562
9028.338972
9039.894824
9017.386617
9001.226306
9025.589708
9035.424475
9011.463405
8987.368225
9000.935733
9022.616926
9015.084388
9001.002789
9019.398274
9035.066847
9017.051341
8994.163155
9002.388597
9027.333144
9022.773388
9014.704408
9014.436187
9026.930812
9026.707295
9001.606286
8991.905629
9019.174757
9031.937603
9014.100911
9012.692751
9033.658687
9033.099894
9013.631524
8998.07471
9013.9668
9032.630507
9025.388542
8998.700559
9005.920172
9033.524577
9029.121283
9006.769539
9013.855042
9037.682001
9042.599385
9019.241812
9004.690826
9031.691734
9051.517731
9019.97942
9003.908515
9022.751036
9024.092141
8997.202992
8992.352664
9024.382713
9052.255339
9034.440998
9014.793815
9022.594574
9035.312716
9028.897766
9009.295286
9002.925039
9029.300097
9044.052248
9017.386617
9013.899745
9028.56249
9032.138769
9008.602382
8999.460518
9034.731571
9046.645051
9013.765635
9009.496452
9036.340897
9036.832635
9016.470196
8997.828841
9013.9668
9037.234966
9027.780179
9008.289457
9027.891937
9058.513827
9044.253414
9009.764672
9021.119359
9043.336993
9022.460463
9000.823975
9007.529498
9037.41378
9031.602327
9011.172832
9013.072731
9044.700449
9051.875359
9026.103798
9006.858946
9023.421588
9033.81515
9017.476024
9002.902687
9025.612059
9052.255339
9032.719914
9021.722856
9034.597461
9040.632432
9030.775312
9011.619867
9024.829748
9047.852045
9036.206786
9013.497414
9013.720931
9034.642164
9048.567301
9018.772426
9007.909478
9036.340897
9040.006583
9012.871565
9006.031931
9040.699487
9063.878246
9027.556661
8993.514954
9022.192242
9055.786914
9042.331164
9010.949315
9018.437149
9041.459446
9034.552757
9006.233097
9008.602382
9034.575109
9041.079466
9022.438112
9019.21946
9045.885092
9051.651842
9018.884184
9010.792853
9035.87151
9045.10278
9003.081501
8989.715158
9031.8929
9064.459391
9042.353516
9014.816167
9029.121283
9046.466237
9026.483777
8999.192297
9011.150481
9047.628528
9041.012411
9007.373036
9013.050379
9027.623716
9016.984286
8987.077652
8989.558696
9019.241812
9019.197109
8985.445975
8980.193315
9005.137861
9004.154385
8970.894989
8960.769649
8999.549925
9028.942469
9000.220478
8977.265236
8987.725852
8994.274914
8973.197219
8955.427582
8979.50041
9010.748149
9005.607248
8972.347852
8983.814297
9019.062998
9003.416777
8968.950387
8972.750184
8996.979475
9000.242829
8969.88916
8962.401326
8993.738472
9012.133957
8985.13305
8975.477096
8999.125242
9008.06594
8982.339082
8967.788096
8992.039739
9016.313734
9005.830765
8979.433355
8998.879373
9025.545004
9008.06594
8971.520838
8970.738527
8997.56062
9002.545059
8997.828841
9003.439129
9011.172832
8998.611152
8975.432393
8986.92119
9014.369132
9019.666495
9002.098024
8983.255504
9003.886164
9021.298173
8989.961027
8971.073803
8999.795794
9026.483777
9017.386617
8987.390576
8991.123318
9013.9668
9005.048454
8983.456669
8993.067919
9016.313734
9012.245716
9003.32737
9002.880335
9029.478911
9020.426455
8970.380899
8952.141875
8979.120431
8997.985303
8992.084443
8984.820126
9002.902687
9012.29042
8985.825954
8964.278873
8983.814297
9000.578106
8982.048509
8955.807561
8969.822105
8998.432338
8998.141765
8980.170963
8989.134012
8997.784137
8984.261332
8968.168076
8978.874562
9008.58003
9004.020274
8968.995091
8975.588855
9006.322504
9014.033856
8996.867716
8976.885256
8982.562599
8990.788041
8981.377957
8979.388652
8994.409024
9005.026103
8982.562599
8970.246788
8992.129146
9006.389559
8985.736547
8966.357585
8985.937713
9009.518803
9003.081501
8976.684091
8976.818201
8991.033911
8988.195239
8973.756012
8995.928943
9018.973591
9009.541155
8973.465439
8961.440201
8995.951294
9007.708312
8982.272027
8971.610245
8988.664626
9003.237963
8989.446937
8975.320634
8992.889105
9011.172832
8995.951294
8979.545114
8985.378919
9015.263202
9009.60821
8982.115565
8983.367262
8992.911457
8986.608265
8964.860018
8978.360472
9027.936641
9033.43517
8997.851193
8983.769594
8993.693768
8991.302132
8962.870713
8966.379937
8995.928943
9014.503242
8999.393463
8973.152515
8979.209838
9014.100911
9009.049417
8973.800716
8956.321651
8970.492657
8986.071823
8974.270102
8967.430468
8979.299245
8986.071823
8971.319672
8972.213742
8990.519821
8984.797774
8957.998032
8952.655965
8978.829858
8991.27978
8966.156419
8942.307108
8972.19139
8999.48287
8976.259408
8957.595701
8980.416832
8991.168021
8980.39448
8953.99707
8963.518913
8996.644198
8995.191335
8960.970814
8954.622919
8973.912474
8997.158289
8972.683128
8951.493675
8983.188448
9007.797719
8984.194277
8964.36828
8974.158344
8983.747242
8965.888198
8947.023326
8983.903704
9021.90167
9005.271972
8972.012576
8981.310902
9008.602382
8996.398329
8956.545169
8964.569445
8996.66655
8999.10289
8969.173905
8962.557788
8999.34876
9012.692751
8983.993111
8972.928998
8999.706387
9008.96001
8980.305073
8961.484904
8987.547039
9015.129091
8988.664626
8963.921245
9002.343893
9035.424475
9008.490623
8980.729756
8993.470251
9026.506129
9026.796702
9001.069844
9009.854079
9017.990114
9002.723873
8983.434318
8985.535382
9007.082463
9009.60821
8988.821088
8990.296303
9010.859908
9019.107702
9000.935733
8985.758899
9006.2778
9020.806434
8997.359454
8983.479021
9004.132033
9025.768522
9005.696655
8983.411966
9000.131071
9020.359399
8999.214649
8979.23219
9003.416777
9021.409931
9001.874507
8975.365338
8971.6773
8997.202992
9018.303039
9000.734568
8989.49164
9002.388597
8999.527574
8976.773498
8974.49362
9003.550888
9023.30983
9005.048454
8987.345873
8997.135937
9009.116472
8982.897876
8955.561692
8984.350739
9033.859853
9025.902632
8989.625751
8982.473193
8997.493565
9003.349722
8979.790983
8989.648102
9023.466292
9012.201013
8977.019367
8971.409079
8992.352664
9008.021236
8992.419719
8981.445012
9013.631524
9039.693658
9006.166042
8977.041719
8988.97755
8999.460518
8980.327425
8970.939692
8998.208821
9012.201013
8989.670454
8975.410041
8983.389614
8997.985303
8995.63837
8983.188448
8979.947445
8995.548963
8989.335178
8971.833762
8971.342024
8998.96878
9019.711199
8997.471213
8970.78323
8986.652969
9004.22144
8987.792908
8961.127277
8991.749166
9022.54987
8992.218553
8963.518913
8965.262349
8988.08348
8990.184544
8974.806544
8980.997977
9008.624734
9014.816167
8980.662701
8967.251655
8987.390576
8991.816222
8976.54998
8970.738527
8999.549925
9011.53046
8980.886219
8959.272082
8988.32935
9009.027065
8985.691844
8952.231282
8953.907663
8969.486829
8978.293416
8972.772535
8986.049472
8998.991132
8984.574256
8956.075782
8952.164227
8972.236094
8978.718099
8959.562654
8963.340099
8986.831783
8995.817184
8968.883332
8947.939747
8983.456669
8988.262294
8953.751201
8949.146742
8983.859001
9003.014446
8972.861942
8952.231282
8964.50239
8989.648102
8982.674358
8963.451858
8971.140858
8987.390576
8983.143745
8956.232245
8954.064125
8987.681149
8985.937713
8950.398439
8942.97766
8983.099041
8994.632541
8977.265236
8957.863922
8983.635483
9004.444957
8983.546076
8968.145724
8982.920227
8991.682111
8978.829858
8964.927073
8974.068937
8991.860925
8982.003806
8952.745372
8973.912474
9017.766597
9000.108719
8954.287643
8954.37705
8979.098079
8979.612169
8971.856114
8972.861942
8989.335178
8992.82205
8962.71425
8948.09621
8972.996053
8993.425547
8983.903704
8968.883332
8985.043643
8990.944504
8958.534474
8941.636555
8974.694785
9011.083425
8991.726815
8964.323576
8976.080594
9001.986265
8998.365283
8958.86975
8955.427582
8988.754033
8984.61896
8966.446992
8961.909588
8990.966855
9001.852155
8975.14182
8967.475172
8989.424585
9001.606286
8983.903704
8970.380899
8984.306036
9000.578106
8986.272989
8964.345928
8980.997977
8995.079576
8983.456669
8967.296358
8967.31871
8998.208821
9000.242829
8967.206951
8975.208876
9006.389559
8993.984341
8967.430468
8968.413945
9001.338065
9009.09412
8979.478059
8956.075782
8986.317693
9006.814242
8989.558696
8978.539285
8991.79387
9012.268068
9001.27101
8981.489716
8992.330312
9015.75494
9019.018295
9007.104815
9024.270955
9054.244644
9048.075562
9021.968725
9016.26903
9038.441961
9036.854987
9006.79189
9000.131071
9025.23208
9039.425437
9011.642219
9007.842422
9031.065885
9034.865682
9021.454635
9002.969742
9020.337048
9044.365173
9033.748094
9012.312771
9017.54308
9049.908406
9041.459446
9006.009579
9017.006638
9034.686868
9018.258335
9008.714141
9026.595536
9049.573129
9053.194112
9025.477949
9012.357475
9027.176681
9032.898728
9021.678152
9009.250582
9025.634411
9047.896749
9025.053266
9012.558641
9017.230155
9035.826807
9036.676173
9015.598478
9029.747132
9048.634356
9035.268013
9005.473138
9006.2778
9035.916214
9021.0076
8993.693768
9018.124225
9052.970595
9048.924929
9023.086312
9014.078559
9022.907498
9021.611097
9008.825899
9018.504205
9038.933699
9043.873435
9010.725798
8991.615056
9016.358437
9051.517731
9045.818036
9019.197109
9018.325391
9040.632432
9033.591632
9007.887126
9023.578051
9045.013373
9043.113475
9010.278763
9011.91044
9024.136844
9014.503242
9014.324428
9019.264164
9045.058077
9046.980327
9034.888033
9003.394425
9011.955143
9048.187321
9032.362286
8995.705425
9009.071768
9026.439074
9004.310847
8963.09423
8973.152515
8993.224382
8996.063053
8963.228341
8972.683128
9011.664571
8980.238018
8932.494692
8942.46357
8986.295341
8988.508164
8946.911567
8935.154549
8979.612169
8993.20203
8964.860018
8961.149628
8985.088347
8995.526611
8967.586931
8949.839646
8947.448009
8960.680242
8959.048564
8957.483942
8972.347852
8993.58201
8977.06407
8937.859111
8950.353736
8992.665588
8974.963006
8935.847454
8930.572442
8966.156419
8987.032948
8973.756012
8961.484904
8973.845419
8978.382823
8941.614204
8914.926221
8952.678317
8967.922207
8934.148721
8918.100168
8937.412076
8955.807561
8954.488808
8936.69682
8939.870768
8947.693878
8926.772645
8899.704683
8917.653134
8959.339137
8960.210855
8923.911622
8918.860128
8954.801733
8952.275986
8925.722113
8931.712381
8948.386782
8958.35566
8931.600622
8910.701741
8945.257538
8977.622864
8949.727887
8919.418921
8937.635593
8957.103963
8944.676393
8925.409189
8949.77259
8990.564524
8964.345928
8920.245936
8917.429616
8962.043698
8973.465439
8960.344965
8967.721041
8977.555809
8966.536399
8950.420791
8949.213797
9003.953219
9006.456614
8953.170056
8917.586078
8962.289567
9000.533402
8987.189411
8956.634576
8972.280797
8989.446937
8975.812373
8946.419829
8959.964986
8980.081556
8975.14182
8965.195294
8978.427527
8999.259353
8980.975626
8943.447047
8950.063163
8989.156364
8996.331274
8968.548056
8957.975681
8983.031986
8991.190373
8969.799753
8944.341116
8979.008672
9011.977495
8981.914399
8953.281814
8965.262349
8991.235076
8967.609282
8934.193424
8957.863922
8998.432338
8993.090271
8969.263312
8982.026158
9015.821995
9012.357475
8971.587893
8964.927073
8998.320579
9008.96001
8987.837611
8988.798736
9021.365228
9007.104815
8955.964024
8954.757029
8995.794832
9015.106739
8999.34876
8976.706442
9003.729701
9021.566394
8991.570353
8951.761896
8953.907663
8992.129146
9006.322504
8997.04653
9004.914344
9022.572222
9009.876431
8987.368225
8982.920227
9001.382768
8993.067919
8977.153477
8985.021291
9004.802585
9015.486719
8983.814297
8965.955253
8992.129146
9000.913382
9000.622809
8998.991132
8990.832745
9004.668475
8998.745262
8991.078614
8987.479983
8995.884239
9001.673341
8978.583989
8987.345873
9022.527519
9042.375868
9017.207803
9018.884184
9047.874397
9037.570243
8999.438167
9004.713178
9040.833597
9057.820923
9028.026048
8992.30796
9020.49351
9049.304908
9036.76558
9010.837556
9029.791836
9048.969632
9030.730609
9007.820071
9011.53046
9034.709219
9041.861778
9023.421588
9019.353571
9041.280632
9039.604251
9019.442978
9019.286516
9040.2301
9035.558586
9008.088292
9019.442978
9045.259243
9050.690717
9024.71799
9015.531423
9046.935624
9050.60131
9024.807397
8997.113585
9012.692751
9043.04642
9039.134865
9018.951239
9024.785045
9045.080429
9047.002679
9022.818091
9020.225289
9051.875359
9046.153312
9026.841405
9041.414743
9078.317473
9085.782955
9065.018185
9049.282557
9062.537141
9070.85199
9058.335013
9046.846217
9051.473028
9067.052194
9059.296138
9033.546929
9047.02503
9064.906426
9049.148446
9050.981289
9071.634301
9085.782955
9066.62751
9036.072676
9032.652859
9061.933644
9068.728574
9056.12219
9047.02503
9066.672214
9066.001662
9035.938565
9023.30983
9055.742211
9073.042461
9049.349612
9035.223309
9053.305871
9063.2971
9050.914234
9043.068772
9058.513827
9066.426345
9045.058077
9015.531423
9036.430304
9077.535162
9064.05706
9023.242774
9022.259298
9056.50217
9053.93172
9033.926908
9048.589653
9068.840333
9064.325281
9052.65767
9033.43517
9029.72478
9034.195129
9020.091178
8996.66655
8996.375978
9015.330257
9000.667512
8967.810448
8968.257483
8981.847344
8970.78323
8950.28668
8962.781306
8969.37507
8955.293471
8948.09621
8951.404268
8975.298283
8973.063108
8953.125352
8953.684146
8972.169038
8972.526666
8945.123428
8935.892157
8963.004823
8979.947445
8949.973756
8955.204064
8998.432338
8994.7443
8957.036907
8930.773608
8956.276948
8991.011559
8978.204009
8950.241977
8978.159306
9003.930867
8972.616073
8931.690029
8942.709439
8977.891085
8985.378919
8962.468381
8963.831838
8976.572332
8961.104925
8945.995146
8945.592814
8961.931939
8987.278818
8962.155457
8931.399456
8962.490733
8987.345873
8963.742431
8934.685163
8946.017497
8966.715213
8976.862905
8958.936806
8957.685108
8967.117544
8960.613186
8938.820236
8945.816332
8982.584951
8994.185507
8957.483942
8948.945576
8965.351756
8964.480038
8930.728904
8932.405285
8973.957178
8995.77248
8970.626768
8945.458704
8953.237111
8965.239998
8953.907663
8947.559768
8964.144762
8980.103908
8958.914454
8934.998087
8951.717192
8976.706442
8969.553884
8931.44416
8936.249785
8978.315768
8971.118506
8936.495654
8944.989317
8982.093213
8981.735585
8956.925149
8966.42464
9001.695693
9017.453673
8999.237001
8986.362396
9026.550833
9049.84135
9006.635428
8973.063108
8985.088347
9012.737455
9013.899745
9000.242829
9033.256356
9054.557568
9031.311754
8977.019367
8980.103908
9010.211707
9009.60821
8995.750129
8995.034873
9015.442016
9031.423513
9028.003696
9019.398274
9006.121338
9010.949315
9002.455652
8988.642274
8997.448861
9017.006638
9012.692751
9001.740396
9010.725798
9024.561527
9018.683019
8996.644198
8995.705425
9022.706333
9021.365228
8995.25839
8996.845364
9027.199033
9028.607193
8995.459556
8984.082518
9017.453673
9030.976478
9001.069844
8987.971722
9015.442016
9037.324373
9016.716065
8996.979475
9011.619867
9034.888033
9034.32924
9013.631524
9021.566394
9050.936586
9044.96867
9031.915251
9045.169836
9064.258225
9059.005566
9027.266088
9023.689809
9046.332126
9053.596443
9032.608155
9036.273841
9061.196036
9060.391374
9024.159196
9006.478966
9024.762693
9043.247586
9037.726705
9043.448751
9059.564359
9063.073583
9040.811246
9014.21267
9024.315658
9050.981289
9051.741249
9030.037705
9034.753923
9054.311699
9037.234966
9015.106739
9023.82392
9057.01626
9057.038612
9035.893862
9047.360307
9060.838409
9041.25828
9022.572222
9040.811246
9053.17176
9062.067755
9041.817074
9025.165024
9047.092086
9063.900598
9037.771408
9011.485757
9027.064923
9073.422441
9068.460353
9035.625641
9041.705315
9066.783973
9066.538103
9041.50415
9045.750981
9074.271807
9079.882095
9052.478856
9044.45458
9067.52158
9075.568208
9041.280632
9035.089199
9073.042461
9090.432118
9068.840333
9040.833597
9059.921987
9086.900543
9070.47201
9045.438057
9064.57115
9079.81504
9059.094973
9037.100856
9051.517731
9071.097859
9065.956958
9057.597406
9055.049307
9071.835467
9074.405917
9042.957013
9037.123208
9075.814077
9099.238706
9059.094973
9047.293251
9068.505057
9073.757717
9047.114437
9039.112513
9057.619757
9071.187266
9047.136789
9039.179568
9072.930702
9111.040427
9100.266886
9075.612912
9067.052194
9087.302874
9075.389394
9047.896749
9055.004603
9094.43308
9104.089034
9061.508961
9056.613929
9082.363138
9095.751833
9079.658577
9070.807287
9107.508851
9104.714883
9061.151333
9047.606176
9078.451583
9110.861613
9086.162935
9051.920063
9069.354423
9107.24063
9098.501098
9066.180475
9076.752851
9109.520508
9090.029787
9042.822903
9038.129036
9089.515697
9114.79552
9086.632322
9071.299025
9086.207639
9093.561362
9067.879208
9056.725688
9093.851935
9113.834395
9089.202772
9066.247531
9071.544894
9087.168764
9080.105612
9071.030804
9098.00936
9119.310572
9096.780014
9068.505057
9064.280577
9098.255229
9103.038502
9077.89279
9079.077432
9103.709054
9090.990912
9062.492438
9059.072621
9082.89958
9076.61874
9052.992946
9030.596498
9040.855949
9057.01626
9029.613022
9006.948353
9018.772426
9046.667403
9035.647993
9008.602382
9015.307905
9040.341859
9053.372926
9020.649972
9015.263202
9039.224272
9046.332126
9030.149463
9032.272879
9051.003641
9046.89092
9024.136844
9017.051341
9042.554682
9051.070696
9020.918193
9010.815204
9046.421533
9065.107592
9042.53233
9025.477949
9032.02701
9050.288385
9039.894824
9028.338972
9037.190263
9057.239778
9054.557568
9028.584841
9026.036742
9041.459446
9038.911347
9023.488644
9032.339934
9062.917121
9054.870493
9023.689809
9018.928888
9038.129036
9028.070751
8998.789966
8986.228286
9005.093158
9036.430304
9029.07658
8982.629655
8984.820126
9008.647085
9002.790928
8986.295341
9001.606286
9012.625696
9004.377902
8992.062091
8997.918248
9019.130053
9009.563507
8971.833762
8988.97755
9031.021181
9030.261222
9000.064015
8994.0961
9018.213632
9019.666495
8995.77248
8976.102945
8994.163155
9006.948353
9001.650989
8992.397367
9010.658742
9016.64901
8996.867716
8984.507201
9004.288495
9031.13294
9013.184489
8986.183582
9001.069844
9020.359399
9005.160213
8972.079631
8978.271065
9015.218498
9011.91044
8972.347852
8969.129201
8993.783175
8993.649065
8976.326463
8956.612224
8974.49362
9010.50228
9007.03776
8979.545114
8996.040701
9023.801568
8989.782213
8954.801733
8973.420736
9016.492548
9000.220478
8966.04466
8985.691844
9022.080484
9004.534364
8963.675375
8952.991242
8989.066957
9003.528536
8976.661739
8976.639387
9010.792853
9016.224327
8996.15246
8974.247751
8981.377957
9009.787024
8999.86285
8961.082573
8972.727832
9010.390521
8987.725852
8948.923224
8955.069954
8978.941617
8988.776384
8963.921245
8944.452875
8969.129201
8989.938675
8973.331329
8968.548056
8983.970759
8986.585913
8955.472285
8955.02525
8982.294379
8990.720986
8972.19139
8955.159361
8978.874562
8984.127222
8956.321651
8945.92809
8975.745317
9007.55185
8989.581047
8963.809486
8960.926111
8986.54121
8997.292399
8968.34689
8963.027175
8987.94937
8977.980492
8936.965041
8939.937823
8980.372129
9001.673341
8975.611207
8968.883332
8999.080539
9001.114547
8955.472285
8928.225509
8960.948463
8998.678207
8984.350739
8950.823122
8964.390631
8986.340044
8990.273951
8977.756974
8962.378974
8976.594684
8969.687995
8942.508273
8947.425657
8991.369187
8996.264219
8965.128239
8961.730774
8990.430414
8981.757937
8955.002899
8963.295396
9004.243792
9027.444902
9010.971667
8979.567466
9006.79189
9051.361269
9032.697562
8989.290475
9005.428434
9029.411856
9026.863757
9007.127167
9018.213632
9036.89969
9018.347742
8996.241867
8997.828841
9026.550833
9023.801568
8994.364321
8996.264219
9030.887071
9035.379772
9005.942524
8982.69671
9007.820071
9025.276783
8999.013483
8984.462498
9004.132033
9026.729647
9014.391484
8991.637408
8998.722911
9027.958992
9024.829748
9017.654838
9024.8521
9037.547891
9015.75494
9008.647085
9032.719914
9070.024976
9071.030804
9051.070696
9051.093048
9069.354423
9072.841295
9046.555644
9034.910385
9057.038612
9062.805362
9036.542062
9030.417684
9065.062888
9086.453508
9056.636281
9033.144597
9040.386562
9066.381641
9057.373888
9033.81515
9040.587728
9063.610025
9059.385545
9033.032838
9030.842368
9060.123153
9073.824772
9044.879263
9047.740286
9078.228066
9067.409821
9038.285498
9023.689809
9052.680022
9068.505057
9036.676173
9036.854987
9068.840333
9087.906371
9052.411801
9019.59944
9041.481798
9068.438002
9048.455542
9026.863757
9038.129036
9066.694566
9060.480781
9035.089199
9029.143635
9048.969632
9052.344746
9036.340897
9040.252452
9070.181438
9062.112458
9033.144597
9035.513882
9064.526446
9085.604141
9055.675156
9037.682001
9060.905464
9079.591522
9071.74606
9061.464257
9084.508906
9112.314476
9084.777127
9063.721784
9065.666385
9082.586656
9075.255284
9051.7636
9063.207693
9086.542915
9085.604141
9055.518693
9045.169836
9086.699377
9091.125022
9063.274749
9051.584786
9090.096842
9095.148336
9063.67708
9052.992946
9066.716917
9073.087165
9063.140638
9055.831618
9081.714938
9108.559383
9074.294159
9035.536234
9046.399182
9077.557513
9076.909313
9056.792743
9057.642109
9085.447679
9090.119194
9042.308812
9036.76558
9074.785897
9090.96856
9066.403993
9047.583824
9062.447734
9088.375758
9076.10465
9047.986156
9059.676118
9088.01813
9067.834505
9059.609063
9086.967598
9107.397092
9087.884019
9070.85199
9078.362176
9101.205659
9090.432118
9063.721784
9071.209618
9088.576923
9086.185287
9056.904502
9057.060964
9084.486554
9098.277581
9079.502115
9062.045403
9072.997758
9090.767394
9072.438964
9053.819961
9087.682854
9118.081226
9098.769319
9076.171705
9083.033691
9085.022996
9055.85397
9034.97744
9069.063851
9111.800386
9118.416502
9099.350464
9071.634301
9056.569225
9062.090106
9060.793705
9051.361269
9068.058022
9077.401051
9029.72478
8993.023216
9021.320524
9034.97744
9011.999847
8993.58201
9013.69858
9040.900653
9031.579975
9001.092196
9008.110643
9035.692696
9023.287478
9002.254486
9006.478966
9027.377847
9026.170853
8996.644198
9006.2778
9027.243737
9026.573184
9015.352609
8997.69473
9029.233042
9035.200958
9008.870603
8997.851193
9017.319562
9030.551795
8999.438167
8993.045568
9023.198071
9050.154275
9034.97744
8998.119414
8999.505222
9013.542117
9008.870603
9008.44592
9014.682056
9032.630507
9027.891937
8986.809431
8970.470306
8996.755957
9014.503242
8993.894934
8988.441108
9005.875469
9011.53046
8979.567466
8960.210855
8981.333254
9000.823975
8988.84344
8972.951349
8994.0961
9010.546984
8994.699597
8980.439184
8988.932847
9005.6296
8990.855097
8970.850285
8989.335178
9017.654838
9017.453673
8978.092251
8966.446992
9002.343893
9010.234059
8979.008672
8982.294379
9005.026103
8999.818146
8978.695748
8980.528591
9003.215611
9021.365228
8996.755957
8978.33812
9000.667512
9021.365228
9008.848251
8989.335178
8994.811355
8998.857021
8999.684036
8986.988245
8994.207858
9014.704408
9020.11353
9013.542117
9000.131071
9017.118396
9015.88905
8982.540248
8984.194277
9022.102835
9021.924021
9007.596553
9003.215611
9012.335123
9021.588745
8995.213687
8981.333254
9004.802585
9033.524577
8998.007655
8960.389669
8988.262294
9029.277745
9020.739379
8999.237001
8999.572277
9022.527519
9011.642219
8991.123318
8994.878411
9020.269992
9029.165987
8998.007655
8995.034873
9020.180585
9022.751036
8996.063053
8982.339082
9012.402178
9025.299135
9004.064978
8981.400309
8979.522762
9007.328332
9014.458539
9002.29919
9008.937658
9021.566394
8993.090271
8968.615111
8993.760823
9031.64703
9015.866699
8976.058242
8973.867771
8991.972684
9001.762748
8979.433355
8957.506294
8990.206896
9010.591687
8973.21957
8950.979585
8976.862905
9000.846326
8989.134012
8966.469343
8985.177754
9009.898783
8991.078614
8963.9883
8974.11364
8990.720986
8975.410041
8952.343041
8949.280852
8980.729756
9003.684998
8978.002844
8968.771573
8998.387635
8991.235076
8968.391594
8965.865846
8983.769594
8996.420681
8966.782268
8952.477151
8982.674358
9005.920172
8987.815259
8962.311919
8968.481
8979.276893
8978.33812
8966.715213
8968.905684
8995.213687
8989.066957
8971.319672
8990.229248
9009.339989
8993.514954
8959.227378
8944.296413
8973.756012
8992.129146
8978.98632
8960.501428
8986.02712
9001.114547
8965.709384
8949.370259
8985.065995
8995.526611
8968.279835
8957.886274
8993.291437
9015.151443
8993.537306
8967.8328
8985.51303
9022.304001
9034.686868
9023.555699
9026.64024
9050.333089
9046.130961
9015.263202
9011.53046
9050.377792
9060.369022
9029.881242
9015.576126
9043.04642
9056.010432
9030.842368
9011.619867
9028.718952
9057.329185
9030.350629
9016.045513
9034.262184
9050.802475
9054.19994
9038.441961
9043.068772
9061.531313
9052.076525
9031.8929
9035.200958
9053.909368
9052.590615
9023.868623
9036.475007
9065.688737
9064.548798
9035.625641
9023.645106
9056.792743
9060.749002
9032.630507
9021.834614
9041.750019
9063.632377
9048.768467
9032.809321
9064.258225
9074.495324
9059.921987
9039.268975
9062.805362
9097.62938
9088.621627
9052.232987
9060.592539
9088.420461
9089.873325
9058.782048
9043.918138
9072.930702
9088.845144
9063.02888
9043.068772
9075.97054
9100.356293
9080.731461
9054.423458
9064.034708
9077.758679
9062.514789
9049.461371
9072.081336
9087.012301
9077.13283
9046.332126
9053.507036
9077.222237
9085.492383
9058.335013
9070.069679
9094.969522
9093.717825
9068.572112
9065.800496
9079.032729
9068.169781
9046.913272
9057.329185
9087.63815
9094.768357
9065.420516
9044.231062
9075.478801
9087.682854
9059.586711
9048.388487
9070.516714
9099.261057
9079.077432
9048.880225
9057.843275
9102.435005
9106.72654
9079.859743
9078.451583
9111.152185
9108.917011
9075.881133
9078.496287
9107.061816
9113.879098
9073.981234
9072.930702
9105.497194
9117.030694
9084.039519
9067.856856
9093.807232
9117.835357
9100.356293
9078.295121
9093.091976
9106.592429
9077.13283
9057.172722
9073.042461
9108.984066
9116.740121
9087.816964
9092.309665
9110.325171
9102.032674
9077.490458
9074.495324
9105.296028
9114.169671
9075.165877
9060.570188
9112.11331
9135.850863
9096.958828
9077.289292
9110.392226
9140.611785
9123.333886
9103.552592
9120.718732
9153.553445
9153.329927
9133.682744
9127.379552
9135.113255
9133.794502
9121.948078
9125.099674
9145.909148
9146.512645
9121.501043
9118.014171
9136.588471
9137.571947
9116.740121
9108.26881
9128.005401
9149.708945
9133.012191
9126.910165
9146.892625
9153.24052
9124.943212
9101.205659
9116.583659
9139.337735
9135.739104
9133.369819
9147.071439
9153.665203
9137.86252
9116.315438
9116.248383
9127.200738
9122.99861
9102.725578
9111.241592
9154.983956
9168.685576
9138.711886
9104.916049
9106.681836
9130.151168
9119.310572
9105.251325
9121.098712
9135.001497
9097.830546
9068.080374
9079.122136
9087.436984
9066.292234
9040.74419
9043.739324
9056.144542
9036.810283
8993.559658
8996.420681
9027.847234
9035.804455
9016.671362
9002.500356
9019.331219
9037.950222
9021.633449
9008.490623
9028.003696
9036.00562
9013.072731
8997.448861
9015.039684
9035.715048
9027.109626
9000.086367
9017.341914
9055.47399
9032.250527
9008.043588
9017.096045
9044.275766
9044.052248
9019.442978
9022.438112
9047.516769
9043.985193
9010.390521
9003.819108
9031.311754
9038.240795
9015.509071
9005.920172
9028.540138
9050.824827
9039.71601
9023.913327
9046.198016
9059.474952
9030.015353
9002.500356
9010.837556
9028.920117
9021.119359
9006.926001
9023.801568
9049.729592
9049.371964
9031.155292
9028.584841
9053.819961
9055.183417
9025.097969
9021.029952
9051.361269
9062.894769
9037.704353
9015.285553
9047.650879
9079.345653
9047.941452
9019.398274
9037.994926
9061.866589
9053.060001
9033.703391
9047.762638
9068.192132
9053.015298
9030.060056
9035.066847
9063.073583
9055.295176
9028.160158
9037.436132
9076.48463
9077.333996
9041.750019
9027.489606
9060.413725
9078.652749
9047.650879
9031.602327
9056.837446
9063.475914
9034.888033
9019.197109
9053.283519
9073.713013
9045.572167
9017.766597
9046.153312
9078.898618
9059.139676
9027.266088
9044.611042
9080.910275
9075.121173
9032.585804
9028.987173
9053.03765
9063.118287
9053.752906
9047.069734
9070.136734
9083.927761
9044.052248
9026.886109
9060.436077
9073.355385
9053.104705
9043.627565
9066.001662
9077.51281
9058.089144
9030.931774
9041.414743
9077.579865
9079.703281
9064.548798
9061.263092
9070.628473
9056.12219
9029.814187
9040.274804
9071.947226
9074.852952
9054.423458
9057.843275
9081.849048
9085.827659
9058.8044
9036.00562
9062.403031
9079.05508
9048.612004
9024.494472
9038.240795
9051.920063
9027.377847
9008.96001
9029.389504
9049.014336
9033.748094
9002.679169
9008.535327
9040.453618
9036.027972
9011.01637
9009.116472
9036.117379
9046.287423
9013.430359
9018.325391
9046.488589
9045.169836
9019.398274
8998.767614
9023.198071
9040.118341
9020.918193
9002.410949
9021.544042
9048.008507
9036.117379
9009.965838
9008.892954
9034.262184
9031.088237
9001.740396
9029.300097
9054.266996
9030.462388
9004.73553
9014.145614
9035.245661
9018.660667
9005.651952
9021.722856
9042.577033
9049.371964
9028.808359
8996.085405
9011.709274
9042.53233
9030.23887
9014.816167
9019.174757
9038.218443
9030.99883
9011.508109
9015.933754
9037.123208
9036.497359
9022.348705
9021.924021
9043.4264
9036.609118
9002.723873
8998.208821
9029.165987
9042.822903
9015.665533
9014.592649
9045.326298
9043.202882
9027.400199
9005.227268
9013.139786
9041.660612
9032.5411
9015.106739
9042.66644
9058.625586
9042.129998
9029.367152
9052.054173
9078.675101
9067.00749
9052.680022
9053.998775
9077.579865
9065.934606
9036.117379
9040.811246
9079.479763
9082.050214
9061.866589
9058.8044
9084.777127
9087.235819
9042.241757
9038.397257
9075.322339
9090.722691
9058.625586
9025.656763
9051.607138
9072.193095
9056.323356
9038.084333
9047.203844
9066.269882
9059.407897
9028.338972
9046.51094
9081.804345
9066.180475
9035.536234
9029.009524
9057.955034
9069.332071
9035.223309
9020.180585
9050.958938
9057.552702
9035.335068
9022.616926
9053.618795
9072.930702
9044.119304
9020.895841
9039.33603
9068.572112
9055.205769
9016.246678
9015.352609
9044.052248
9032.92108
9011.753978
9025.36619
9051.540083
9050.802475
9025.030914
9026.059094
9044.342821
9047.181493
9019.621792
9020.851138
9042.197054
9054.44581
9023.82392
9002.388597
9024.941507
9057.01626
9046.041554
9028.942469
9040.051286
9048.500246
9031.021181
9011.642219
9025.768522
9063.274749
9052.165932
9005.026103
9011.306943
9037.682001
9048.410839
9027.891937
9025.053266
9043.292289
9039.648955
9012.357475
9005.942524
9038.82194
9052.747077
9020.381751
9003.640295
9031.781141
9045.10278
9022.952202
9007.305981
9026.059094
9047.628528
9026.796702
9004.891992
9022.818091
9047.829693
9037.480836
9013.877393
9027.735475
9068.259188
9071.857819
9022.683981
9007.708312
9034.753923
9055.406935
9046.242719
9028.741304
9035.402123
9055.921025
9031.557623
9013.408007
9029.188338
9048.030859
9032.183472
9016.067864
9052.188283
9068.683871
9028.249565
9011.686923
9040.699487
9064.101763
9046.980327
9019.890013
9028.115455
9052.389449
9057.552702
9030.372981
9018.638315
9042.264109
9044.096952
9019.867661
9018.548908
9047.628528
9053.529388
9036.273841
9028.070751
9030.350629
9031.781141
9007.082463
8985.781251
9001.226306
9025.589708
9003.014446
8966.402288
8975.924131
9016.514899
9008.937658
8958.22155
8956.634576
8999.885201
9009.451748
8984.10487
8974.650082
8993.760823
8998.722911
8977.935788
8987.859963
9012.312771
9005.24962
8978.405175
8965.798791
8983.680187
9000.801623
8986.362396
8981.757937
9003.640295
9011.91044
8985.714195
8964.256521
8977.756974
9003.014446
8995.303094
8972.638425
8985.155402
9019.845309
9016.984286
8975.767669
8966.201123
8999.125242
9015.285553
8986.250637
8976.617035
8994.587838
9002.880335
8985.423623
8973.018405
8993.71612
9014.413835
8990.318655
8975.14182
8995.168983
9008.647085
8988.485812
8975.5218
8997.918248
9020.962896
9008.043588
8973.621902
8970.179733
8996.286571
8998.879373
8977.82403
8983.300207
9015.285553
9018.303039
8972.370204
8955.561692
8992.129146
9005.719007
8973.666605
8958.422715
8985.669492
9008.647085
8991.168021
8978.85221
8994.498431
9007.55185
8995.884239
8965.105887
8988.262294
9013.184489
9000.443995
8972.772535
8988.396405
9036.676173
9039.224272
9003.640295
9002.276838
9043.04642
9052.188283
9022.505167
9015.710237
9044.923967
9064.034708
9045.259243
9027.131978
9037.905519
9043.158179
9032.474045
9020.851138
9049.304908
9081.022034
9056.211597
9018.884184
9020.940545
9053.439981
9054.758734
9018.437149
9021.90167
9067.231007
9068.907388
9027.757827
9022.393408
9050.914234
9061.486609
9034.418647
9022.147539
9054.535217
9060.369022
9045.505112
9034.284536
9048.276728
9058.670289
9053.641147
9034.642164
9040.900653
9055.384583
9044.789856
9016.045513
9022.862795
9052.881188
9060.704298
9035.044495
9041.235929
9068.236836
9060.391374
9024.136844
9014.480891
9053.03765
9065.46522
9038.643126
9035.446827
9062.626548
9061.017223
9043.336993
9031.848196
9052.076525
9061.486609
9047.606176
9032.02701
9041.750019
9068.41565
9073.780069
9033.43517
9023.622754
9055.451638
9060.458429
9035.826807
9045.460408
9060.704298
9036.653821
9007.17187
9026.327315
9060.458429
9058.647938
9028.718952
9022.371056
9048.097914
9061.576016
9038.397257
9021.700504
9052.791781
9072.707185
9049.573129
9017.945411
9032.02701
9062.000699
9061.978348
9025.477949
9037.167911
9066.87338
9054.557568
9020.62762
9016.984286
9054.401106
9066.381641
9047.069734
9042.711144
9056.725688
9048.388487
9015.442016
9015.598478
9047.628528
9054.758734
9051.7636
9026.550833
9034.128074
9056.591577
9039.693658
9019.018295
9036.76558
9059.117324
9052.14358
9020.560565
9014.570298
9051.696545
9056.233949
9029.523615
9024.919155
9068.750926
9076.574037
9030.015353
9017.945411
9043.828731
9059.296138
9036.162083
9014.123263
9038.620775
9062.179513
9036.162083
9021.231117
9049.953109
9068.572112
9052.300042
9013.117434
9021.767559
9056.725688
9057.507999
9027.064923
9034.999792
9064.302929
9053.663499
9028.338972
9028.338972
9065.107592
9068.125077
9031.199995
9031.065885
9067.812153
9067.253359
9023.935678
9020.225289
9072.863647
9082.586656
9042.979365
9016.671362
9039.470141
9063.2971
9041.079466
9020.694676
9040.297155
9055.652804
9032.697562
9016.492548
9044.0746
9067.52158
9059.027917
9026.059094
9014.21267
9055.563397
9061.866589
9034.776275
9031.803493
9050.914234
9061.441906
9035.960917
9037.704353
9066.471048
9068.728574
9032.742266
9003.863812
9040.811246
9073.936531
9052.970595
9031.8929
9047.248548
9063.833542
9053.507036
9038.888996
9042.286461
9062.537141
9061.576016
9044.722801
9050.422496
9071.254321
9061.911292
9024.203899
9019.577088
9056.88215
9071.701356
9043.806379
9036.095027
9060.86076
9084.17363
9060.145504
9041.012411
9057.463295
9077.13283
9053.015298
9035.111551
9059.296138
9080.195019
9058.737345
9030.529443
9053.484685
9076.439926
9056.613929
9032.228176
9041.213577
9072.036633
9068.013319
9033.301059
9023.399237
9060.972519
9079.747984
9062.6489
9046.309775
9069.063851
9082.541952
9047.203844
9036.050324
9057.440943
9069.801458
9043.158179
9039.984231
9070.002624
9079.099784
9050.690717
9032.5411
9049.304908
9074.338862
9052.322394
9027.511958
9040.878301
9101.540935
9109.788729
9063.140638
9050.22133
9065.398164
9082.027862
9079.56917
9064.05706
9080.954979
9100.713921
9074.160048
9052.322394
9070.561417
9091.929685
9077.311644
9063.431211
9073.087165
9084.441851
9068.192132
9036.89969
9054.021127
9091.884982
9092.868458
9064.101763
9060.056098
9074.718842
9072.863647
9047.427362
9044.767504
9076.61874
9091.750871
9078.518638
9064.615853
9057.932682
9078.92097
9076.328167
9054.378754
9069.019147
9088.822793
9064.749964
9034.32924
9059.899635
9099.104595
9093.494307
9058.737345
9057.686813
9071.924874
9059.69847
9031.781141
9061.508961
9108.469976
9082.094918
9048.857874
9041.50415
9072.371909
9092.309665
9070.3379
9078.071604
9090.208601
9093.874287
9060.21256
9055.161065
9091.370891
9110.19106
9082.810173
9065.040537
9082.720766
9109.788729
9096.958828
9073.400089
9075.881133
9103.351427
9087.057005
9046.332126
9054.222292
9099.015188
9105.966581
9069.220313
9066.4934
9083.927761
9095.19304
9072.818944
9062.581845
9094.008397
9098.501098
9077.781031
9077.781031
9110.302819
9115.846052
9081.893752
9062.626548
9084.777127
9116.114273
9101.60799
9076.328167
9085.268865
9113.990857
9113.543822
9087.682854
9077.736327
9097.361159
9086.051176
9048.522597
9055.161065
9085.559438
9083.950112
9053.261167
9041.63826
9052.925891
9064.258225
9030.685905
9018.995943
9062.358327
9081.2232
9045.10278
9021.029952
9045.99685
9057.150371
9040.163045
9039.783065
9057.709164
9066.605159
9046.622699
9016.380789
9018.817129
9040.923004
9060.480781
9047.114437
9044.543987
9067.566284
9062.313624
9037.704353
9014.972629
9048.701411
9065.040537
9047.092086
9029.970649
9043.269937
9076.842258
9058.782048
9023.868623
9028.383676
9039.738362
9044.499283
9036.318545
9045.013373
9070.047327
9068.370946
9026.886109
9015.553774
9032.138769
9051.294214
9038.285498
9029.59067
9066.783973
9069.242664
9028.763655
9005.070806
9035.826807
9061.777182
9048.500246
9036.564414
9053.350574
9072.662481
9047.740286
9041.794722
9062.805362
9076.462278
9071.321377
9057.351536
9052.434153
9075.344691
9075.568208
9049.148446
9048.746115
9076.082298
9085.827659
9078.339824
9070.986101
9074.808249
9073.131868
9054.19994
9046.019202
9066.940435
9086.453508
9084.68772
9054.378754
9058.692641
9082.38549
9071.433135
9044.611042
9048.120266
9087.593447
9080.46324
9047.2709
9044.812208
9069.488534
9077.333996
9053.887016
9056.770391
9092.533182
9091.48265
9062.604196
9048.232025
9074.204752
9095.573019
9084.978293
9072.39426
9087.660502
9099.015188
9081.603179
9057.262129
9058.357365
9087.168764
9091.527354
9062.671252
9066.828676
9100.937438
9093.337845
9053.216464
9052.076525
9089.381586
9098.255229
9079.345653
9064.727612
9089.068662
9104.9384
9087.63815
9077.51281
9088.934551
9083.748947
9063.475914
9059.430249
9080.999682
9114.661409
9099.730444
9067.856856
9077.825734
9096.690607
9075.59056
9057.709164
9080.619702
9097.897601
9072.528371
9053.55174
9070.561417
9103.150261
9107.352389
9083.033691
9075.679967
9109.498156
9126.574889
9097.472918
9076.216409
9093.203735
9102.658522
9081.312606
9086.22999
9112.403883
9130.106465
9104.178441
9080.038557
9101.585639
9127.938345
9108.112348
9077.959845
9078.675101
9100.825679
9109.587563
9085.984121
9089.694511
9121.702209
9112.649752
9084.933589
9096.847069
9129.748837
9113.856746
9084.911237
9082.698415
9095.014226
9105.564249
9090.052139
9079.658577
9095.550668
9114.661409
9114.236726
9102.50206
9108.849956
9111.576868
9088.353406
9075.07647
9086.967598
9115.331962
9111.286296
9079.345653
9083.704243
9123.89268
9140.455322
9126.619593
9122.61863
9131.2017
9133.950965
9099.596333
9086.98995
9124.742046
9147.138494
9117.36597
9102.50206
9125.837281
9133.056895
9114.840223
9095.952999
9119.176462
9140.097694
9127.133683
9113.230898
9137.549596
9144.053953
9117.142453
9085.559438
9093.4049
9128.988877
9135.694401
9107.732368
9121.143415
9151.094753
9145.819741
9110.481633
9088.465165
9096.489441
9122.216299
9121.769264
9111.152185
9128.363029
9148.189026
9119.176462
9088.196944
9108.425273
9128.966526
9115.913107
9098.344636
9119.601145
9144.232767
9126.060799
9097.62938
9103.954924
9148.792523
9141.215282
9097.383511
9100.57981
9118.081226
9104.737235
9093.471955
9112.582697
9137.236671
9156.57093
9131.894604
9102.680874
9112.202717
9128.810063
9116.136624
9089.538048
9104.9384
9140.544729
9132.721619
9105.117214
9114.057912
9130.709962
9117.075398
9089.381586
9092.622589
9126.910165
9141.751723
9108.224107
9106.055988
9128.966526
9123.669162
9097.405862
9090.610932
9129.391209
9151.653546
9119.467034
9084.620665
9100.4457
9132.900433
9125.479654
9104.513717
9110.258116
9140.768247
9119.601145
9096.891772
9108.402921
9136.364953
9135.828511
9104.781938
9097.584676
9129.882947
9142.869311
9132.74397
9125.390247
9136.007325
9128.273622
9120.986953
9113.454415
9128.586546
9137.035505
9132.542805
9117.656543
9132.900433
9145.41741
9119.087055
9106.883002
9119.176462
9141.19293
9121.545747
9100.468051
9111.710979
9121.255174
9114.370837
9114.124967
9122.551575
9155.185122
9150.021869
9099.238706
9087.012301
9119.422331
9137.907223
9125.725523
9119.757607
9139.561253
9144.52334
9113.722636
9098.769319
9111.867441
9139.382439
9130.5535
9109.788729
9131.939308
9155.922729
9125.770226
9093.427252
9107.285334
9123.557404
9118.595316
9120.271697
9119.243517
9137.549596
9141.058819
9110.95102
9106.883002
9132.453398
9120.830491
9100.043368
9103.552592
9126.686648
9118.438854
9073.578903
9046.734458
9058.357365
9077.088127
9052.27769
9040.923004
9057.329185
9048.857874
9035.87151
9009.004713
9031.825844
9067.38747
9061.911292
9036.564414
9038.441961
9064.928778
9048.902577
9017.319562
9011.91044
9042.800551
9064.526446
9052.27769
9033.770446
9036.027972
9062.470086
9043.627565
9015.151443
9036.296193
9057.195074
9043.985193
9017.028989
9033.323411
9067.186304
9048.164969
9007.864774
9031.311754
9077.378699
9072.751888
9031.13294
9027.131978
9057.39624
9063.788839
9031.423513
9019.353571
9047.740286
9055.518693
9027.511958
9020.560565
9043.202882
9052.568263
9024.181548
9007.931829
9035.759751
9058.782048
9027.623716
9006.635428
9020.918193
9030.909423
9028.160158
9017.766597
9021.588745
9040.587728
9031.021181
9009.831728
9012.335123
9044.991022
9057.239778
9031.199995
9015.956106
9032.898728
9040.319507
9020.359399
9024.427417
9037.503187
9034.530405
9023.600402
9022.706333
9030.529443
9050.73542
9037.167911
9007.708312
9010.099949
9040.632432
9047.472065
9032.697562
9036.564414
9049.595481
9029.680077
9004.422606
9010.435225
9043.873435
9048.746115
9015.553774
9007.17187
9041.459446
9057.77622
9039.470141
9014.749112
9034.664516
9044.164007
9018.683019
9009.116472
9031.758789
9062.537141
9047.382658
9009.831728
9013.631524
9042.286461
9030.730609
9001.449824
9017.900707
9054.356403
9043.895786
9006.322504
9021.52169
9061.732478
9050.35544
9015.553774
9000.533402
9034.195129
9053.954071
9027.623716
9009.742321
9033.479873
9052.635318
9022.080484
9007.663609
9027.377847
9044.499283
9026.64024
9007.954181
9028.607193
9049.617833
9036.273841
9015.464367
9015.486719
9031.311754
9034.865682
9014.100911
9016.313734
9056.770391
9062.604196
9031.13294
9026.863757
9069.756755
9075.903484
9047.203844
9018.928888
9038.218443
9068.236836
9051.428324
9034.351591
9053.797609
9069.265016
9056.010432
9035.692696
9056.546874
9080.709109
9071.433135
9038.978402
9047.002679
9082.296083
9084.240685
9043.247586
9029.903594
9048.455542
9055.809266
9034.217481
9034.709219
9068.460353
9087.12406
9049.170798
9031.177644
9059.407897
9076.439926
9047.829693
9029.769484
9044.186359
9054.982252
9050.198978
9046.555644
9067.633339
9088.286351
9084.061871
9062.604196
9062.13481
9078.339824
9082.720766
9064.57115
9067.409821
9091.192078
9085.000644
9055.406935
9051.853007
9078.451583
9089.314531
9069.019147
9057.351536
9079.233894
9092.711996
9057.39624
9031.13294
9066.649862
9106.838299
9083.65954
9052.344746
9067.00749
9092.734348
9080.820868
9047.963804
9048.276728
9078.630397
9082.676063
9055.339879
9053.417629
9081.267903
9086.453508
9065.375813
9053.484685
9076.730499
9090.029787
9055.742211
9050.064868
9084.531258
9098.456394
9080.038557
9056.993909
9060.525484
9106.123043
9106.547726
9063.185342
9069.086202
9100.646865
9091.884982
9061.486609
9076.574037
9103.440834
9106.614781
9075.791726
9064.504095
9097.338807
9096.042406
9068.840333
9061.710127
9092.7567
9104.714883
9082.921932
9070.762583
9100.915086
9109.744025
9073.847124
9056.859798
9068.281539
9079.703281
9088.822793
9072.036633
9068.616816
9099.641037
9099.439871
9075.322339
9064.213522
9088.576923
9093.27079
9065.062888
9071.991929
9100.825679
9100.468051
9079.636226
9062.090106
9080.038557
9092.823755
9067.745098
9049.796647
9063.922949
9081.200848
9051.875359
9028.271917
9054.311699
9080.776165
9062.045403
9033.077542
9041.906481
9056.993909
9046.801513
9020.895841
9017.721894
9043.113475
9046.645051
9035.603289
9031.199995
9049.640185
9055.161065
9027.891937
9029.568318
9042.219405
9047.449714
9035.245661
9021.611097
9039.894824
9060.793705
9038.084333
9010.569335
9026.059094
9060.100801
9052.702374
9029.568318
9044.946318
9066.381641
9046.801513
9017.610135
9013.430359
9047.002679
9062.6489
9043.359344
9028.808359
9046.846217
9055.876321
9041.750019
9036.340897
9069.644996
9088.01813
9055.630452
9031.378809
9046.712106
9058.044441
9031.535272
9020.851138
9043.04642
9086.833487
9074.249455
9035.536234
9045.281594
9078.138659
9077.177534
9047.673231
9050.511903
9074.651787
9064.280577
9041.302984
9045.48276
9073.221275
9078.630397
9060.838409
9048.209673
9078.116307
9103.552592
9081.714938
9050.198978
9056.077487
9071.36608
9065.487571
9049.237853
9077.378699
9107.419444
9066.985138
9038.620775
9058.200903
9079.837391
9075.009415
9052.836484
9054.736382
9088.53222
9094.455432
9061.196036
9055.876321
9080.530295
9088.01813
9057.642109
9046.242719
9071.097859
9090.58858
9066.895731
9050.757772
9068.639167
9083.368967
9073.489496
9040.677135
9048.857874
9080.195019
9077.579865
9047.337955
9066.225179
9094.343674
9071.88017
9048.723763
9063.587673
9087.615798
9081.334958
9041.861778
9037.391429
9077.803383
9095.438909
9062.805362
9053.261167
9082.832525
9100.244534
9075.612912
9050.847179
9075.21058
9098.791671
9074.56238
9047.293251
9071.36608
9096.288275
9073.645958
9061.24074
9067.342766
9084.553609
9069.063851
9050.22133
9078.518638
9103.440834
9099.93161
9074.718842
9087.615798
9116.673066
9112.202717
9086.632322
9081.8714
9098.568153
9097.137642
9065.331109
9069.95792
9108.425273
9130.17352
9104.178441
9071.634301
9090.119194
9097.383511
9088.062833
9080.530295
9088.66633
9119.869366
9112.314476
9080.150316
9072.26015
9106.972409
9108.559383
9081.245551
9083.927761
9107.017113
9109.989895
9087.615798
9074.607083
9093.829583
9107.397092
9088.465165
9083.167801
9106.838299
9118.952944
9103.887868
9087.906371
9094.43308
9109.364046
9087.794612
9070.203789
9102.435005
9121.501043
9116.807177
9094.880115
9093.986046
9111.778034
9112.828566
9106.86065
9129.078284
9151.608843
9146.736163
9114.773168
9109.922839
9147.250253
9155.810971
9116.248383
9104.245496
9119.511738
9135.917918
9125.457302
9108.984066
9140.008287
9157.353241
9115.667238
9098.188174
9113.454415
9146.087962
9146.467942
9117.343619
9124.049142
9152.301747
9156.168599
9129.570023
9116.807177
9134.934441
9134.666221
9101.898563
9099.797499
9130.374686
9163.187046
9144.277471
9116.538956
9140.209453
9157.822628
9117.455377
9090.476822
9116.293087
9143.897491
9140.276508
9130.933479
9129.435912
9136.141436
9133.794502
9116.918935
9116.226031
9135.649697
9137.527244
9119.243517
9116.918935
9155.855674
9155.274529
9115.801348
9090.812098
9118.975296
9152.435857
9134.621517
9120.718732
9144.121008
9155.54275
9134.129779
9121.545747
9149.194854
9183.191858
9169.89257
9131.71579
9121.925726
9151.988822
9150.982994
9128.050104
9129.927651
9153.978128
9154.291052
9128.161863
9128.698305
9165.690442
9171.747765
9136.879043
9117.924764
9154.380459
9169.087907
9134.867386
9112.35918
9132.051066
9136.029677
9095.125985
9079.725633
9086.520563
9098.903429
9084.419499
9050.869531
9062.335975
9094.16486
9083.190153
9041.25828
9032.094065
9059.273786
9065.062888
9026.26026
9031.222347
9067.342766
9071.567246
9048.947281
9036.430304
9053.395278
9067.968615
9058.692641
9031.267051
9047.650879
9061.330147
9033.971612
9018.928888
9038.017277
9059.944339
9044.543987
9033.882205
9054.356403
9072.103688
9052.344746
9022.862795
9024.941507
9048.723763
9055.675156
9038.598423
9036.027972
9056.166894
9056.748039
9046.980327
9025.165024
9029.568318
9050.847179
9045.281594
9033.077542
9047.136789
9072.483667
9052.545911
9035.826807
9049.729592
9077.177534
9062.939473
9030.976478
9038.553719
9064.95113
9074.428269
9051.428324
9053.060001
9085.671197
9084.397147
9053.819961
9040.811246
9062.537141
9080.574999
9065.867551
9053.216464
9067.298063
9085.447679
9073.489496
9064.615853
9081.469069
9098.635208
9085.626493
9060.86076
9071.924874
9100.646865
9089.314531
9063.274749
9072.438964
9092.600237
9073.66831
9056.926853
9083.950112
9118.595316
9120.875194
9085.246514
9070.516714
9114.862575
9146.557349
9119.131758
9098.679912
9122.886851
9144.210415
9110.079302
9090.543877
9108.872307
9128.139511
9116.85188
9101.630342
9110.43693
9125.94904
9117.88006
9091.505002
9104.089034
9137.415485
9124.295011
9086.520563
9095.058929
9130.30763
9128.743008
9099.439871
9095.662426
9116.695418
9109.855784
9091.236781
9089.515697
9115.063741
9125.010267
9100.937438
9088.934551
9107.955886
9120.763435
9103.641999
9081.044386
9103.060854
9135.984973
9119.15411
9074.137697
9073.377737
9094.254267
9080.709109
9067.00749
9063.252397
9096.73531
9095.394205
9070.181438
9065.174647
9077.401051
9085.134755
9060.480781
9050.578958
9075.232932
9093.27079
9084.263037
9074.472973
9090.58858
9103.39613
9077.758679
9053.93172
9065.889903
9084.330092
9076.529333
9052.791781
9067.499228
9094.075453
9091.840278
9062.805362
9065.196999
9098.188174
9108.201755
9071.835467
9062.537141
9092.488479
9095.461261
9058.29031
9056.099839
9084.330092
9090.700339
9071.544894
9062.827714
9075.367042
9088.688682
9077.333996
9060.011394
9087.12406
9119.645848
9090.275656
9047.963804
9060.033746
9085.782955
9074.987063
9055.921025
9060.749002
9091.259133
9097.517621
9056.457467
9047.762638
9078.675101
9093.539011
9073.891827
9052.031821
9062.358327
9075.501153
9069.421478
9062.626548
9072.796592
9072.908351
9057.552702
9054.714031
9075.232932
9093.002569
9065.889903
9028.718952
9060.905464
9112.35918
9096.534144
9057.150371
9052.165932
9081.022034
9087.682854
9058.379717
9064.369984
9086.207639
9082.698415
9054.803438
9043.068772
9074.763545
9103.284371
9083.503077
9066.4934
9086.341749
9099.641037
9090.499173
9077.736327
9093.78488
9123.89268
9115.063741
9097.025883
9105.787767
9115.063741
9102.926743
9072.707185
9077.736327
9103.26202
9114.057912
9101.384473
9103.843165
9125.457302
9122.819796
9088.66633
9072.908351
9100.870383
9119.265869
9103.172613
9079.94915
9093.226086
9107.195927
9097.450566
9072.193095
9079.122136
9111.353351
9110.638095
9085.492383
9087.63815
9113.744988
9098.769319
9073.981234
9089.694511
9110.280467
9112.11331
9088.688682
9080.150316
9095.908296
9112.090959
9095.662426
9080.753813
9106.055988
9117.634191
9100.043368
9093.539011
9092.711996
9106.055988
9099.238706
9080.999682
9089.806269
9125.859633
9126.351372
9094.43308
9092.287313
9115.689589
9122.730389
9098.344636
9104.379607
9133.325116
9134.487407
9111.308648
9096.489441
9105.027807
9135.090904
9127.73718
9112.225069
9125.122026
9128.318325
9097.428214
9083.14545
9118.595316
9147.250253
9134.219186
9116.114273
9117.634191
9134.91209
9124.697342
9093.650769
9102.770281
9126.440779
9130.5535
9104.647828
9096.109461
9126.46313
9132.967488
9111.241592
9105.340732
9117.433026
9126.418427
9107.62061
9096.578848
9117.924764
9126.910165
9105.139566
9087.325226
9112.672104
9132.162825
9112.940325
9091.572057
9119.847014
9149.999517
9127.021924
9096.914124
9112.158014
9144.500988
9137.99663
9124.719694
9132.74397
9147.183197
9147.227901
9126.261965
9116.874232
9145.775038
9159.431953
9127.848938
9116.628363
9130.709962
9142.936366
9131.134645
9105.631304
9129.190043
9158.269663
9138.935404
9113.566174
9132.699267
9155.207474
9141.818779
9116.360142
9110.481633
9125.792578
9121.054008
9102.546764
9123.043313
9157.017965
9153.553445
9124.093845
9124.518529
9144.098657
9136.409657
9108.693493
9092.153203
9098.881078
9105.966581
9079.636226
9052.747077
9061.084278
9071.813115
9046.600347
9026.707295
9057.709164
9082.161973
9064.973481
9035.335068
9036.76558
9052.210635
9056.12219
9043.761676
9046.399182
9064.928778
9053.417629
9021.678152
9016.693713
9057.418592
9067.38747
9044.275766
9028.942469
9057.820923
9084.955941
9063.788839
9025.545004
9049.953109
9072.997758
9060.21256
9038.352554
9034.84333
9057.418592
9057.91033
9039.380734
9045.438057
9067.275711
9057.664461
9053.439981
9046.89092
9061.598368
9066.851028
9037.816112
9023.198071
9056.345708
9072.595426
9048.164969
9029.791836
9059.117324
9076.775202
9052.970595
9031.803493
9042.554682
9064.437039
9053.060001
9038.17374
9046.063905
9071.433135
9066.828676
9039.5819
9041.302984
9058.29031
9059.251435
9042.822903
9043.202882
9071.008452
9067.052194
9026.081446
9016.090216
9049.170798
9073.80242
9060.905464
9046.555644
9068.54976
9090.387415
9062.045403
9029.255394
9057.172722
9091.035615
9078.809211
9060.458429
9077.244589
9105.407787
9105.18427
9086.051176
9083.748947
9100.110424
9097.361159
9062.693603
9059.363193
9097.025883
9110.526336
9079.613874
9064.414688
9092.711996
9107.799424
9072.908351
9058.446772
9085.961769
9108.000589
9092.600237
9075.456449
9087.012301
9102.636171
9090.298008
9063.855894
9067.52158
9104.513717
9110.146357
9063.945301
9056.613929
9094.321322
9105.407787
9084.82183
9071.567246
9079.390356
9091.147374
9071.455487
9061.307795
9088.241647
9105.877174
9091.549705
9076.730499
9090.32036
9087.347577
9063.587673
9055.339879
9090.230953
9117.924764
9096.042406
9078.339824
9099.238706
9134.241537
9130.285279
9097.070586
9101.742101
9116.829528
9119.489386
9099.328113
9102.122081
9125.122026
9126.552537
9099.529278
9086.319397
9113.342656
9117.187156
9089.694511
9088.01813
9120.361104
9140.567081
9110.302819
9080.84322
9097.808194
9123.400941
9121.143415
9098.590505
9103.619647
9133.526282
9126.865462
9100.95979
9096.332979
9108.201755
9112.068607
9103.217316
9109.811081
9137.147264
9130.888776
9098.456394
9093.78488
9114.661409
9128.25127
9098.031711
9085.894714
9116.673066
9138.041334
9122.216299
9104.9384
9116.583659
9131.112293
9116.85188
9094.500136
9107.10652
9131.559328
9129.860595
9097.048235
9095.260095
9125.613764
9133.839206
9114.28143
9122.48452
9141.639965
9142.779904
9118.416502
9106.525374
9136.141436
9157.353241
9144.724506
9123.557404
9132.09577
9134.398
9119.891717
9120.18229
9139.740066
9154.581625
9137.370782
9122.99861
9129.637078
9141.595261
9124.116197
9095.684778
9122.752741
9163.23175
9152.189988
9125.569061
9116.226031
9137.34843
9158.470828
9134.085075
9123.5127
9129.547671
9133.727447
9122.640982
9126.708999
9154.626328
9135.381476
9096.355331
9081.513772
9088.979255
9104.133738
9080.127964
9053.752906
9052.054173
9065.733441
9054.110533
9043.18053
9046.287423
9056.904502
9053.529388
9019.59944
9026.036742
9064.884074
9071.522542
9033.882205
9019.912364
9048.924929
9080.373833
9051.517731
9015.732588
9024.628583
9046.533292
9041.615908
9032.474045
9053.663499
9078.719804
9067.633339
9038.397257
9037.391429
9050.467199
9053.864664
9040.297155
9044.476932
9061.017223
9062.715955
9040.073638
9036.944394
9059.921987
9061.307795
9029.948298
9046.779161
9084.82183
9078.92097
9045.505112
9026.550833
9033.993963
9056.546874
9049.349612
9026.215556
9039.693658
9068.393298
9057.038612
9015.084388
9020.605269
9061.330147
9066.158124
9038.799589
9041.146522
9061.643071
9048.902577
9020.180585
9019.532385
9044.767504
9052.098876
9032.272879
9031.199995
9045.929795
9047.740286
9036.318545
9020.024123
9034.038667
9052.747077
9041.12417
9021.856966
9035.715048
9057.686813
9041.370039
9022.013428
9035.759751
9059.564359
9048.723763
9013.855042
9015.643181
9051.964766
9067.38747
9033.725743
9021.342876
9042.241757
9041.302984
9025.723818
9026.483777
9042.353516
9058.849103
9041.235929
9028.942469
9049.304908
9070.3379
9049.975461
9035.782103
9059.363193
9086.408804
9095.863592
9079.747984
9078.563342
9099.104595
9087.414633
9056.680984
9060.257263
9098.121118
9111.152185
9078.630397
9070.85199
9093.382548
9101.160956
9071.522542
9058.133847
9081.692586
9107.464148
9093.449604
9069.220313
9091.34854
9113.141491
9089.761566
9060.704298
9074.607083
9107.531203
9104.491365
9081.603179
9088.9122
9118.349447
9098.188174
9056.390411
9061.978348
9100.222182
9104.267848
9086.632322
9098.411691
9122.328058
9107.061816
9064.593502
9049.282557
9073.243627
9099.03754
9078.54099
9052.836484
9074.271807
9097.852897
9070.561417
9041.861778
9059.542007
9086.945246
9068.572112
9043.627565
9051.383621
9083.41367
9086.60997
9064.995833
9053.864664
9077.177534
9075.232932
9047.159141
9047.78499
9083.860705
9094.120156
9050.243682
9035.826807
9068.706223
9081.200848
9054.535217
9042.867606
9069.019147
9092.644941
9070.181438
9051.1154
9074.718842
9091.214429
9065.062888
9038.978402
9051.808304
9088.66633
9078.943322
9040.364211
9042.577033
9077.758679
9090.298008
9058.089144
9054.19994
9081.8714
9090.186249
9057.597406
9043.359344
9060.369022
9086.118232
9079.904447
9057.217426
9066.895731
9095.505964
9084.844182
9057.060964
9071.097859
9094.835412
9084.061871
9058.670289
9072.77424
9104.357255
9098.456394
9056.077487
9057.887978
9084.061871
9080.753813
9054.892845
9047.78499
9082.318435
9106.458319
9083.324263
9070.404955
9090.07449
9096.020054
9079.926798
9088.509868
9125.837281
9131.335811
9114.728464
9101.071549
9101.652694
9116.918935
9109.699322
9084.17363
9083.391319
9115.108444
9130.262927
9104.245496
9092.533182
9121.07636
9111.934496
9082.38549
9082.005511
9115.019037
9135.917918
9102.323246
9071.142563
9103.440834
9125.680819
9098.14347
9077.199886
9105.18427
9127.647773
9103.865517
9077.490458
9095.684778
9125.30084
9111.532165
9083.056043
9092.980217
9132.140473
9117.008342
9076.842258
9079.345653
9106.190098
9112.11331
9088.241647
9092.711996
9130.709962
9135.314421
9104.491365
9079.904447
9103.239668
9121.948078
9103.038502
9093.583714
9114.124967
9115.555479
9091.326188
9092.734348
9127.22309
9137.683706
9112.87327
9096.355331
9103.26202
9128.810063
9132.565157
9118.192985
9114.773168
9131.760494
9140.745895
9119.601145
9109.296991
9135.068552
9133.034543
9105.407787
9108.872307
9135.202662
9148.591357
9131.380514
9110.638095
9119.332924
9140.410619
9119.824662
9103.999627
9134.777979
9154.849846
9134.062723
9098.456394
9098.568153
9129.078284
9136.856691
9118.818834
9116.002514
9140.432971
9141.930537
9109.967543
9093.427252
9123.177424
9147.943157
9132.140473
9120.472863
9138.264851
9151.340622
9123.155072
9089.5604
9108.514679
9126.217261
9108.626438
9086.09588
9095.70713
9124.295011
9114.79552
9086.073528
9092.711996
9120.092883
9121.545747
9100.602162
9099.283409
9116.628363
9105.899525
9078.272769
9080.46324
9113.588525
9127.468959
9110.369874
9088.375758
9101.764453
9114.884927
9093.047272
9084.508906
9110.638095
9123.780921
9101.451528
9081.022034
9089.091014
9118.058874
9099.775147
9079.971502
9098.590505
9122.819796
9112.560345
9080.709109
9069.734403
9096.914124
9124.898508
9103.418482
9080.127964
9106.905354
9117.611839
9084.240685
9057.955034
9104.536069
9127.312497
9096.355331
9082.206676
9092.332017
9119.914069
9112.739159
9083.726595
9093.382548
9114.884927
9096.265924
9071.701356
9088.040482
9124.943212
9113.096787
9071.276673
9071.142563
9105.69836
9112.448587
9084.330092
9074.003586
9097.584676
9122.417465
9089.582752
9072.371909
9105.273677
9123.177424
9103.597296
9083.011339
9097.227049
9108.224107
9098.590505
9070.382603
9082.76547
9113.119139
9110.660447
9079.390356
9078.853915
9106.324209
9113.38736
9093.628418
9093.427252
9110.794557
9095.19304
9057.128019
9061.553664
9108.022941
9120.830491
9086.22999
9069.689699
9102.055025
9118.438854
9084.732423
9052.702374
9074.025938
9098.076415
9091.728519
9076.596388
9088.845144
9114.79552
9108.514679
9064.548798
9061.75483
9090.767394
9097.137642
9078.563342
9078.049252
9103.01615
9118.394151
9089.247476
9072.103688
9100.57981
9118.684723
9103.664351
9078.295121
9088.867496
9105.497194
9089.850973
9088.755737
9101.60799
9113.186194
9098.568153
9064.839371
9075.836429
9109.140528
9107.285334
9090.275656
9095.573019
9128.161863
9130.82172
9086.967598
9061.218388
9092.667293
9106.34656
9088.420461
9091.773223
9117.209508
9132.945136
9110.414578
9091.817926
9100.110424
9100.423348
9080.820868
9081.603179
9116.404845
9135.359125
9121.433988
9097.897601
9101.630342
9118.975296
9130.598203
9114.326133
9114.370837
9137.750761
9143.49516
9110.19106
9100.132775
9127.312497
9136.186139
9112.515642
9097.294104
9128.810063
9148.636061
9114.594354
9089.716862
9110.503985
9141.014116
9129.190043
9104.223145
9112.225069
9134.889738
9133.906261
9107.017113
9106.123043
9143.048125
9137.929575
9102.792633
9117.142453
9138.018982
9133.570985
9094.768357
9082.76547
9129.882947
9150.357145
9116.740121
9098.344636
9130.665258
9152.055878
9130.151168
9113.052084
9134.979145
9144.679802
9117.835357
9103.038502
9118.863537
9135.180311
9128.050104
9104.625476
9116.85188
9150.491256
9145.953851
9119.80231
9116.33779
9142.154055
9136.96845
9098.635208
9095.505964
9140.790598
9154.671032
9133.436875
9122.462168
9122.372761
9124.786749
9121.322229
9118.148281
9140.254157
9143.785732
9120.249345
9106.279505
9117.030694
9142.198758
9136.767284
9126.284316
9122.551575
9139.605956
9126.507834
9103.127909
9111.018075
9148.591357
9146.020907
9117.969467
9110.928668
9126.954869
9138.309555
9132.788674
9131.58168
9149.999517
9161.398907
9130.531148
9109.073473
9134.465055
9145.640927
9114.460244
9088.308703
9116.918935
9153.665203
9127.73718
9099.104595
9115.44372
9126.440779
9108.447624
9075.143525
9081.893752
9114.728464
9125.233784
9088.800441
9084.352444
9119.489386
9122.931555
9096.690607
9097.003531
9110.369874
9114.683761
9075.188229
9061.486609
9100.982142
9126.619593
9105.519546
9079.233894
9095.438909
9124.630287
9117.656543
9092.644941
9103.932572
9126.038447
9116.404845
9087.816964
9086.945246
9104.178441
9107.531203
9070.829638
9076.61874
9122.663334
9128.318325
9096.109461
9074.070641
9091.840278
9118.528261
9100.423348
9077.803383
9108.872307
9127.647773
9102.926743
9081.73729
9098.814022
9118.416502
9101.160956
9081.379662
9099.03754
9116.360142
9105.69836
9089.068662
9108.022941
9119.891717
9108.984066
9089.739214
9087.414633
9110.727502
9119.15411
9082.743118
9084.151278
9119.109406
9129.592375
9086.788784
9071.209618
9093.226086
9108.26881
9085.559438
9074.405917
9104.267848
9127.401904
9101.33977
9078.429231
9097.964656
9115.533127
9096.936476
9071.723708
9081.2232
9109.140528
9104.334903
9094.500136
9098.299932
9097.808194
9096.332979
9069.44383
9054.44581
9078.518638
9094.67895
9072.371909
9061.307795
9085.246514
9121.07636
9106.950057
9063.252397
9066.538103
9086.297046
9072.885999
9061.128981
9091.080319
9102.770281
9067.678042
9048.410839
9061.643071
9088.062833
9096.444737
9080.016205
9060.86076
9085.022996
9100.132775
9069.510885
9048.857874
9069.197961
9096.802365
9076.976368
9065.040537
9086.498211
9105.161918
9076.10465
9050.467199
9068.952092
9090.07449
9069.242664
9046.779161
9066.806324
9100.199831
9092.823755
9070.807287
9059.296138
9074.495324
9088.398109
9063.967653
9060.369022
9102.278543
9117.857709
9084.464202
9065.644034
9084.777127
9098.702264
9084.575961
9083.324263
9105.631304
9098.635208
9073.936531
9059.072621
9080.530295
9113.655581
9109.431101
9072.863647
9075.456449
9104.156089
9099.819851
9074.428269
9062.581845
9091.728519
9103.709054
9069.533237
9054.557568
9089.672159
9105.765415
9076.395223
9050.936586
9071.589598
9087.548743
9072.036633
9054.602272
9072.416612
9095.975351
9071.74606
9052.65767
9067.834505
9079.546819
9064.19117
9036.720876
9051.428324
9090.342711
9090.119194
9052.925891
9065.018185
9091.281485
9085.514734
9053.976423
9040.252452
9077.401051
9090.633284
9056.569225
9052.590615
9072.953054
9098.188174
9096.020054
9056.010432
9062.6489
9091.572057
9098.054063
9087.414633
9095.014226
9122.775092
9119.28822
9077.311644
9070.382603
9102.323246
9118.349447
9110.481633
9100.624514
9104.401959
9094.544839
9080.552647
9081.558476
9099.998665
9120.137587
9099.596333
9094.522487
9105.676008
9096.511793
9085.268865
9084.620665
9105.296028
9135.180311
9107.732368
9077.982197
9090.499173
9119.399979
9101.876211
9078.339824
9079.546819
9109.274639
9111.554517
9090.409766
9099.864554
9124.295011
9123.400941
9092.711996
9072.081336
9091.884982
9127.848938
9125.099674
9091.683816
9096.243572
9098.746967
9067.499228
9042.420571
9064.839371
9082.988987
9059.027917
9026.26026
9030.685905
9058.178551
9046.801513
9022.326353
9034.284536
9054.266996
9060.570188
9042.286461
9039.5819
9058.960862
9052.65767
9024.606231
9024.226251
9061.866589
9070.3379
9049.617833
9044.231062
9061.687775
9064.660557
9037.011449
9022.527519
9046.846217
9060.525484
9051.003641
9031.803493
9058.714993
9079.971502
9051.875359
9021.789911
9040.006583
9068.370946
9062.067755
9029.233042
9034.239833
9072.416612
9068.572112
9028.875414
9020.337048
9051.875359
9064.884074
9056.211597
9060.21256
9080.753813
9078.965673
9043.113475
9021.90167
9040.811246
9061.866589
9053.909368
9035.111551
9055.228121
9088.062833
9069.287368
9030.23887
9028.875414
9054.289347
9058.29031
9024.583879
9007.887126
9047.047382
9064.369984
9038.68783
9033.658687
9068.393298
9073.087165
9043.247586
9029.680077
9052.590615
9064.973481
9050.757772
9029.165987
9037.056152
9050.422496
9036.676173
9035.670344
9052.344746
9075.791726
9050.511903
9008.244754
9031.311754
9057.507999
9062.604196
9045.86274
9029.300097
9056.703336
9075.501153
9039.224272
9017.945411
9042.644089
9066.828676
9051.696545
9041.63826
9045.86274
9065.46522
9046.823865
9016.894879
9033.390466
9071.969577
9071.611949
9038.464312
9045.773333
9088.643979
9081.513772
9039.872472
9044.253414
9071.142563
9076.350519
9053.887016
9047.181493
9065.733441
9057.731516
9036.430304
9039.33603
9072.483667
9084.330092
9054.334051
9033.189301
9071.902522
9097.472918
9063.02888
9030.954126
9036.787932
9064.101763
9065.867551
9044.879263
9035.893862
9065.442868
9068.393298
9043.381696
9046.712106
9067.38747
9072.014281
9047.740286
9034.217481
9086.118232
9096.914124
9065.755792
9058.022089
9075.814077
9077.333996
9064.168818
9074.137697
9089.873325
9092.086147
9076.864609
9064.660557
9084.128926
9119.467034
9117.008342
9096.198868
9095.729482
9096.623551
9102.144432
9085.626493
9078.92097
9125.122026
9133.660392
9076.663444
9058.066792
9112.292124
9133.950965
9097.070586
9075.322339
9086.833487
9097.316456
9105.83247
9089.448641
9078.093955
9103.485537
9112.090959
9078.40688
9075.299987
9103.485537
9090.499173
9077.021072
9081.133793
9088.621627
9079.792688
9069.44383
9078.786859
9099.68574
9092.063796
9062.380679
9059.430249
9085.224162
9089.694511
9071.857819
9065.644034
9099.372816
9100.535107
9064.280577
9054.19994
9077.311644
9091.102671
9066.202827
9052.165932
9067.610987
9071.902522
9067.365118
9057.01626
9082.407842
9094.120156
9072.528371
9037.100856
9046.37683
9095.505964
9085.380624
9045.661574
9052.031821
9075.791726
9088.174592
9069.756755
9058.782048
9111.263944
9100.557458
9039.33603
9026.170853
9073.914179
9123.155072
9096.131813
9046.712106
9050.914234
9075.769374
9098.545801
9090.253304
9075.903484
9086.073528
9084.061871
9087.772261
9091.147374
9096.73531
9086.207639
9067.298063
9073.824772
9084.68772
9087.526391
9073.847124
9060.570188
9089.873325
9110.682799
9083.212505
9047.360307
9082.407842
9099.618685
9069.019147
9051.473028
9081.804345
9082.676063
9053.395278
9063.364156
9075.277635
9125.792578
9122.238651
9069.30972
9064.928778
9110.43693
9096.914124
9050.064868
9051.070696
9079.010377
9102.479708
9077.423403
9073.377737
9093.091976
9099.350464
9072.170743
9045.393353
9066.225179
9102.88204
9096.690607
9054.155237
9089.068662
9105.966581
9073.333034
9048.634356
9067.610987
9090.45447
9103.798461
9081.625531
9061.128981
9093.382548
9106.34656
9072.953054
9052.903539
9092.533182
9078.004548
9052.992946
9083.212505
9098.344636
9090.767394
9056.055135
9032.764618
9068.169781
9103.373778
9085.604141
9069.354423
9081.781993
9066.605159
9058.558531
9075.992891
9085.939418
9079.56917
9021.231117
9014.34678
9069.287368
9113.610877
9090.387415
9063.408859
9039.626603
9059.474952
9092.108499
9062.939473
9065.107592
9104.960752
9096.489441
9061.866589
9038.196091
9061.419554
9099.752796
9102.144432
9069.466182
9069.220313
9095.617723
9085.872362
9041.817074
9039.023106
9075.568208
9079.122136
9071.924874
9071.500191
9071.857819
9059.653766
9070.829638
9074.361214
9078.652749
9097.919953
9062.045403
9014.972629
9060.257263
9118.371799
9084.330092
9052.724725
9068.348595
9095.729482
9084.151278
9053.752906
9056.278653
9106.614781
9085.626493
9061.263092
9073.265978
9103.194964
9075.72467
9044.342821
9042.53233
9086.98995
9104.066682
9091.594409
9083.860705
9082.497249
9072.550723
9028.853062
9033.770446
9093.27079
9115.577831
9078.071604
9056.12219
9072.148391
9098.277581
9071.790763
9037.838464
9055.921025
9081.536124
9084.263037
9057.686813
9065.174647
9078.518638
9075.501153
9029.814187
9043.202882
9113.409712
9124.071494
9066.11342
9025.209728
9046.220368
9105.541897
9094.276618
9068.907388
9058.580882
9057.217426
9060.927816
9064.504095
9101.675046
9107.084168
9045.125132
9021.879318
9050.444847
9074.920008
9063.990005
9061.24074
9085.671197
9105.631304
9092.89081
9053.216464
9033.859853
9055.161065
9062.715955
9069.063851
9073.847124
9092.153203
9096.780014
9068.683871
9048.164969
9061.531313
9073.265978
9056.233949
9036.452655
9068.952092
9107.866479
9088.956903
9057.664461
9058.223254
9083.838354
9069.130906
9041.772371
9062.358327
9078.40688
9078.697452
9056.546874
9070.807287
9104.491365
9100.892735
9054.535217
9037.458484
9052.52356
9058.603234
9059.899635
9049.394315
9059.720821
9078.608045
9057.217426
9032.362286
9043.448751
9064.70526
9051.473028
9041.750019
9051.897711
9075.165877
9059.877284
9038.397257
9041.705315
9068.840333
9064.079412
9038.531368
9043.918138
9064.928778
9059.296138
9034.820978
9037.771408
9067.700394
9078.898618
9056.055135
9047.2709
9061.263092
9064.772316
9045.438057
9030.775312
9057.105667
9080.619702
9064.392336
9037.302022
9058.513827
9080.32913
9048.880225
9036.072676
9057.128019
9080.217371
9071.142563
9036.095027
9046.622699
9077.244589
9071.36608
9038.464312
9042.711144
9088.286351
9079.680929
9040.431266
9028.786007
9050.087219
9073.601255
9055.943377
9045.326298
9059.921987
9066.895731
9055.429286
9035.692696
9055.451638
9080.574999
9076.551685
9060.994871
9055.6081
9064.034708
9078.384528
9068.750926
9057.083316
9083.503077
9100.356293
9074.204752
9048.232025
9072.908351
9095.528316
9066.962787
9049.237853
9077.110479
9082.050214
9046.823865
9045.214539
9074.584731
9081.267903
9061.464257
9048.500246
9060.078449
9091.505002
9087.593447
9057.418592
9061.441906
9089.783918
9090.32036
9037.994926
9025.701466
9084.732423
9112.49329
9086.967598
9066.180475
9067.610987
9071.857819
9059.474952
9050.444847
9079.904447
9087.079357
9065.21935
9047.360307
9073.310682
9087.682854
9077.937493
9053.663499
9076.23876
9075.814077
9062.090106
9060.190208
9065.800496
9084.911237
9088.509868
9084.17363
9075.054118
9065.152295
9067.38747
9056.636281
9061.955996
9080.954979
9077.669272
9063.811191
9043.582862
9053.663499
9072.304853
9066.783973
9053.93172
9076.797554
9079.993854
9067.342766
9050.064868
9051.428324
9080.284426
9079.144487
9056.479818
9055.585749
9067.38747
9061.464257
9046.957975
9052.858836
9083.883057
9091.013264
9056.546874
9033.591632
9060.145504
9078.965673
9048.187321
9042.845254
9081.759641
9094.589543
9059.430249
9034.552757
9040.990059
9067.052194
9077.848086
9076.462278
9093.449604
9099.305761
9076.350519
9024.583879
9025.947335
9082.497249
9097.495269
9083.771298
9074.495324
9069.354423
9068.41565
9049.684888
9052.300042
9079.122136
9091.035615
9076.059947
9058.93851
9074.31651
9090.275656
9061.285443
9033.412818
9069.44383
9113.834395
9087.727557
9059.609063
9072.818944
9085.559438
9079.300949
9054.19994
9052.858836
9092.823755
9103.284371
9075.344691
9075.031766
9101.026845
9102.569115
9075.098822
9069.644996
9083.368967
9082.944284
9065.889903
9053.752906
9070.539066
9108.961714
9094.366025
9059.743173
9080.820868
9088.755737
9070.136734
9070.203789
9088.286351
9091.505002
9070.315548
9035.156254
9071.299025
9112.515642
9110.861613
9067.365118
9054.110533
9080.530295
9096.042406
9080.105612
9082.854877
9098.121118
9089.023958
9060.950167
9056.233949
9080.284426
9090.610932
9071.343728
9055.764563
9101.518583
9125.971392
9079.345653
9035.156254
9061.10663
9093.740176
9090.275656
9075.21058
9075.791726
9088.442813
9086.408804
9066.87338
9069.019147
9099.484575
9094.634246
9066.940435
9063.364156
9103.77611
9113.208546
9080.530295
9055.429286
9081.022034
9100.4457
9074.651787
9061.084278
9089.515697
9103.172613
9081.178496
9055.384583
9079.390356
9112.649752
9096.310627
9077.64692
9080.038557
9103.507889
9098.210525
9066.62751
9075.478801
9100.155127
9097.674083
9069.890865
9059.385545
9095.014226
9112.202717
9087.414633
9077.222237
9097.070586
9107.039464
9084.598313
9063.051231
9079.368005
9109.632267
9113.052084
9096.958828
9122.931555
9148.412543
9135.873215
9098.054063
9088.867496
9105.720711
9109.632267
9095.349502
9090.901505
9119.914069
9125.837281
9093.226086
9077.535162
9084.084223
9099.261057
9089.292179
9065.264054
9081.022034
9110.034598
9078.965673
9034.731571
9055.049307
9085.112403
9059.229083
9037.905519
9065.755792
9105.541897
9082.676063
9036.452655
9038.799589
9082.787822
9102.390302
9066.538103
9054.781086
9082.519601
9100.378645
9075.165877
9044.58869
9074.495324
9089.403938
9070.583769
9055.652804
9070.181438
9092.443775
9071.075508
9048.634356
9067.141601
9096.310627
9085.760604
9062.403031
9064.213522
9080.574999
9085.492383
9067.052194
9070.092031
9091.750871
9083.704243
9058.960862
9052.076525
9073.087165
9082.653711
9064.392336
9051.316565
9075.836429
9105.854822
9072.014281
9045.371001
9068.840333
9077.356348
9051.607138
9040.990059
9063.632377
9088.599275
9082.586656
9065.778144
9065.688737
9072.707185
9063.431211
9034.820978
9046.734458
9089.292179
9093.717825
9053.507036
9033.345763
9072.103688
9098.970485
9069.175609
9039.179568
9056.658632
9085.313569
9063.02888
9034.351591
9061.263092
9095.528316
9073.534199
9031.088237
9041.347687
9079.189191
9078.518638
9037.436132
9031.289402
9061.017223
9052.165932
9011.686923
9009.295286
9052.210635
9068.259188
9048.164969
9038.598423
9060.123153
9065.286406
9031.848196
9012.29042
9035.044495
9043.4264
9034.642164
9026.372019
9044.141655
9064.839371
9044.700449
9019.554737
9039.470141
9058.670289
9047.337955
9027.914289
9036.944394
9046.443885
9031.043533
8998.767614
9026.483777
9074.405917
9068.728574
9023.30983
9008.557678
9029.121283
9042.040591
9021.409931
9025.36619
9056.613929
9058.871455
9014.972629
9004.534364
9030.037705
9057.731516
9040.475969
9021.856966
9035.513882
9044.052248
9017.990114
9021.678152
9031.959955
9036.072676
9037.614946
9002.992094
8988.105832
9008.110643
9026.528481
9006.881297
9017.721894
9053.462333
9043.605214
8997.9406
8987.681149
9022.79574
9039.134865
9021.029952
8991.972684
8994.766652
9021.097007
9028.584841
9026.304963
9035.424475
9050.646013
9027.333144
9004.087329
9011.798681
9040.274804
9031.177644
9003.036797
9015.553774
9042.487626
9047.561472
9024.98621
9020.314696
9050.020164
9044.655746
9018.504205
9016.157271
9030.775312
9044.141655
9028.070751
9020.761731
9039.894824
9043.672269
9031.378809
9016.313734
9017.721894
9041.817074
9056.166894
9020.560565
9017.945411
9038.509016
9038.620775
9014.883222
9014.033856
9042.53233
9054.490513
9028.964821
9007.104815
9028.160158
9041.526501
9013.586821
9001.539231
9030.395333
9049.975461
9023.868623
9012.692751
9040.632432
9060.72665
9036.564414
9027.579013
9051.428324
9081.983159
9066.828676
9032.652859
9048.567301
9078.608045
9073.042461
9041.012411
9035.335068
9062.6489
9065.196999
9027.221385
9030.685905
9064.079412
9075.59056
9049.573129
9035.044495
9061.263092
9069.913217
9040.520673
9012.513937
9031.356458
9060.21256
9050.020164
9034.619812
9055.429286
9075.747022
9042.822903
9006.121338
9026.059094
9065.621682
9064.280577
9036.00562
9039.067809
9061.553664
9050.444847
9016.313734
9023.533347
9056.591577
9058.960862
9032.183472
9013.631524
9041.682964
9066.761621
9051.920063
9027.400199
9042.487626
9066.739269
9048.991984
9010.412873
9031.624679
9072.036633
9057.575054
9032.988135
9038.263147
9052.300042
9044.208711
9011.731626
9006.2778
9053.887016
9057.01626
9025.142673
9033.278708
9075.434098
9081.133793
9049.439019
9033.725743
9066.202827
9090.07449
9058.536179
9043.649917
9068.79563
9090.901505
9073.556551
9046.086257
9064.258225
9093.941342
9094.030749
9062.760659
9066.962787
9096.400034
9088.353406
9048.947281
9046.823865
9079.010377
9081.804345
9058.156199
9061.665423
9091.929685
9094.455432
9048.410839
9032.362286
9071.567246
9092.041444
9084.039519
9061.508961
9063.252397
9079.479763
9066.001662
9050.556606
9067.342766
9093.539011
9078.585694
9053.395278
9055.675156
9074.04829
9067.52158
9034.999792
9041.481798
9080.351481
9078.764508
9049.796647
9042.644089
9065.644034
9079.524467
9053.015298
9034.306888
9068.303891
9089.694511
9056.166894
9027.958992
9058.580882
9090.208601
9082.273732
9055.429286
9053.03765
9085.380624
9071.88017
9045.281594
9050.534254
9076.417574
9069.30972
9040.565376
9047.159141
9076.462278
9079.792688
9057.463295
9048.455542
9072.595426
9076.708147
9059.229083
9059.899635
9078.0269
9088.800441
9062.380679
9040.967708
9063.67708
9082.407842
9060.234911
9046.37683
9069.466182
9092.309665
9072.371909
9046.198016
9047.092086
9079.256246
9072.193095
9043.068772
9054.624624
9081.245551
9080.574999
9052.881188
9053.596443
9071.433135
9080.865572
9055.049307
9030.395333
9054.892845
9081.446717
9074.540028
9055.228121
9057.843275
9076.10465
9065.644034
9057.172722
9077.64692
9085.112403
9062.023051
9041.817074
9052.434153
9090.767394
9082.76547
9050.444847
9046.779161
9057.060964
9074.942359
9066.560455
9043.18053
9060.324318
9070.941397
9044.298118
9041.861778
9079.792688
9080.306778
9051.473028
9038.106684
9053.775257
9070.248493
9051.137751
9028.651897
9054.669327
9101.026845
9086.654673
9042.53233
9056.345708
9078.764508
9060.637243
9045.214539
9057.39624
9092.801403
9108.201755
9072.841295
9042.599385
9058.93851
9071.634301
9060.033746
9050.333089
9060.905464
9080.239723
9067.946263
9054.132885
9079.613874
9089.918028
9059.005566
9036.050324
9056.815095
9077.289292
9074.271807
9061.173685
9064.414688
9091.952037
9079.747984
9042.420571
9049.215501
9076.372871
9092.019092
9085.514734
9074.338862
9072.036633
9081.8714
9069.712051
9040.207748
9057.91033
9098.478746
9078.093955
9049.662536
9060.950167
9078.92097
9085.402976
9067.789801
9072.461316
9087.682854
9069.153258
9049.729592
9053.395278
9086.22999
9088.956903
9058.223254
9051.875359
9077.244589
9108.089996
9082.497249
9052.434153
9064.548798
9076.797554
9066.158124
9062.157161
9077.959845
9082.564304
9071.187266
9052.165932
9075.992891
9102.457357
9077.401051
9038.129036
9049.662536
9081.603179
9069.376775
9050.35544
9075.612912
9100.758624
9091.415595
9061.955996
9049.126094
9072.349557
9088.353406
9074.383566
9056.904502
9081.580827
9095.640075
9073.020109
9069.913217
9096.400034
9101.004493
9070.024976
9049.170798
9067.231007
9097.517621
9092.153203
9058.335013
9070.539066
9099.17165
9094.500136
9061.307795
9056.792743
9091.840278
9092.399072
9054.557568
9058.893807
9088.353406
9103.709054
9083.27956
9059.027917
9068.259188
9098.925781
9072.863647
9054.334051
9085.7159
9100.423348
9077.177534
9054.490513
9055.675156
9097.808194
9086.945246
9058.647938
9074.69649
9086.431156
9080.485592
9073.869476
9082.519601
9089.180421
9079.882095
9056.390411
9052.52356
9083.391319
9085.291217
9057.887978
9060.927816
9091.639112
9099.573982
9070.069679
9054.937548
9082.318435
9088.867496
9079.412708
9060.771353
9078.183362
9098.903429
9078.250418
9045.795685
9061.710127
9092.734348
9096.355331
9076.261112
9072.729537
9083.391319
9076.842258
9061.352499
9060.905464
9082.676063
9084.508906
9056.323356
9059.676118
9092.600237
9095.617723
9074.785897
9063.16299
9072.483667
9084.710072
9063.945301
9050.690717
9076.037595
9101.652694
9079.457412
9067.163952
9097.607028
9114.54965
9086.654673
9055.943377
9068.750926
9101.138604
9098.00936
9067.409821
9070.404955
9103.91022
9115.801348
9084.955941
9064.146467
9084.039519
9099.55163
9069.332071
9055.98808
9084.061871
9112.716807
9104.223145
9075.344691
9082.38549
9099.305761
9073.221275
9050.824827
9071.969577
9100.490403
9096.08711
9069.063851
9062.984176
9081.111441
9094.388377
9084.017168
9079.993854
9100.468051
9107.531203
9067.789801
9064.325281
9088.174592
9092.354368
9072.863647
9054.535217
9071.477839
9094.008397
9087.369929
9069.533237
9091.795575
9127.245441
9110.325171
9068.750926
9068.683871
9090.879153
9085.872362
9075.568208
9081.089089
9104.267848
9096.444737
9066.024013
9072.617778
9099.752796
9105.094863
9076.328167
9058.044441
9083.41367
9096.400034
9075.434098
9050.869531
9062.693603
9081.133793
9064.906426
9050.243682
9070.874342
9087.682854
9071.142563
9051.204807
9052.858836
9074.987063
9066.4934
9036.564414
9041.057115
9077.51281
9086.833487
9063.274749
9051.24951
9072.975406
9084.844182
9065.778144
9043.135827
9055.541045
9065.264054
9034.485702
9029.657725
9069.421478
9092.577886
9063.319452
9029.501263
9046.443885
9079.725633
9075.322339
9051.271862
9056.12219
9067.320414
9053.55174
9042.353516
9040.632432
9068.214484
9059.787877
9022.54987
9044.566339
9085.000644
9092.197906
9046.846217
9028.294269
9052.411801
9059.340842
9039.067809
9031.13294
9061.710127
9084.799479
9059.027917
9043.091123
9045.86274
9063.945301
9053.372926
9032.094065
9043.694621
9082.474897
9085.358272
9050.958938
9039.179568
9064.995833
9067.700394
9040.654783
9051.495379
9081.647883
9072.751888
9043.582862
9038.196091
9062.894769
9078.898618
9060.749002
9046.488589
9057.507999
9070.516714
9052.255339
9021.633449
9046.332126
9079.636226
9063.252397
9044.141655
9055.339879
9073.198923
9056.412763
9045.080429
9066.62751
9083.100746
9073.891827
9040.118341
9035.111551
9057.105667
9057.731516
9039.671307
9033.770446
9070.561417
9099.03754
9078.250418
9061.844237
9061.777182
9061.151333
9037.704353
9017.900707
9045.147484
9089.135717
9065.621682
9039.514844
9050.198978
9067.923912
9048.455542
9025.612059
9041.370039
9072.573074
9076.350519
9051.316565
9053.216464
9074.338862
9062.13481
9022.572222
9018.884184
9057.083316
9079.144487
9064.727612
9042.085295
9045.505112
9055.384583
9044.164007
9037.682001
9053.082353
9081.044386
9078.116307
9042.53233
9035.983269
9058.603234
9054.803438
9048.120266
9060.793705
9089.068662
9085.626493
9051.160103
9037.614946
9066.180475
9086.833487
9061.911292
9035.625641
9051.584786
9078.786859
9061.352499
9047.360307
9061.531313
9080.351481
9061.397202
9023.600402
9034.284536
9073.534199
9065.398164
9038.799589
9044.745153
9057.686813
9063.520618
9047.717935
9032.02701
9054.825789
9075.948188
9062.335975
9059.139676
9085.782955
9085.514734
9065.308757
9044.275766
9055.004603
9078.786859
9057.91033
9035.715048
9062.917121
9087.63815
9088.263999
9064.973481
9058.670289
9055.496342
9053.305871
9052.501208
9047.963804
9073.15422
9088.442813
9059.83258
9055.228121
9081.156144
9084.710072
9059.229083
9030.663554
9053.417629
9082.161973
9065.845199
9061.687775
9085.738252
9101.406825
9074.808249
9041.235929
9043.024068
9073.936531
9065.733441
9036.720876
9054.19994
9085.112403
9064.258225
9036.542062
9051.853007
9083.346615
9091.035615
9052.903539
9018.57126
9046.712106
9073.109516
9060.21256
9050.310737
9074.651787
9089.985083
9053.529388
9011.753978
9057.597406
9091.437947
9060.816057
9049.796647
9080.306778
9089.359234
9050.400144
9024.650934
9042.733496
9066.560455
9074.674138
9061.710127
9063.274749
9078.272769
9074.338862
9048.366135
9049.081391
9080.32913
9082.161973
9051.495379
9060.570188
9082.161973
9079.81504
9057.172722
9041.146522
9059.340842
9080.619702
9060.972519
9053.216464
9080.84322
9084.665368
9059.586711
9038.553719
9047.963804
9078.138659
9071.969577
9043.851083
9038.151388
9066.225179
9077.915141
9050.60131
9052.389449
9081.73729
9079.144487
9045.661574
9019.420626
9052.478856
9102.032674
9078.764508
9039.537196
9034.32924
9036.430304
9036.072676
9029.925946
9061.419554
9097.964656
9075.635263
9047.516769
9039.20192
9055.541045
9050.824827
9031.602327
9038.643126
9063.632377
9061.196036
9036.966745
9048.634356
9067.90156
9069.734403
9043.739324
9024.248603
9043.739324
9066.292234
9056.278653
9048.366135
9062.939473
9065.934606
9046.555644
9019.46533
9030.328277
9069.82381
9046.622699
9028.048399
9063.207693
9080.574999
9062.112458
9023.198071
9013.765635
9046.332126
9075.814077
9049.304908
9054.088182
9073.087165
9066.4934
9030.909423
9003.930867
9037.234966
9081.558476
9062.179513
9033.524577
9051.405972
9061.576016
9038.956051
9017.498376
9028.003696
9052.210635
9034.530405
9005.920172
9011.642219
9028.406027
9009.183527
8990.273951
9006.411911
9036.162083
9018.526556
8988.105832
8991.235076
9025.299135
9038.397257
9012.066902
9009.719969
9029.233042
9031.781141
9018.101873
8997.314751
8997.337103
9021.722856
9021.566394
9000.309885
9009.161175
9033.926908
9021.745208
8999.572277
9007.55185
9022.862795
9002.187431
8987.927018
9010.256411
9033.56928
9025.924984
8997.292399
8994.073748
9028.607193
9028.741304
8993.917286
8987.748204
9011.999847
9020.672324
8996.465385
8978.047547
9016.090216
9036.273841
9007.596553
8978.002844
8993.291437
9016.671362
9003.059149
8971.945521
8989.715158
9007.864774
9002.478004
8991.078614
9000.064015
9023.153367
9006.546021
8969.777402
8973.130163
9011.508109
9018.05717
8984.574256
8972.392556
9003.394425
9024.650934
9003.595591
8985.51303
9010.390521
9036.698525
8996.845364
8963.161285
8977.645216
9020.381751
9013.139786
8982.495544
8999.86285
9032.630507
9004.757882
8972.236094
9002.232135
9031.602327
9025.947335
9002.098024
8993.738472
9020.001771
9027.176681
8979.790983
8973.107812
9014.883222
9035.022144
9021.231117
9009.138824
9031.758789
9028.115455
8979.321597
8969.844457
9012.536289
9041.235929
9029.456559
8997.314751
9003.528536
9015.643181
9001.002789
8969.553884
8990.877448
9034.485702
9027.489606
8999.706387
8991.458594
8997.381806
8996.040701
8974.068937
8996.219515
9027.936641
9029.836539
9013.273896
8995.101928
8990.989207
8995.25839
9005.026103
8993.58201
9009.675266
9040.09599
9016.78312
8980.685053
8990.653931
9011.105777
9017.028989
9000.734568
9008.110643
9008.289457
8996.264219
8992.151498
8987.882315
8997.493565
9016.760769
9008.714141
8983.255504
9000.332236
9015.263202
9002.343893
8985.602437
9008.848251
9029.568318
9002.030969
8974.851248
8995.168983
9024.47212
9008.043588
8971.498486
8978.33812
9016.403141
9012.648048
8982.137916
8986.384748
9009.585859
9016.716065
9006.344856
9000.578106
9023.376885
9023.421588
8992.062091
8976.639387
8999.616981
9023.175719
8998.052358
8994.140803
9029.545966
9033.904557
9005.584896
8982.204972
8989.35753
9035.424475
9040.073638
8997.672379
8997.761786
9025.545004
9013.944449
9000.689864
9009.943486
9035.647993
9023.488644
8991.123318
8988.262294
9024.561527
9038.509016
9013.631524
9005.875469
9021.678152
9019.018295
8993.649065
8975.745317
9010.167004
9030.752961
9016.872527
8999.952257
9020.11353
9032.697562
9012.491585
8979.3663
9005.584896
9039.850121
9026.77435
8992.531478
9005.428434
9028.651897
9025.254431
9000.913382
9000.488699
9025.656763
9028.853062
9002.701521
8990.184544
9019.420626
9034.373943
9007.127167
8990.631579
9018.57126
9034.284536
9023.712161
8996.577143
9005.093158
9018.235984
9013.028027
8999.259353
9009.787024
9039.000754
9030.775312
8988.821088
8985.334216
9008.96001
9019.711199
9005.093158
9005.048454
9022.974553
9027.713123
9009.384693
8994.878411
9008.043588
9020.538213
9001.941562
8987.390576
9017.096045
9038.106684
9016.26903
8988.664626
9000.756919
9023.041609
9015.37496
8991.972684
8979.098079
9014.816167
9045.505112
9018.683019
8988.754033
9006.210745
9013.69858
8997.135937
8997.985303
9011.128129
9022.304001
9017.833652
9000.131071
9003.32737
9018.727722
9000.488699
8976.997015
9000.399292
9034.172777
9019.286516
8998.812318
9010.055245
9009.407045
9007.797719
8994.811355
9006.993056
9031.915251
9011.083425
8977.198181
8985.110698
9030.61885
9026.930812
8995.481908
8977.801678
8996.353626
9023.242774
9000.131071
8983.903704
9011.172832
9031.065885
9008.736492
8983.993111
9003.863812
9024.248603
9009.854079
8992.754995
9002.701521
9018.124225
9002.746225
8988.172887
9010.323466
9034.932737
9017.498376
8987.100004
8994.453728
9016.447844
9019.375923
8993.872582
8991.749166
9033.099894
9048.723763
8999.125242
8963.809486
8996.778309
9034.150426
9019.666495
8978.047547
8997.001826
9027.221385
9003.483832
8971.386727
8978.651044
9017.878356
9019.353571
8985.937713
8984.820126
9019.890013
9012.737455
8980.461536
8986.585913
9008.468271
9011.01637
8994.476079
8986.652969
9004.713178
9016.157271
8999.616981
8972.034928
8994.274914
9019.912364
9000.801623
8969.419774
8996.53244
9031.021181
9009.205879
8978.561637
8999.013483
9017.453673
9012.759806
8989.759861
8996.443033
9027.266088
9043.56051
9021.90167
9002.455652
9032.205824
9059.072621
9037.100856
9023.622754
9041.414743
9076.037595
9063.922949
9048.902577
9084.620665
9097.62938
9049.662536
9030.574147
9071.991929
9117.656543
9099.194002
9075.232932
9088.956903
9112.269773
9092.577886
9037.257318
9036.944394
9080.709109
9093.136679
9067.700394
9062.045403
9090.32036
9087.414633
9052.791781
9048.790818
9078.54099
9079.144487
9043.158179
9026.39437
9052.411801
9065.375813
9054.557568
9043.04642
9055.004603
9081.804345
9078.652749
9042.040591
9027.556661
9052.590615
9053.954071
9028.741304
9027.266088
9047.516769
9059.229083
9036.944394
9027.109626
9052.970595
9075.456449
9041.437094
9026.863757
9052.948243
9069.95792
9045.48276
9026.439074
9051.62949
9077.959845
9058.692641
9025.209728
9044.253414
9068.102726
9034.418647
9008.222402
9034.84333
9066.269882
9062.626548
9043.4264
9047.986156
9061.128981
9049.729592
9015.129091
9015.531423
9050.087219
9072.483667
9055.429286
9037.927871
9048.232025
9053.775257
9028.718952
9017.207803
9047.606176
9079.144487
9057.820923
9039.827769
9059.966691
9072.148391
9054.06583
9027.936641
9046.823865
9075.389394
9053.194112
9022.706333
9032.809321
9054.043478
9040.341859
9007.440091
9012.201013
9030.954126
9023.242774
8991.503297
8997.113585
9023.689809
9031.065885
8998.633504
8986.205934
9003.260315
9009.071768
8997.627675
8980.685053
9001.963914
9016.291382
8980.90857
8966.93873
8990.542172
9019.577088
8997.158289
8969.687995
8980.886219
9018.750074
9026.729647
8999.304056
8983.546076
9008.222402
9016.64901
8985.915361
8972.079631
8995.571315
9007.596553
8987.859963
8988.485812
9015.330257
9025.679115
9012.04455
8987.256466
8985.200105
9001.7851
8984.127222
8958.825047
8964.12241
8996.219515
8991.771518
8962.289567
8933.411113
8942.284756
8950.711364
8911.953439
8925.409189
8959.585006
8967.341062
8949.213797
8943.782323
8975.700614
8972.236094
8941.323631
8917.697837
8943.402343
8970.850285
8945.034021
8925.208023
8945.414
8968.995091
8952.566558
8923.643401
8943.558805
8976.795849
8971.632596
8934.752218
8933.567576
8952.723021
8952.07482
8933.411113
8949.839646
8982.383786
8969.732698
8937.367372
8919.061293
8938.395552
8972.683128
8956.969852
8921.922317
8940.004878
8975.208876
8955.584044
8926.996163
8948.655003
8985.267161
8968.145724
8930.192462
8917.697837
8965.307053
8980.77446
8947.71623
8939.669602
8962.446029
8960.389669
8934.506349
8930.371276
8941.502445
8957.439239
8953.99707
8945.302241
8965.53057
8964.301224
8920.916488
8921.005895
8962.334271
8987.837611
8963.384803
8929.723076
8933.344058
8954.801733
8949.504369
8924.313953
8942.798846
8982.18262
8963.228341
8935.333363
8933.277003
8949.325555
8958.065088
8930.684201
8934.662811
8969.956216
8965.597625
8926.482073
8930.505387
8956.567521
8970.179733
8941.43539
8926.750294
8957.930977
8983.456669
8944.631689
8914.948573
8928.694895
8959.272082
8963.228341
8933.701686
8933.992259
8960.1438
8943.022364
8906.678427
8925.230375
8967.229303
8969.933864
8941.122465
8929.432503
8949.839646
8953.371221
8938.082628
8935.378067
8954.734678
8951.918358
8918.033113
8917.742541
8951.605433
8977.734623
8967.542227
8943.782323
8936.518006
8951.985413
8956.43341
8940.720134
8944.318765
8964.033003
8956.142838
8922.905794
8922.883442
8952.119524
8962.624843
8947.33625
8940.183692
8955.628747
8958.154495
8933.008782
8940.898948
8963.854189
8966.402288
8929.991297
8913.38395
8951.247806
8979.545114
8964.256521
8934.595756
8942.262404
8972.236094
8960.881407
8941.681259
8939.401381
8953.99707
8963.787134
8943.223529
8940.116637
8953.058297
8979.433355
8960.322614
8946.464532
8964.480038
8970.336195
8953.304166
8943.514102
8969.509181
8974.985358
8940.9213
8926.750294
8951.627785
8983.389614
8957.908625
8924.805692
8935.825102
8963.921245
8957.774515
8929.14193
8938.931994
8968.436297
8949.705535
8939.334326
8950.934881
8976.192352
8968.72687
8946.330422
8945.257538
8950.174922
8950.15257
8931.332401
8927.487901
8953.214759
8963.138934
8955.427582
8926.593831
8925.632706
8939.356677
8940.764837
8928.024343
8943.648212
8964.971777
8952.186579
8926.772645
8935.042791
8950.443143
8941.748314
8920.290639
8926.951459
8947.000974
8941.904776
8930.013648
8936.763875
8955.293471
8947.358602
8922.838738
8901.984561
8932.829968
8970.224437
8951.136047
8909.427692
8928.761951
8961.462553
8946.30807
8916.692009
8929.208985
8955.986375
8938.686125
8924.26925
8932.785265
8953.237111
8939.982526
8903.012741
8898.140061
8922.324648
8929.723076
8908.801843
8903.884459
8910.075892
8895.524907
8879.945741
8880.526886
8904.107976
8921.050599
8901.649285
8878.761098
8899.078834
8926.996163
8908.980657
8871.161505
8889.42288
8916.759064
8917.496671
8886.181877
8870.222732
8903.280962
8910.366465
8884.594904
8890.428709
8918.211927
8932.561747
8911.439349
8876.928255
8885.377215
8901.85045
8896.508383
8900.710511
8914.903869
8933.724038
8905.18086
8863.271339
8883.52202
8924.559823
8912.780453
8892.686235
8901.604581
8916.624953
8908.801843
8890.763985
8901.492822
8925.520948
8914.300372
8879.632816
8890.987502
8919.776549
8914.948573
8898.251819
8898.095357
8922.101131
8941.614204
8921.564689
8903.280962
8919.061293
8929.946593
8918.5025
8904.912639
8924.381009
8961.440201
8933.567576
8880.660997
8888.528811
8940.898948
8942.016535
8921.83291
8940.317802
8958.489771
8937.993221
8902.006912
8896.553087
8941.94948
8958.199198
8929.65602
8919.709494
8946.866864
8940.876596
8903.705645
8903.526831
8927.778474
8944.341116
8935.176901
8924.358657
8941.860073
8943.782323
8929.499558
8925.029209
8939.803712
8950.957233
8933.679334
8897.49186
8891.21102
8925.990334
8923.844567
8892.552125
8890.987502
8910.478224
8898.743558
8853.347165
8835.130493
8873.195514
8902.319837
8867.093488
8836.739819
8869.485124
8882.382081
8852.944833
8847.848636
8883.477316
8893.066215
8860.365613
8826.793292
8852.430743
8885.243104
8877.107069
8845.501702
8849.077982
8880.415127
8865.171238
8840.763133
8860.45502
8892.373311
8887.522982
8857.392831
8841.098409
8870.915636
8880.459831
8849.636775
8830.257813
8853.056592
8878.112898
8873.888418
8860.410316
8879.923389
8905.292619
8874.626026
8815.259792
8819.238403
8860.544427
8874.290749
8863.584264
8880.616293
8892.440366
8866.73586
8833.275298
8837.164502
8880.281017
8908.913602
8891.278075
8886.047767
8895.860183
8893.26738
8889.467584
8893.781471
8911.059369
8928.270212
8899.592924
8864.903017
8885.44427
8911.32759
8895.837831
8882.538543
8903.7727
8928.337267
8904.465604
8872.614369
8882.225619
8906.58902
8901.314008
8886.919485
8884.505497
8901.20225
8909.248878
8875.944778
8865.506514
8890.249895
8912.892212
8906.700779
8880.482183
8874.737784
8893.312084
8883.074985
8867.004081
8895.234334
8918.256631
8896.530735
8869.708642
8867.786392
8905.940819
8901.492822
8874.447212
8882.225619
8907.952476
8913.473357
8884.729014
8871.027395
8892.038034
8894.787299
8877.464697
8889.042901
8899.41411
8902.051616
8894.966113
8890.607523
8910.43352
8928.091398
8905.359674
8872.547313
8879.878685
8907.237221
8908.019532
8892.082738
8907.796014
8927.242032
8922.011724
8900.531697
8913.138081
8956.098134
8946.531587
8919.1507
8924.738637
8952.343041
8946.576291
8915.060331
8912.132253
8935.445122
8947.448009
8933.679334
8904.443253
8908.444215
8929.253689
8922.458759
8914.993276
8928.449026
8949.861997
8943.245881
8910.098244
8905.002046
8937.747352
8942.754143
8922.928145
8922.503462
8943.111771
8947.135085
8928.381971
8912.065197
8928.940765
8938.976698
8914.300372
8914.881517
8954.019422
8965.709384
8943.603509
8910.232354
8918.524852
8926.079741
8921.631744
8918.524852
8944.117599
8965.01648
8949.593776
8924.805692
8927.711419
8931.488863
8928.806654
8912.959267
8917.384913
8951.448971
8945.637518
8935.020439
8934.506349
8943.558805
8948.36443
8934.931032
8928.314916
8936.518006
8941.5695
8923.084607
8916.289677
8950.577253
8968.101021
8942.888253
8908.488918
8915.328552
8930.706552
8928.516081
8920.223584
8941.502445
8978.449879
8965.754088
8918.658962
8914.412131
8947.20214
8949.370259
8914.926221
8915.015628
8951.627785
8966.871675
8933.992259
8902.453947
8933.567576
8969.509181
8957.372183
8927.59966
8927.197328
8940.138989
8933.232299
8914.233317
8929.164282
8964.055355
8949.593776
8909.852375
8908.153642
8933.388762
8928.829006
8923.866919
8945.726925
8963.921245
8955.896968
8915.060331
8904.130328
8957.148666
8971.409079
8922.123482
8918.860128
8948.09621
8933.411113
8914.166261
8919.865956
8935.065143
8967.877503
8949.571425
8922.659924
8935.176901
8949.437314
8928.49373
8905.158508
8917.250802
8943.335288
8948.677355
8929.968945
8923.911622
8939.334326
8933.36641
8905.069101
8918.927183
8945.011669
8941.636555
8916.133215
8913.003971
8943.961137
8960.1438
8926.504424
8901.425767
8935.28866
8972.973701
8934.707515
8886.226581
8908.198346
8943.514102
8952.946538
8928.62784
8922.950497
8941.05541
8935.735695
8916.96023
8912.445177
8930.17011
8939.64725
8917.206099
8913.495709
8939.13316
8943.849378
8900.531697
8900.643456
8941.390686
8960.814352
8919.195404
8892.149793
8925.833872
8960.344965
8937.322669
8903.951514
8912.668695
8936.585061
8919.754198
8885.645436
8910.8135
8966.782268
8970.872637
8928.873709
8908.488918
8922.011724
8917.541375
8908.600677
8930.55009
8950.912529
8939.893119
8912.22166
8901.626933
8927.689067
8939.714305
8919.441273
8895.033168
8915.149738
8944.452875
8923.218718
8904.242087
8921.430578
8946.084553
8936.138026
8910.455872
8906.611372
8928.11375
8927.420846
8897.849488
8908.287753
8951.292509
8957.46159
8916.133215
8890.249895
8907.036055
8928.158453
8918.658962
8904.555011
8923.419884
8935.28866
8915.574421
8902.096319
8923.621049
8939.781361
8923.665753
8899.905848
8912.623991
8943.804675
8941.234224
8916.133215
8917.697837
8932.360581
8914.769759
8887.992369
8915.68618
8958.780343
8956.791038
8906.231392
8904.912639
8937.993221
8943.447047
8919.865956
8893.692064
8917.362561
8946.241015
8916.692009
8901.425767
8926.124445
8967.497524
8977.667567
8963.049527
8949.280852
8962.870713
8972.996053
8954.757029
8962.468381
9007.462443
9016.045513
8991.391539
8973.510143
8989.49164
8993.023216
8976.393518
8972.906646
8991.369187
9004.266143
8985.222457
8979.679224
9011.977495
9023.108664
8985.378919
8945.302241
8963.138934
9006.546021
9000.466347
8965.731736
8986.451803
9019.442978
9007.507146
8979.209838
8980.886219
8988.776384
8989.290475
8970.492657
8976.661739
9007.194222
9004.757882
8979.276893
8983.613131
9006.65778
9021.834614
8976.684091
8951.739544
8985.200105
9008.557678
8996.15246
8982.204972
9001.695693
9009.585859
8988.038777
8975.879428
8995.034873
9008.043588
8986.92119
8965.485867
8979.634521
9006.367207
9004.266143
8980.729756
8990.38571
9013.430359
9005.182565
8977.734623
8970.78323
8991.436242
9005.428434
8990.966855
8977.511105
9015.106739
9031.021181
8994.297265
8966.42464
8989.201068
9006.769539
8987.882315
8968.793925
8991.905629
9009.876431
8994.364321
8972.750184
8994.029044
9024.98621
9012.737455
8982.562599
8974.270102
8982.048509
8985.222457
8985.937713
8990.631579
9011.351646
9017.699542
8975.812373
8960.792
8993.984341
9014.682056
9004.713178
8980.640349
8978.98632
9002.455652
8990.318655
8960.344965
8985.311864
9028.473083
9014.749112
8966.42464
8957.394535
8976.281759
8988.32935
8988.217591
9003.796757
9021.342876
9018.839481
8983.926056
8961.350794
8981.780288
9002.790928
8979.411004
8958.199198
8991.570353
9028.115455
9021.767559
8972.549018
8968.21278
8991.391539
8990.720986
8974.806544
8993.470251
9021.029952
9001.226306
8971.476134
8969.844457
8995.12428
8989.424585
8963.004823
8972.57137
9013.922097
9014.682056
8971.274969
8962.982471
8991.682111
9002.232135
8983.143745
8975.812373
8999.99696
9015.687885
8998.722911
8979.522762
8985.736547
9001.963914
8984.686015
8961.462553
8978.271065
9011.105777
8993.961989
8955.695803
8945.481055
8970.671471
8981.266198
8974.247751
8979.612169
9000.980437
8983.791945
8947.85034
8956.902797
8997.672379
8998.678207
8963.027175
8949.929053
8969.710346
8973.532495
8961.529608
8953.974718
8973.376033
9012.245716
8990.519821
8941.345983
8966.134067
8998.052358
8976.41587
8948.655003
8952.119524
8986.4071
8991.346835
8971.789059
8970.805582
8980.327425
8982.249675
8966.156419
8964.904721
8978.159306
8989.424585
8973.308977
8956.276948
8972.280797
8992.620884
8989.156364
8973.97953
8989.49164
9015.665533
8994.409024
8983.523724
9022.773388
9051.428324
9036.89969
9007.440091
9017.096045
9047.226196
9059.229083
9041.213577
9058.849103
9102.88204
9097.808194
9046.309775
9020.717027
9053.328222
9079.368005
9075.612912
9061.710127
9073.243627
9090.432118
9061.732478
9042.91231
9051.361269
9080.753813
9083.056043
9050.847179
9058.692641
9081.826697
9059.586711
9034.172777
9050.646013
9088.979255
9085.559438
9058.022089
9053.596443
9072.036633
9070.650824
9051.62949
9043.94049
9070.762583
9077.021072
9031.803493
9022.952202
9071.701356
9097.338807
9081.267903
9046.063905
9055.071659
9072.327205
9057.351536
9038.777237
9052.322394
9096.020054
9095.573019
9050.35544
9033.993963
9053.596443
9063.02888
9044.365173
9051.540083
9079.81504
9079.926798
9050.623661
9033.748094
9060.86076
9076.350519
9065.778144
9058.871455
9068.348595
9070.024976
9059.586711
9036.340897
9056.680984
9094.857764
9080.418537
9044.83456
9040.811246
9081.826697
9091.505002
9062.023051
9048.410839
9063.02888
9068.79563
9048.455542
9045.99685
9084.620665
9088.621627
9059.854932
9042.755847
9061.576016
9070.673176
9059.743173
9048.187321
9062.201865
9088.9122
9078.92097
9040.520673
9055.250472
9069.801458
9064.369984
9059.005566
9076.574037
9088.956903
9060.905464
9036.452655
9038.464312
9064.079412
9079.122136
9056.770391
9053.082353
9074.003586
9091.035615
9051.964766
9031.445865
9062.224217
9084.218333
9073.467144
9051.674193
9058.066792
9075.679967
9061.911292
9040.520673
9053.350574
9081.580827
9074.897656
9056.077487
9059.027917
9075.836429
9069.488534
9055.563397
9058.335013
9090.879153
9082.676063
9053.641147
9038.151388
9051.003641
9074.31651
9055.898673
9063.095935
9081.312606
9075.277635
9046.309775
9034.753923
9064.839371
9091.639112
9078.809211
9055.116362
9068.013319
9090.253304
9057.798571
9040.475969
9060.34667
9085.760604
9078.853915
9057.239778
9053.484685
9082.273732
9096.556496
9079.524467
9060.592539
9076.685795
9080.820868
9042.845254
9032.138769
9065.733441
9069.354423
9037.234966
9010.50228
9032.071713
9076.506981
9042.755847
9011.306943
9019.934716
9048.120266
9028.048399
9012.223364
9033.301059
9068.125077
9066.001662
9026.617888
9022.907498
9050.064868
9050.22133
9027.221385
9024.71799
9036.363248
9043.627565
9014.86087
9015.263202
9047.762638
9049.84135
9026.886109
9024.025085
9044.387525
9060.011394
9043.515807
9011.642219
9009.407045
9045.281594
9034.440998
9013.720931
9030.529443
9042.197054
9045.840388
9031.289402
9015.665533
9035.111551
9048.343783
9035.670344
9030.529443
9051.696545
9044.141655
9006.210745
8994.543135
9029.389504
9053.439981
9044.141655
9037.570243
9045.974499
9053.596443
9035.379772
9006.434263
9019.062998
9060.681946
9056.792743
9018.750074
9027.087274
9059.497304
9040.051286
9016.492548
9018.370094
9035.893862
9037.503187
9016.090216
9020.605269
9053.596443
9054.155237
9018.481853
9012.80451
9053.439981
9059.765525
9026.841405
8999.080539
9018.437149
9039.246623
9033.099894
9024.650934
9036.564414
9055.384583
9042.577033
9024.874452
9030.931774
9039.559548
9032.384638
9008.423568
9015.084388
9049.886054
9054.378754
9032.183472
9025.165024
9033.770446
9037.100856
9024.248603
9013.408007
9038.129036
9057.463295
9033.993963
9009.362341
9027.891937
9051.204807
9059.340842
9038.240795
9032.116417
9052.769429
9039.783065
8991.682111
8994.386672
9041.571205
9065.107592
9048.075562
9044.499283
9053.484685
9050.534254
9023.421588
9008.021236
9022.214594
9036.89969
9034.820978
9028.137806
9047.9191
9065.308757
9038.374905
9018.727722
9032.362286
9045.616871
9031.110588
9005.942524
9013.653876
9049.416667
9051.428324
9016.201975
9017.386617
9056.390411
9048.612004
9018.973591
9024.494472
9056.032784
9048.634356
9004.73553
9011.53046
9044.298118
9043.918138
9009.697617
9018.615963
9049.237853
9065.375813
9042.957013
9009.116472
9030.551795
9056.748039
9041.12417
9008.736492
9018.392446
9046.667403
9030.685905
9012.491585
9033.681039
9070.807287
9051.517731
9013.162138
9025.500301
9060.749002
9051.808304
9023.712161
9014.547946
9038.978402
9046.957975
9016.514899
9009.518803
9040.297155
9060.86076
9042.286461
9016.78312
9030.149463
9051.741249
9033.94926
9010.949315
9024.382713
9043.359344
9032.988135
9003.148556
9013.095082
9047.539121
9040.699487
9002.634466
9003.528536
9046.063905
9061.911292
9043.091123
9017.900707
9021.342876
9034.619812
9016.559603
9008.825899
9039.067809
9061.263092
9023.935678
8998.07471
9021.342876
9047.002679
9037.056152
9020.784083
9020.337048
9035.49153
9029.501263
9001.338065
9009.384693
9057.262129
9061.017223
9018.101873
9018.101873
9051.24951
9036.720876
9005.495489
9008.557678
9048.723763
9049.908406
9014.033856
9000.823975
9029.836539
9060.816057
9036.273841
9020.180585
9046.600347
9062.246568
9044.365173
9022.996905
9037.570243
9056.055135
9035.536234
8998.208821
9002.142728
9031.378809
9034.664516
9000.064015
8989.044605
9012.692751
9020.426455
8992.866754
8980.327425
9004.936696
9001.427472
8968.86098
8969.330367
9014.436187
9033.234004
8989.066957
8960.568483
8980.103908
9016.559603
9005.875469
8979.343948
8995.101928
9012.715103
9008.06594
8989.513992
8997.024178
9025.612059
9018.414798
8990.273951
8993.514954
8997.068882
8992.464422
8977.198181
8987.479983
9027.489606
9043.18053
8998.611152
8971.722003
8990.855097
9004.757882
8982.69671
8974.806544
9001.561582
9012.402178
8986.585913
8964.524742
8972.616073
9013.542117
9014.21267
8994.923114
9002.723873
9016.246678
8998.208821
8970.962044
8978.673396
9009.161175
9019.08535
8993.224382
8978.718099
9015.844347
9027.042571
8997.784137
8983.747242
8994.252562
9019.733551
9002.545059
8981.28855
9003.506184
9022.125187
9005.495489
8975.410041
8981.936751
9006.769539
8999.661684
8975.633559
8985.825954
9014.749112
9014.592649
8977.287588
8977.82403
9010.479928
9012.536289
8985.021291
8972.504314
8989.983379
9005.204917
8999.34876
8995.392501
9007.954181
9008.96001
8982.450841
8960.099096
8984.082518
9019.711199
9008.848251
8979.723928
8982.115565
9016.738417
9019.018295
8977.466402
8967.206951
9002.835632
9009.675266
8986.429451
8982.69671
9013.765635
9022.259298
8993.872582
8978.718099
8997.493565
9007.082463
9005.495489
9004.109681
9019.241812
9015.978457
8984.864829
8964.412983
8989.648102
9008.714141
9003.819108
8996.197164
9013.609173
9027.377847
9012.04455
8978.98632
8983.970759
9009.98819
9017.565431
8988.932847
8979.031024
9008.289457
9015.777292
8984.529553
8981.623826
9014.190318
9024.002734
9000.51105
8985.960065
9011.508109
9017.8113
8993.805527
8969.956216
8974.828896
9003.215611
9007.104815
8982.18262
8987.837611
9005.495489
8996.465385
8972.034928
8988.59757
9025.589708
9010.636391
8974.11364
8972.05728
9006.367207
9020.314696
8981.959102
8964.591797
8996.465385
9013.095082
8991.682111
8973.487791
8989.648102
9017.67719
9007.753015
8977.242884
8991.749166
9015.866699
9006.993056
8971.587893
8978.226361
9020.448806
9012.580992
8985.445975
8979.88039
9002.835632
9004.824937
8982.607303
8983.367262
9010.971667
9013.922097
8993.514954
8985.177754
9005.651952
8998.655855
8977.801678
8975.365338
9003.394425
9014.659705
8988.664626
8980.975626
8988.08348
9005.160213
8998.544097
8971.319672
8984.037815
9020.694676
9015.665533
8983.747242
8977.82403
8994.0961
8994.856059
8972.928998
8972.504314
9001.516879
9010.1223
8990.855097
8980.305073
8996.01835
9005.696655
8995.303094
8983.143745
8992.553829
9009.652914
9004.377902
8985.490678
8985.960065
8996.308922
8998.208821
8997.918248
9012.93862
9020.091178
9009.965838
8976.974663
8961.17198
8999.952257
9029.657725
9001.539231
8977.734623
8998.030007
9008.110643
8985.334216
8988.061129
8996.823012
9005.473138
8999.304056
8974.49362
8986.876486
8999.661684
8977.488753
8965.999957
9010.301114
9033.81515
9012.469234
8981.28855
8985.758899
9009.407045
9001.02514
8974.515971
8983.702538
9017.028989
9011.731626
8980.193315
8977.82403
9012.491585
9023.82392
8983.680187
8960.344965
8994.431376
9018.168928
9001.650989
8987.770556
9000.175774
9014.592649
8985.758899
8961.931939
8992.978512
9026.215556
9004.690826
8969.598588
8988.485812
9018.258335
9009.898783
8997.739434
8994.520783
9001.91921
9003.416777
8980.103908
8973.398384
9007.216574
9021.588745
8990.184544
8977.421698
9014.100911
9035.647993
9002.634466
8983.344911
9001.047492
9017.498376
9003.863812
8986.585913
8998.857021
9013.184489
9018.995943
9007.417739
8999.639332
9019.711199
9010.390521
8974.292454
8989.223419
9016.291382
9018.280687
9005.473138
8993.380844
9009.630562
9021.186414
9002.030969
8977.376995
8999.952257
9016.760769
8995.593667
8975.074765
9001.427472
9025.612059
9003.305018
8988.552867
8994.476079
9004.377902
8988.105832
8975.5218
9008.691789
9026.975516
9013.586821
8997.493565
9005.339027
9030.350629
9015.531423
8973.890123
8972.839591
9006.881297
9024.829748
9001.829803
8972.012576
8992.464422
9026.036742
9007.104815
8985.423623
9004.199088
9027.891937
9001.114547
8965.709384
8987.211762
9026.036742
9019.197109
8976.125297
8975.253579
9012.826861
9011.686923
8984.574256
8993.604361
9023.198071
9025.969687
9001.203954
9002.746225
9008.289457
9004.713178
8995.861887
8991.480946
9009.518803
9032.004658
9008.647085
8986.898838
9008.289457
9035.089199
9044.231062
9025.075617
9014.369132
9025.835577
9015.106739
9018.235984
9040.565376
9077.915141
9059.430249
9005.316675
9015.129091
9071.388432
9085.760604
9040.632432
9009.742321
9066.538103
9104.737235
9097.182345
9063.766487
9055.406935
9085.671197
9105.564249
9082.38549
9074.31651
9089.873325
9098.791671
9084.732423
9089.806269
9124.518529
9136.45436
9103.507889
9087.392281
9103.709054
9109.654618
9086.073528
9098.255229
9141.751723
9146.199721
9098.344636
9078.116307
9112.090959
9120.316401
9095.573019
9087.436984
9124.652639
9146.95968
9118.12593
9088.174592
9096.243572
9125.502005
9098.366988
9082.050214
9100.95979
9111.420406
9103.038502
9087.347577
9079.770336
9111.710979
9114.057912
9079.122136
9071.187266
9085.402976
9084.419499
9045.035725
9025.321487
9079.859743
9116.471901
9089.694511
9057.552702
9067.119249
9093.673121
9079.43506
9056.435115
9068.79563
9083.547781
9074.607083
9048.634356
9063.766487
9093.539011
9087.749909
9063.699432
9060.257263
9084.17363
9077.177534
9033.859853
9054.266996
9086.60997
9089.336883
9062.358327
9061.888941
9076.194057
9072.729537
9043.873435
9025.947335
9058.826752
9098.031711
9091.817926
9067.834505
9065.152295
9077.713976
9061.151333
9036.184434
9059.609063
9094.835412
9072.595426
9048.075562
9056.032784
9077.401051
9075.098822
9048.835522
9045.549815
9079.077432
9087.884019
9067.588635
9051.473028
9066.828676
9069.600292
9051.316565
9056.055135
9076.551685
9087.101708
9063.364156
9045.750981
9070.963749
9103.329075
9079.345653
9047.516769
9062.693603
9083.994816
9060.011394
9033.144597
9038.911347
9078.965673
9075.299987
9044.991022
9049.573129
9076.283464
9078.205714
9044.275766
9041.347687
9071.969577
9090.387415
9061.576016
9048.343783
9067.879208
9075.009415
9051.853007
9034.508054
9063.408859
9082.832525
9064.369984
9041.973536
9053.417629
9097.070586
9079.882095
9022.616926
9038.106684
9078.205714
9078.742156
9049.818999
9045.750981
9077.691624
9088.465165
9068.236836
9052.076525
9063.990005
9077.691624
9056.636281
9042.353516
9060.033746
9069.913217
9051.204807
9035.044495
9066.962787
9095.394205
9078.742156
9044.946318
9044.141655
9069.667348
9069.197961
9050.310737
9043.828731
9081.759641
9098.232877
9065.46522
9036.497359
9058.558531
9065.21935
9059.407897
9049.796647
9069.130906
9083.838354
9064.660557
9046.689754
9063.095935
9071.23197
9048.254376
9031.959955
9040.587728
9072.550723
9068.281539
9046.265071
9057.552702
9085.7159
9079.546819
9039.045458
9029.613022
9052.14358
9054.982252
9052.747077
9060.637243
9079.613874
9068.348595
9038.061981
9025.053266
9061.844237
9079.524467
9054.132885
9033.256356
9037.033801
9071.097859
9062.671252
9033.591632
9034.373943
9055.876321
9049.461371
9023.533347
9031.401161
9061.643071
9058.558531
9038.643126
9034.776275
9042.66644
9044.052248
9032.451693
9031.8929
9063.274749
9076.551685
9037.547891
9013.586821
9061.508961
9090.052139
9049.103743
9018.437149
9041.302984
9064.213522
9050.869531
9032.094065
9039.33603
9066.292234
9060.637243
9040.431266
9047.293251
9075.098822
9055.451638
9021.432283
9033.256356
9059.564359
9061.37485
9037.547891
9029.657725
9060.793705
9076.417574
9052.188283
9032.764618
9050.713068
9064.213522
9043.761676
9037.458484
9052.27769
9076.976368
9055.831618
9028.473083
9053.819961
9074.04829
9058.558531
9034.195129
9045.728629
9081.044386
9072.573074
9035.156254
9033.859853
9070.069679
9067.186304
9039.514844
9048.544949
9081.379662
9071.321377
9030.015353
9026.39437
9066.359289
9083.637188
9062.805362
9041.057115
9064.70526
9075.72467
9047.494417
9013.69858
9047.829693
9083.301912
9077.401051
9036.3856
9038.061981
9056.010432
9044.96867
9036.542062
9043.716972
9063.16299
9060.34667
9027.176681
9025.992039
9059.631414
9065.107592
9035.983269
9025.477949
9050.981289
9044.365173
9018.973591
9028.271917
9060.749002
9078.138659
9049.506074
9025.969687
9052.098876
9074.271807
9044.745153
9013.139786
9017.833652
9058.111496
9063.833542
9041.571205
9034.709219
9052.925891
9056.211597
9034.217481
9022.125187
9049.126094
9073.80242
9057.01626
9033.502225
9053.194112
9065.644034
9037.704353
9014.72676
9048.656708
9087.079357
9066.560455
9034.776275
9040.2301
9068.102726
9056.569225
9033.256356
9061.643071
9090.499173
9079.233894
9044.432228
9026.282612
9041.63826
9062.403031
9041.280632
9033.971612
9066.605159
9066.515752
9044.521635
9037.860815
9056.949205
9078.92097
9062.358327
9036.76558
9045.013373
9066.940435
9040.297155
9021.499338
9054.602272
9090.07449
9061.844237
9028.070751
9037.346725
9063.274749
9061.352499
9050.802475
9073.534199
9087.884019
9058.782048
9015.285553
9015.732588
9048.790818
9066.515752
9058.960862
9038.620775
9056.613929
9074.987063
9065.331109
9045.594519
9061.128981
9080.753813
9044.812208
9017.431321
9033.837501
9068.661519
9072.371909
9051.741249
9073.377737
9107.710017
9102.166784
9069.466182
9068.438002
9099.238706
9111.934496
9096.556496
9081.469069
9115.019037
9132.051066
9114.951982
9119.467034
9136.253194
9133.101598
9101.60799
9077.110479
9103.865517
9136.83434
9136.677878
9110.414578
9103.843165
9117.142453
9115.778996
9095.550668
9104.044331
9143.673974
9146.289128
9103.820813
9101.362121
9122.372761
9112.202717
9087.50404
9090.812098
9118.662371
9143.428104
9128.050104
9103.306723
9108.000589
9114.147319
9109.02877
9102.278543
9105.653656
9121.478691
9128.832415
9115.063741
9111.196889
9120.919898
9114.974334
9107.933534
9111.621572
9086.878191
9089.605104
9079.345653
9088.219296
9121.322229
9139.494197
9106.815947
9086.185287
9114.057912
9120.271697
9092.488479
9069.108554
9099.55163
9141.952889
9123.758569
9082.698415
9098.188174
9127.759531
9121.143415
9107.911182
9114.773168
9141.438799
9123.333886
9069.197961
9076.529333
9122.61863
9132.654564
9103.552592
9097.316456
9123.758569
9116.404845
9102.88204
9099.797499
9114.728464
9116.829528
9100.915086
9095.058929
9120.025828
9135.917918
9121.031656
9092.264961
9086.274694
9117.030694
9117.813005
9091.549705
9106.659485
9130.866424
9119.064703
9093.360197
9104.156089
9122.462168
9123.959735
9094.835412
9092.779051
9116.293087
9127.3572
9105.608953
9109.051121
9134.554462
9124.250308
9101.898563
9093.986046
9105.676008
9112.716807
9105.228973
9104.781938
9116.538956
9141.170578
9115.533127
9082.005511
9097.182345
9127.915994
9117.298915
9086.408804
9085.022996
9117.187156
9112.470938
9090.901505
9088.934551
9109.945191
9123.624459
9094.880115
9084.643016
9118.349447
9126.127854
9092.980217
9082.609008
9106.972409
9133.347468
9128.541843
9095.505964
9093.78488
9118.014171
9114.393188
9092.421423
9107.084168
9140.030639
9122.10454
9090.432118
9071.589598
9098.076415
9124.317363
9088.822793
9079.971502
9119.243517
9141.371744
9118.550613
9097.137642
9100.803328
9119.28822
9097.450566
9075.568208
9104.670179
9142.60109
9122.953906
9110.57104
9115.399017
9117.74595
9094.857764
9071.187266
9090.029787
9126.306668
9127.781883
9106.748892
9121.791616
9136.07438
9105.608953
9074.294159
9078.473935
9118.751778
9127.133683
9102.36795
9108.872307
9137.460189
9133.839206
9097.227049
9070.203789
9095.103633
9119.28822
9104.133738
9094.67895
9112.135662
9125.792578
9115.220203
9091.750871
9103.574944
9124.295011
9131.760494
9112.448587
9093.762528
9118.528261
9139.315383
9121.657505
9103.105557
9117.254212
9115.197851
9085.0677
9080.530295
9104.558421
9131.872252
9125.613764
