Detector 2,,,,,,,,Detector 4,,,,,,,,Detector 6,,,,,,,,Detector 8,,,,,,,,Detector 10,,,,,,,,Detector 12,,,,,,,,Detector 14,,,,,,,,Detector 16,,,,,,,
"RED1,2,3,4","IR1,2,3,4 ","RED5,6,7,8","IR5,6,7,8 ","RED9,10,11,12","IR9,10,11,12 ","RED13,14,15,16","IR13,14,15,16 ","RED1,2,3,4","IR1,2,3,4 ","RED5,6,7,8","IR5,6,7,8 ","RED9,10,11,12","IR9,10,11,12 ","RED13,14,15,16","IR13,14,15,16 ","RED1,2,3,4","IR1,2,3,4 ","RED5,6,7,8","IR5,6,7,8 ","RED9,10,11,12","IR9,10,11,12 ","RED13,14,15,16","IR13,14,15,16 ","RED1,2,3,4","IR1,2,3,4 ","RED5,6,7,8","IR5,6,7,8 ","RED9,10,11,12","IR9,10,11,12 ","RED13,14,15,16","IR13,14,15,16 ","RED1,2,3,4","IR1,2,3,4 ","RED5,6,7,8","IR5,6,7,8 ","RED9,10,11,12","IR9,10,11,12 ","RED13,14,15,16","IR13,14,15,16 ","RED1,2,3,4","IR1,2,3,4 ","RED5,6,7,8","IR5,6,7,8 ","RED9,10,11,12","IR9,10,11,12 ","RED13,14,15,16","IR13,14,15,16 ","RED1,2,3,4","IR1,2,3,4 ","RED5,6,7,8","IR5,6,7,8 ","RED9,10,11,12","IR9,10,11,12 ","RED13,14,15,16","IR13,14,15,16 ","RED1,2,3,4","IR1,2,3,4 ","RED5,6,7,8","IR5,6,7,8 ","RED9,10,11,12","IR9,10,11,12 ","RED13,14,15,16","IR13,14,15,16 "
20923,55471,1031,176,166,160,158,156,5211,17270,388,165,155,153,152,158,909,3596,185,159,157,155,159,153,997,3393,187,164,164,164,162,164,169,197,34370,29834,19264,15236,383,179,177,182,22343,14607,7727,5670,251,187,2886,10385,27570,34383,34735,31638,31806,13831,1519,4381,22578,20375,31757,30043,30305,15600
20787,55846,1029,179,162,161,161,157,5154,17325,387,165,158,161,155,159,898,3602,188,161,143,158,155,162,989,3387,190,166,163,168,162,159,172,203,34461,29903,19268,15238,383,179,177,185,22363,14624,7723,5675,254,186,3048,10400,27578,34391,34772,31673,31807,13841,1690,4400,22577,20374,31763,30060,30304,15606
20890,56152,1045,176,163,160,157,155,5165,17367,390,167,159,153,156,157,901,3609,185,159,156,157,156,147,992,3385,188,165,168,165,165,160,174,206,34570,30022,19292,15266,384,181,176,181,22341,14631,7726,5683,254,184,3054,10427,27581,34427,34811,31708,31807,13849,1693,4415,22556,20361,31772,30091,30304,15612
20923,56153,1036,176,162,163,157,156,5169,17366,386,159,158,159,155,155,903,3612,185,158,154,155,155,153,985,3374,187,163,165,168,166,164,172,204,34572,30012,19280,15244,386,180,176,180,22341,14621,7715,5671,254,186,3054,10415,27603,34433,34794,31678,31795,13843,1698,4415,22557,20358,31778,30080,30299,15610
20905,56147,1043,177,163,158,157,159,5177,17387,389,160,157,159,156,155,903,3610,185,158,155,158,156,156,979,3368,194,163,166,165,165,158,174,206,34552,30005,19252,15228,385,183,177,183,22343,14633,7718,5679,257,183,3053,10414,27620,34459,34775,31679,31794,13850,1698,4417,22569,20375,31793,30103,30304,15620
20955,56394,1037,180,167,159,157,155,5185,17417,387,166,162,157,155,154,904,3623,185,157,159,159,156,150,976,3364,187,169,169,165,164,160,177,205,34619,30117,19258,15257,385,180,179,193,22375,14677,7735,5707,254,183,3060,10445,27654,34535,34767,31707,31794,13860,1701,4434,22607,20436,31835,30179,30324,15639
21039,56720,1056,181,163,159,157,158,5192,17451,391,164,158,156,158,155,910,3635,185,157,161,154,148,151,974,3361,188,168,170,164,167,161,178,205,34701,30244,19291,15292,386,179,177,185,22414,14732,7763,5739,256,187,3066,10497,27681,34606,34775,31750,31806,13876,1705,4457,22647,20495,31889,30268,30346,15661
21124,57063,1049,178,162,160,156,157,5193,17469,389,162,154,155,159,154,908,3651,185,155,156,152,159,159,973,3357,187,166,163,165,164,161,174,204,34791,30373,19315,15332,387,181,172,183,22465,14795,7788,5770,256,186,3073,10540,27704,34679,34821,31819,31829,13895,1710,4472,22693,20561,31945,30371,30367,15686
21211,57391,1063,177,163,160,156,155,5190,17483,392,163,157,161,157,155,912,3669,185,158,159,153,147,152,969,3357,188,168,166,164,164,160,175,208,34893,30539,19370,15389,389,180,177,183,22514,14862,7819,5809,255,186,3081,10602,27741,34776,34884,31923,31863,13925,1717,4493,22726,20615,32017,30482,30403,15718
21283,57715,1061,179,164,162,162,158,5194,17513,390,164,158,160,157,158,914,3686,183,162,156,154,154,155,970,3365,188,165,165,167,162,159,175,206,34998,30656,19405,15427,389,181,182,187,22563,14925,7845,5832,258,186,3093,10664,27769,34846,34935,31965,31871,13919,1716,4513,22753,20661,32059,30536,30423,15722
20830,55869,1041,175,163,160,161,155,5183,17377,391,164,158,155,155,157,906,3621,186,162,152,153,153,155,966,3311,188,165,169,165,164,164,173,205,34654,30146,19329,15267,386,181,186,184,22386,14665,7753,5691,253,189,3076,10503,27719,34640,34788,31665,31792,13853,1708,4435,22673,20485,31852,30118,30358,15652
20532,55100,1019,175,165,159,158,155,5175,17301,390,163,156,157,156,156,899,3585,184,159,154,157,155,159,957,3278,187,165,165,164,163,161,172,203,34350,29777,19213,15137,384,181,176,183,22199,14481,7701,5637,253,189,3049,10324,27665,34465,34707,31539,31753,13831,1692,4360,22602,20376,31763,29981,30320,15628
20639,55381,1034,175,161,161,158,157,5170,17293,390,163,161,157,156,158,900,3586,185,162,158,156,151,155,959,3281,187,165,166,167,164,164,175,203,34315,29734,19171,15105,383,181,177,187,22196,14477,7695,5633,254,189,3043,10304,27637,34418,34698,31511,31729,13819,1691,4359,22590,20354,31749,29971,30305,15615
20760,55678,1029,175,165,158,158,157,5169,17297,385,160,163,154,155,159,902,3594,185,159,156,154,154,155,958,3288,186,163,169,163,165,159,176,202,34348,29784,19163,15106,383,180,181,183,22196,14489,7692,5639,253,187,3047,10301,27625,34407,34689,31533,31721,13822,1694,4363,22584,20354,31755,29992,30305,15623
20846,55935,1041,175,163,160,155,157,5172,17301,388,162,156,156,159,157,903,3603,185,158,155,156,159,155,960,3294,188,168,165,167,165,165,173,203,34411,29847,19183,15117,384,180,177,182,22220,14522,7699,5644,256,189,3051,10320,27621,34413,34695,31529,31709,13825,1696,4378,22589,20373,31771,30011,30300,15622
20857,55930,1031,177,163,160,160,155,5166,17285,385,165,157,156,156,159,907,3605,187,161,156,156,155,155,957,3289,191,165,166,164,163,159,174,204,34413,29846,19186,15117,384,179,179,184,22207,14513,7693,5641,254,187,3051,10313,27615,34405,34699,31529,31703,13825,1696,4372,22579,20359,31766,30005,30292,15625
20871,56073,1042,174,166,162,158,156,5167,17284,387,159,158,157,159,159,903,3611,185,157,157,156,155,155,959,3293,187,164,163,162,165,162,173,202,34450,29903,19201,15138,384,180,182,183,22223,14540,7706,5659,257,188,3054,10331,27629,34444,34717,31580,31707,13834,1696,4378,22587,20382,31783,30054,30291,15630
20939,56370,1040,177,166,159,156,158,5163,17297,387,162,162,155,158,155,909,3620,184,159,156,156,158,155,959,3298,188,165,167,164,164,162,173,204,34543,30041,19237,15183,386,182,178,183,22270,14597,7723,5685,255,187,3059,10377,27649,34501,34750,31640,31723,13850,1701,4397,22605,20423,31830,30140,30307,15647
21025,56720,1053,177,163,159,158,157,5167,17323,389,163,157,157,154,159,909,3638,186,159,161,155,159,155,962,3308,187,167,165,169,162,160,173,203,34642,30188,19275,15231,388,181,179,184,22324,14669,7746,5716,255,187,3069,10426,27675,34572,34783,31703,31748,13872,1703,4413,22636,20478,31883,30238,30338,15673
21110,57067,1048,178,165,160,158,157,5170,17355,389,165,159,158,153,159,912,3655,189,165,153,161,151,154,959,3315,191,167,166,164,164,158,173,205,34739,30329,19299,15271,388,180,178,184,22383,14743,7761,5743,256,187,3074,10485,27699,34654,34821,31784,31773,13899,1708,4436,22665,20530,31947,30346,30363,15703
21191,57406,1066,176,163,162,159,157,5175,17396,394,161,162,157,159,159,912,3670,190,162,158,155,155,154,965,3329,187,165,167,167,167,161,174,209,34843,30490,19321,15312,389,181,179,185,22443,14818,7776,5767,257,187,3086,10546,27723,34739,34861,31857,31801,13920,1712,4460,22691,20582,32003,30452,30400,15728
21277,57739,1058,180,163,159,157,157,5184,17448,389,166,156,157,156,154,916,3689,187,156,155,156,157,157,966,3340,188,169,165,164,164,159,174,205,34947,30597,19333,15331,389,180,177,183,22506,14882,7769,5767,255,188,3092,10602,27733,34788,34899,31879,31811,13915,1718,4485,22711,20623,32035,30485,30416,15733
20802,55846,1043,176,166,157,156,155,5176,17331,390,159,159,158,155,155,908,3624,186,158,157,159,153,155,960,3296,187,167,162,165,163,160,175,204,34609,30112,19233,15155,386,181,177,184,22331,14627,7658,5614,253,186,3077,10444,27663,34563,34734,31570,31729,13847,1706,4405,22611,20435,31804,30061,30347,15662
20525,55127,1020,179,164,159,158,156,5165,17246,385,166,157,155,154,154,902,3590,183,158,157,155,153,153,955,3270,186,169,165,161,165,160,173,204,34347,29782,19128,15045,386,181,181,186,22156,14459,7593,5557,252,184,3048,10271,27596,34381,34655,31455,31695,13826,1690,4333,22545,20332,31713,29941,30316,15641
20641,55459,1036,178,163,162,158,156,5128,17155,387,161,162,157,159,156,902,3592,189,159,158,155,155,156,957,3275,187,168,164,164,167,163,173,202,34391,29814,19098,15022,384,179,178,187,22116,14436,7575,5548,255,188,3046,10259,27543,34327,34655,31453,31667,13822,1694,4334,22512,20300,31705,29944,30303,15630
20785,55859,1030,175,162,163,158,158,5131,17184,388,161,154,161,158,155,904,3599,184,161,157,158,156,155,949,3252,188,158,165,168,156,158,175,202,34392,29842,19043,14990,384,180,178,183,22119,14465,7543,5535,255,186,3047,10276,27490,34295,34709,31533,31674,13823,1692,4343,22488,20286,31711,29979,30301,15636
20881,56153,1045,179,165,161,157,156,5127,17177,388,159,159,157,155,153,908,3610,187,158,157,156,156,158,939,3232,187,164,164,167,163,161,175,202,34404,29859,19031,14988,385,182,177,183,22144,14491,7531,5532,253,187,3051,10295,27471,34285,34723,31529,31663,13824,1696,4359,22480,20287,31737,30009,30291,15631
20845,56007,1033,176,167,159,157,159,5131,17169,385,163,162,159,156,155,909,3607,181,158,156,169,153,155,936,3225,187,164,169,164,165,160,173,202,34356,29795,19026,14974,384,180,177,183,22128,14471,7523,5524,251,186,3053,10276,27459,34259,34703,31505,31658,13823,1699,4356,22479,20280,31735,29991,30281,15626
20855,56097,1046,183,164,158,160,159,5131,17153,387,163,155,160,155,155,908,3612,188,158,156,156,158,155,936,3226,187,167,166,163,164,161,173,201,34364,29832,19051,15007,385,180,177,183,22128,14482,7537,5544,253,185,3051,10286,27446,34252,34719,31549,31659,13830,1697,4358,22471,20285,31721,30008,30273,15633
20919,56381,1040,175,162,161,162,158,5138,17183,385,159,154,156,156,155,906,3621,185,156,161,156,155,155,937,3227,186,166,164,164,157,163,175,202,34466,29971,19112,15067,383,182,176,183,22164,14535,7572,5581,253,186,3055,10329,27467,34319,34772,31640,31681,13847,1698,4374,22490,20317,31763,30093,30288,15651
21005,56727,1054,179,164,159,161,159,5146,17220,387,166,155,156,155,154,911,3637,184,158,157,152,157,170,939,3235,189,164,165,164,164,158,174,202,34532,30087,19151,15116,384,185,179,183,22215,14605,7613,5626,253,187,3066,10380,27516,34419,34787,31683,31703,13869,1702,4395,22545,20398,31838,30207,30314,15673
21101,57108,1052,178,162,160,158,157,5144,17217,384,161,154,156,154,157,913,3654,181,154,158,156,152,159,939,3246,187,166,164,164,161,162,177,202,34580,30187,19170,15142,386,180,180,183,22275,14676,7642,5658,254,189,3075,10437,27557,34497,34774,31706,31721,13887,1709,4415,22615,20484,31921,30319,30343,15705
21183,57420,1063,177,163,161,161,156,5139,17235,387,161,156,154,156,151,914,3667,185,155,151,159,156,154,941,3254,187,164,164,164,163,162,174,204,34649,30319,19204,15189,387,181,177,185,22327,14742,7667,5692,254,187,3082,10493,27584,34585,34800,31770,31745,13910,1712,4437,22651,20540,31976,30427,30370,15729
21250,57719,1058,177,164,157,158,156,5139,17266,385,163,158,153,156,153,916,3683,189,154,157,155,156,155,943,3268,187,166,166,161,164,159,174,203,34767,30447,19240,15223,387,180,177,184,22372,14801,7686,5711,254,185,3092,10555,27619,34659,34862,31833,31753,13911,1713,4457,22665,20570,32017,30495,30396,15739
20845,55977,1043,179,162,159,157,158,5135,17153,387,163,158,158,157,155,909,3623,188,157,157,160,156,153,941,3224,186,169,167,164,164,160,173,200,34427,29962,19151,15057,384,178,180,183,22210,14560,7591,5574,252,185,3077,10413,27556,34447,34692,31523,31678,13843,1709,4387,22569,20395,31805,30066,30325,15663
20485,55053,1020,179,163,160,157,157,5130,17086,383,166,156,156,155,155,901,3581,185,161,154,159,153,150,932,3194,185,159,165,158,166,161,174,200,34100,29554,19002,14907,385,180,177,182,22001,14352,7521,5506,250,187,3046,10215,27479,34236,34584,31359,31632,13811,1687,4307,22482,20258,31677,29890,30291,15633
20581,55311,1031,177,165,159,158,156,5130,17089,385,161,160,153,159,156,903,3583,184,158,158,156,149,155,931,3195,183,167,163,163,166,164,172,204,34091,29535,18947,14865,381,179,175,185,21981,14335,7503,5490,253,188,3041,10190,27442,34169,34549,31320,31599,13798,1690,4307,22453,20217,31637,29849,30271,15623
20705,55610,1027,177,163,159,158,159,5135,17108,382,165,155,157,155,155,906,3594,187,156,157,156,151,151,934,3202,186,167,164,166,167,161,171,201,34157,29605,18916,14850,383,180,176,186,21987,14350,7473,5478,250,184,3040,10183,27418,34145,34545,31335,31584,13797,1690,4308,22414,20178,31606,29847,30263,15617
20786,55879,1041,176,164,159,162,154,5117,17068,384,161,159,158,155,155,905,3600,185,156,162,158,163,155,939,3215,187,163,166,163,164,163,171,200,34169,29623,18878,14816,382,180,180,189,21994,14371,7441,5459,249,184,3043,10198,27341,34079,34574,31353,31581,13798,1692,4324,22368,20148,31614,29873,30261,15615
20797,55884,1033,177,163,159,155,159,5117,17067,381,162,159,156,158,155,907,3597,185,161,159,156,159,155,936,3203,186,164,166,158,164,160,174,200,34125,29585,18842,14790,379,179,178,181,21961,14354,7406,5434,251,185,3042,10193,27293,34018,34551,31329,31572,13795,1693,4321,22345,20113,31608,29863,30241,15603
20801,55961,1041,176,165,160,157,159,5114,17087,387,158,158,157,158,155,909,3595,187,155,153,157,153,157,931,3197,191,165,169,167,164,159,178,202,34122,29602,18874,14827,381,181,176,182,21965,14362,7425,5460,251,184,3042,10199,27281,34027,34593,31399,31582,13807,1692,4319,22349,20126,31635,29909,30233,15613
20847,56215,1035,175,164,162,157,157,5133,17142,384,158,158,159,155,151,905,3604,189,157,156,159,153,166,932,3210,189,163,155,164,167,156,174,199,34159,29693,18876,14838,382,179,177,183,22007,14419,7446,5491,250,186,3050,10246,27316,34103,34615,31444,31591,13819,1695,4340,22386,20185,31673,29988,30246,15627
20935,56556,1050,177,161,163,157,155,5139,17179,387,165,159,157,155,155,907,3623,186,159,157,157,153,151,934,3222,186,163,166,166,162,158,173,199,34214,29799,18913,14887,383,178,176,182,22041,14471,7479,5523,252,184,3056,10293,27358,34193,34639,31503,31602,13837,1702,4361,22400,20214,31703,30061,30261,15650
21006,56868,1046,177,165,160,158,158,5152,17224,384,163,157,157,152,154,909,3639,185,156,155,156,152,158,944,3235,186,168,167,165,164,161,178,203,34308,29930,18926,14911,383,179,180,187,22092,14530,7491,5545,252,187,3064,10343,27401,34285,34657,31552,31621,13851,1706,4381,22425,20262,31745,30140,30291,15671
21087,57179,1060,176,164,158,158,156,5154,17253,389,161,156,160,153,157,913,3654,189,156,165,155,159,155,940,3253,187,165,166,165,162,164,177,200,34403,30083,18951,14958,385,180,177,182,22126,14586,7509,5576,251,185,3071,10396,27426,34358,34684,31622,31640,13872,1707,4404,22441,20301,31763,30221,30318,15695
21154,57496,1055,177,161,161,156,157,5156,17291,387,162,154,157,157,155,917,3672,189,158,156,152,159,158,940,3261,187,166,162,167,163,152,174,205,34544,30280,19042,15046,384,180,177,185,22179,14655,7554,5627,254,188,3079,10453,27477,34468,34787,31767,31689,13904,1713,4426,22473,20353,31811,30321,30347,15731
21218,57447,1065,174,162,160,157,156,5169,17323,390,162,162,156,154,151,916,3672,187,162,156,155,159,154,944,3262,186,165,165,163,162,155,173,202,34539,30210,19129,15075,385,180,175,183,22175,14623,7583,5609,251,189,3086,10480,27498,34466,34777,31653,31656,13859,1721,4437,22488,20350,31751,30159,30339,15688
20468,55036,1018,177,162,160,158,156,5152,17138,387,162,159,157,153,155,901,3588,183,155,160,156,157,151,931,3192,189,160,163,165,163,153,174,199,33995,29497,18921,14824,380,179,177,183,21895,14290,7445,5451,249,185,3052,10216,27400,34157,34506,31251,31575,13802,1694,4305,22400,20160,31554,29807,30276,15630
20417,54951,1028,175,164,160,156,154,5135,17082,387,165,161,160,152,156,899,3567,183,161,155,155,158,151,927,3178,186,164,164,167,163,160,174,198,33769,29266,18797,14713,380,177,177,181,21874,14264,7394,5415,248,184,3036,10127,27355,34042,34342,31117,31535,13786,1689,4276,22384,20117,31605,29830,30250,15609
20565,55298,1022,176,163,159,157,159,5108,17000,381,162,158,155,154,156,898,3569,188,158,156,153,152,153,927,3188,192,165,166,165,163,162,172,199,33819,29311,18761,14679,379,181,178,182,21871,14249,7389,5408,249,185,3038,10126,27318,33983,34399,31165,31528,13782,1685,4283,22327,20050,31524,29755,30229,15599
20629,55542,1036,179,164,160,161,156,5123,17052,384,162,157,156,156,155,900,3579,185,157,156,160,154,154,937,3206,189,167,167,154,164,164,174,198,33914,29428,18734,14677,378,179,175,182,21861,14265,7373,5412,249,188,3036,10131,27305,33997,34382,31173,31504,13774,1689,4299,22292,20035,31489,29747,30225,15601
20709,55725,1028,176,165,159,158,155,5126,17068,382,161,159,157,155,159,904,3588,185,159,153,156,155,158,941,3215,184,163,168,163,168,160,171,199,34006,29495,18731,14672,380,179,176,182,21867,14277,7355,5395,250,186,3038,10130,27247,33937,34418,31178,31495,13773,1694,4305,22260,20000,31459,29731,30210,15593
20699,55730,1038,177,163,158,157,155,5125,17077,384,167,163,156,155,156,903,3590,185,157,159,152,155,154,935,3207,186,151,165,161,176,160,177,197,33933,29425,18670,14627,381,179,176,181,21902,14302,7343,5389,250,185,3037,10131,27250,33930,34355,31124,31472,13773,1691,4298,22281,20024,31504,29768,30204,15591
20739,55912,1030,175,161,159,157,158,5137,17113,383,162,155,156,156,159,905,3592,184,157,156,159,155,155,934,3203,186,164,163,165,164,158,173,199,33986,29513,18693,14665,380,178,175,181,21899,14313,7360,5415,249,185,3044,10149,27261,33966,34369,31183,31473,13777,1693,4311,22270,20017,31492,29786,30205,15597
20802,56204,1044,177,162,163,155,158,5147,17149,385,162,158,156,156,155,904,3608,186,158,154,156,155,155,937,3212,188,163,167,167,163,159,171,201,34111,29680,18744,14714,379,179,179,185,21916,14348,7379,5436,249,182,3045,10191,27281,34028,34423,31261,31482,13797,1698,4330,22250,20016,31480,29831,30215,15619
20882,56526,1040,176,164,162,159,157,5155,17194,385,163,158,161,152,155,907,3621,185,159,157,157,156,157,937,3219,186,160,165,168,173,161,172,199,34199,29808,18758,14749,379,180,176,182,21971,14420,7397,5465,251,186,3054,10238,27324,34123,34438,31305,31507,13812,1703,4353,22292,20086,31548,29938,30245,15641
20961,56876,1055,177,166,159,158,156,5158,17226,388,159,158,155,154,152,908,3636,185,162,157,159,159,154,934,3229,185,163,168,163,159,163,173,200,34255,29919,18759,14771,383,180,177,179,22039,14495,7407,5486,252,188,3061,10297,27344,34194,34413,31330,31523,13830,1705,4372,22350,20160,31624,30045,30271,15662
21056,57231,1053,177,164,160,157,157,5158,17249,384,162,158,157,157,156,908,3653,184,158,157,156,156,152,936,3239,185,165,166,164,165,159,178,200,34345,30054,18859,14869,383,179,182,184,22091,14567,7445,5529,251,184,3070,10354,27382,34290,34453,31406,31572,13862,1711,4395,22387,20220,31719,30197,30296,15692
21120,57502,1064,180,165,162,162,156,5154,17276,387,162,161,157,156,157,910,3662,185,158,156,155,152,155,936,3247,185,160,163,164,164,161,174,200,34420,30167,18855,14867,381,179,176,182,22166,14647,7467,5550,251,185,3081,10428,27421,34371,34479,31449,31573,13859,1715,4416,22459,20307,31764,30257,30332,15708
20831,56064,1034,176,165,159,159,157,5162,17218,383,162,156,158,160,154,907,3621,185,160,154,157,158,156,937,3217,185,169,165,165,167,160,177,200,34204,29799,18725,14693,379,178,181,182,22018,14423,7353,5399,249,184,3071,10308,27347,34167,34345,31163,31495,13784,1711,4376,22374,20139,31509,29808,30272,15630
20349,54813,1027,177,163,160,158,158,5147,17089,386,162,162,160,156,160,901,3577,185,155,157,156,154,155,931,3187,185,164,165,162,163,160,172,198,33748,29275,18527,14506,376,179,175,181,21718,14139,7216,5285,247,183,3032,10085,27229,33895,34181,30961,31437,13754,1688,4272,22178,19893,31329,29594,30206,15588
20439,55073,1019,179,164,159,157,159,5117,17021,383,167,157,157,156,157,899,3575,184,161,157,158,155,155,938,3199,189,165,164,161,167,158,171,197,33723,29237,18470,14457,375,179,175,181,21679,14128,7193,5275,247,183,3025,10049,27143,33816,34228,30997,31438,13756,1683,4265,22126,19866,31334,29618,30193,15583
20563,55482,1033,175,161,158,157,160,5127,17071,385,161,162,157,154,155,902,3587,185,156,160,154,157,158,935,3210,187,165,165,167,163,159,175,198,33748,29318,18514,14514,377,182,175,179,21695,14159,7232,5316,247,185,3030,10083,27147,33833,34262,31063,31447,13773,1687,4283,22165,19904,31375,29693,30194,15596
20680,55861,1034,178,163,159,157,159,5136,17100,384,165,157,159,154,155,906,3597,184,159,157,160,152,154,934,3210,187,166,165,161,164,160,173,199,33793,29371,18655,14614,380,178,175,182,21740,14211,7300,5373,249,184,3040,10129,27180,33887,34273,31089,31450,13775,1694,4303,22217,19961,31452,29772,30198,15596
20703,55809,1041,175,163,160,158,156,5134,17081,387,163,162,153,153,157,901,3597,187,159,157,157,158,155,929,3197,187,165,163,164,161,165,172,197,33760,29325,18706,14628,379,178,176,176,21747,14207,7339,5387,249,184,3037,10112,27227,33923,34282,31081,31462,13780,1695,4298,22247,19983,31455,29773,30199,15597
20730,55925,1031,177,163,159,157,154,5127,17059,382,162,161,153,156,154,901,3594,185,158,156,155,155,154,927,3190,182,166,164,163,166,163,175,197,33750,29348,18669,14615,382,179,176,180,21774,14233,7351,5401,248,184,3039,10129,27275,33986,34235,31075,31451,13786,1695,4303,22282,20016,31488,29819,30201,15605
20790,56198,1044,178,163,160,159,164,5130,17090,385,162,156,160,159,156,903,3606,186,157,160,155,155,154,929,3190,186,167,165,163,164,161,171,202,33877,29533,18671,14638,378,179,179,181,21798,14278,7357,5422,253,184,3047,10168,27289,34040,34272,31147,31459,13800,1697,4321,22275,20037,31455,29834,30220,15628
20868,56559,1040,177,164,159,159,155,5145,17161,383,165,155,152,152,155,907,3625,185,157,155,155,153,152,930,3199,185,168,166,159,164,162,171,198,34079,29779,18723,14716,381,179,175,182,21841,14344,7371,5451,249,184,3055,10222,27304,34118,34353,31267,31482,13821,1704,4348,22281,20069,31450,29897,30251,15651
20970,56995,1056,180,161,161,156,156,5154,17209,386,159,160,157,156,159,910,3653,185,155,160,156,154,155,929,3207,189,165,164,164,165,161,174,203,34241,29984,18810,14797,382,179,175,183,21907,14436,7398,5483,251,185,3060,10291,27338,34222,34445,31382,31531,13856,1706,4371,22321,20137,31540,30061,30289,15686
21108,57469,1055,177,161,160,156,155,5142,17206,384,163,158,155,156,155,913,3666,185,157,157,155,158,151,930,3219,186,167,155,163,163,160,173,200,34260,30081,18801,14821,382,179,178,182,22042,14561,7418,5518,251,184,3079,10372,27393,34347,34407,31405,31572,13886,1711,4398,22415,20250,31701,30243,30319,15715
21217,57861,1070,177,163,160,156,157,5142,17224,388,163,162,153,159,155,914,3683,186,159,156,158,155,155,932,3228,187,162,165,165,167,159,174,201,34375,30260,18881,14899,383,179,178,183,22099,14635,7468,5569,253,187,3089,10450,27456,34478,34494,31546,31612,13914,1715,4424,22439,20307,31759,30353,30348,15751
21229,57554,1055,170,160,162,158,157,5153,17221,390,162,158,161,152,155,914,3681,185,158,157,157,155,154,935,3230,189,163,157,167,163,155,173,205,34313,30081,18919,14883,387,182,177,186,22049,14549,7451,5516,250,184,3091,10434,27459,34437,34481,31427,31591,13873,1724,4435,22415,20253,31662,30148,30329,15709
20563,55567,1035,177,162,159,160,157,5132,17079,386,162,161,155,157,153,902,3610,185,158,158,154,154,158,924,3178,186,167,165,165,163,160,170,199,33835,29501,18782,14707,378,180,175,184,21813,14284,7359,5405,251,186,3054,10208,27387,34222,34335,31198,31553,13845,1704,4327,22346,20124,31513,29910,30295,15678
20567,55636,1026,175,164,162,156,155,5122,17044,382,158,158,161,158,159,901,3607,188,157,159,155,159,157,921,3181,186,164,163,167,163,160,175,199,33717,29409,18725,14675,379,179,180,182,21819,14295,7358,5413,252,184,3051,10180,27375,34199,34307,31199,31548,13851,1701,4325,22388,20162,31555,29961,30297,15688
20653,56006,1042,176,165,159,156,156,5123,17073,384,162,159,161,160,151,903,3622,185,160,157,157,154,157,926,3190,188,167,164,163,165,157,171,198,33846,29591,18765,14727,379,180,179,182,21852,14343,7387,5446,253,185,3057,10221,27391,34259,34345,31285,31555,13867,1701,4343,22405,20205,31587,30037,30314,15702
20780,56535,1042,175,166,159,158,158,5130,17123,383,162,163,156,160,156,909,3644,184,158,159,152,159,155,928,3200,186,164,164,166,164,176,172,201,33969,29713,18809,14769,379,183,177,182,21905,14408,7412,5473,251,185,3065,10280,27412,34322,34375,31330,31564,13877,1708,4368,22435,20247,31648,30127,30333,15720
20959,56891,1055,179,165,160,156,156,5135,17130,384,163,158,155,155,154,907,3657,186,159,158,153,154,155,928,3202,186,166,164,162,164,159,176,201,33946,29685,18808,14766,379,178,177,181,21915,14411,7416,5469,250,189,3066,10285,27404,34311,34385,31329,31581,13885,1713,4379,22462,20279,31670,30147,30340,15725
20978,56953,1047,179,163,161,158,160,5129,17120,383,162,159,156,154,155,912,3658,186,157,157,156,151,155,925,3200,185,164,165,164,164,164,174,200,33958,29721,18819,14782,381,181,176,180,21930,14436,7425,5484,252,183,3070,10299,27423,34351,34399,31372,31601,13902,1716,4385,22491,20311,31703,30211,30353,15739
21024,57183,1060,179,167,163,156,157,5129,17144,385,162,158,157,155,155,913,3670,185,158,157,156,155,152,926,3205,187,164,166,161,161,160,177,199,34053,29867,18846,14824,381,179,175,181,21972,14492,7449,5515,251,185,3074,10345,27439,34420,34431,31446,31624,13921,1715,4399,22521,20364,31761,30306,30377,15765
21106,57519,1055,179,165,159,157,157,5135,17186,384,166,158,157,160,159,912,3687,188,159,155,159,155,158,928,3216,187,165,165,165,165,160,172,204,34155,30012,18884,14871,381,179,178,182,22034,14571,7471,5550,253,186,3085,10407,27477,34504,34471,31522,31649,13941,1722,4423,22556,20419,31834,30419,30407,15789
21213,57907,1073,179,164,158,157,158,5141,17231,391,160,157,158,158,158,915,3706,189,162,156,159,155,155,929,3232,186,152,165,162,166,161,172,199,34269,30182,18928,14934,384,179,175,182,22091,14641,7507,5587,252,186,3095,10472,27511,34602,34515,31607,31687,13969,1724,4451,22601,20487,31904,30541,30441,15816
21306,58266,1067,179,168,160,163,158,5151,17285,383,165,161,157,153,153,918,3725,186,157,155,156,155,152,934,3243,181,167,168,164,163,161,172,199,34403,30378,18978,14999,385,179,176,183,22185,14743,7545,5631,252,186,3103,10541,27559,34710,34579,31711,31730,13999,1730,4473,22647,20567,31984,30669,30479,15851
21401,58606,1081,177,160,159,157,158,5165,17345,389,160,159,157,156,153,921,3739,187,162,161,156,156,158,935,3257,190,162,165,167,170,157,171,203,34459,30417,19018,15028,386,185,181,185,22236,14786,7564,5640,254,185,3115,10600,27577,34759,34601,31708,31735,13985,1734,4497,22680,20601,32024,30689,30494,15847
20857,56535,1041,178,163,159,155,153,5155,17224,385,160,157,158,153,159,910,3668,183,159,156,159,151,156,931,3212,187,167,165,164,165,160,172,199,34070,29882,18948,14887,386,178,175,183,22044,14518,7475,5513,252,185,3090,10411,27519,34553,34475,31461,31691,13943,1725,4419,22600,20450,31822,30318,30443,15799
20685,56089,1047,176,156,166,158,159,5153,17198,392,162,158,157,155,155,905,3647,186,155,155,155,153,156,925,3201,183,165,168,165,160,159,173,201,33853,29645,18898,14834,382,182,175,181,21917,14416,7456,5496,250,184,3069,10290,27486,34462,34459,31451,31690,13947,1715,4381,22563,20401,31787,30293,30429,15792
20726,56335,1040,172,165,159,158,161,5154,17222,386,160,161,157,151,158,905,3653,184,158,158,157,155,155,925,3207,186,163,169,163,163,159,170,196,33959,29783,18915,14869,381,178,178,183,21959,14469,7481,5525,251,185,3071,10323,27497,34502,34495,31523,31709,13964,1717,4391,22591,20448,31835,30366,30449,15810
20829,56787,1054,177,165,159,156,156,5160,17261,389,167,159,153,157,159,913,3675,186,159,156,159,155,155,931,3220,186,165,168,164,163,162,172,200,34110,29979,18954,14914,384,177,179,182,22036,14559,7512,5561,253,185,3083,10390,27522,34583,34534,31597,31715,13976,1720,4420,22626,20500,31898,30473,30471,15829
21065,57422,1053,177,165,163,156,157,5165,17286,385,165,159,160,156,155,913,3691,185,155,152,158,154,155,933,3238,186,167,166,166,167,162,173,200,34111,29966,18957,14921,383,179,175,182,22069,14583,7519,5568,251,185,3088,10417,27524,34592,34537,31593,31722,13981,1728,4443,22651,20533,31943,30519,30479,15833
21094,57424,1063,181,166,161,156,158,5165,17297,388,163,159,153,156,158,913,3695,186,158,156,157,153,155,933,3242,186,167,167,165,163,161,174,201,34090,29957,18968,14932,383,179,177,182,22071,14588,7522,5570,253,185,3086,10415,27529,34611,34557,31627,31736,13991,1729,4446,22665,20549,31963,30542,30487,15843
21129,57613,1057,178,164,161,157,158,5173,17325,387,147,158,160,155,155,914,3704,190,158,157,159,155,155,933,3249,190,165,165,164,167,162,178,201,34175,30089,18995,14975,386,181,181,182,22111,14635,7545,5601,252,185,3092,10454,27550,34669,34599,31707,31755,14007,1733,4457,22693,20593,32005,30631,30508,15864
21204,57912,1071,177,164,160,157,157,5173,17362,389,162,160,153,156,156,913,3722,185,162,157,157,155,154,935,3259,186,165,164,164,164,159,172,200,34291,30251,19043,15035,385,183,177,181,22167,14707,7575,5635,254,186,3100,10509,27579,34753,34651,31790,31783,14029,1734,4478,22728,20650,32067,30740,30533,15887
21302,58286,1067,177,164,159,155,157,5179,17401,389,160,156,157,159,153,917,3736,189,158,153,155,159,157,935,3268,187,163,167,163,165,161,181,203,34406,30418,19093,15095,386,180,179,184,22232,14785,7601,5670,255,187,3109,10577,27615,34835,34707,31887,31816,14050,1739,4500,22753,20697,32138,30853,30557,15912
21399,58651,1084,177,163,164,159,155,5183,17430,390,161,154,157,156,157,921,3758,187,157,159,157,153,155,942,3287,186,164,165,164,164,164,173,202,34533,30599,19129,15150,385,175,180,184,22311,14875,7606,5692,254,188,3120,10640,27625,34905,34767,31992,31857,14081,1741,4523,22764,20736,32209,30986,30589,15936
21503,59022,1079,179,166,161,158,159,5165,17427,387,166,162,157,154,156,921,3767,186,159,156,153,151,155,946,3313,187,168,168,166,164,162,174,203,34606,30639,19201,15198,388,180,178,183,22388,14939,7638,5709,255,186,3128,10699,27619,34931,34822,32007,31869,14067,1747,4538,22802,20798,32305,31056,30605,15931
20877,56671,1053,178,164,159,157,157,5161,17296,389,160,156,156,156,155,911,3682,187,157,157,155,155,155,942,3259,186,164,165,164,165,164,175,205,34131,30009,19003,14945,386,179,181,183,22164,14633,7487,5523,252,187,3101,10476,27487,34603,34607,31654,31768,13993,1734,4456,22730,20608,32023,30553,30535,15856
20655,56039,1033,177,171,159,156,158,5117,17201,385,163,159,157,158,154,908,3652,187,158,155,156,159,157,941,3240,189,168,169,165,163,161,174,200,33945,29757,18903,14847,381,180,177,186,21987,14470,7417,5472,252,187,3069,10308,27385,34395,34571,31595,31738,13978,1721,4395,22589,20451,31899,30410,30503,15836
20704,56259,1047,178,162,159,157,155,5183,17402,391,163,162,157,157,155,905,3655,185,159,158,155,156,152,943,3245,190,163,164,167,164,161,173,201,34002,29843,18885,14851,380,179,177,185,22021,14513,7437,5497,252,186,3070,10323,27390,34417,34577,31633,31727,13985,1723,4412,22613,20482,31942,30477,30497,15837
20776,56633,1045,175,162,159,157,154,5200,17456,391,159,155,159,159,158,908,3672,184,156,156,156,158,159,939,3259,187,164,166,164,164,162,171,200,34129,30005,18904,14886,381,180,175,183,22075,14574,7470,5536,254,189,3077,10377,27405,34479,34601,31675,31721,13980,1728,4437,22647,20527,31982,30550,30505,15850
21018,57252,1060,177,166,162,158,153,5203,17454,389,163,158,157,152,155,910,3691,185,163,156,155,157,153,942,3276,189,166,166,164,164,161,174,199,34099,29971,18901,14875,386,178,176,182,22096,14593,7480,5542,253,186,3081,10389,27417,34478,34567,31635,31698,13975,1736,4455,22673,20556,32012,30572,30502,15845
21034,57231,1051,179,161,161,157,158,5199,17422,387,164,160,154,156,154,915,3691,186,162,160,160,155,158,943,3275,187,165,166,164,167,161,174,202,34052,29927,18889,14870,384,181,177,183,22087,14582,7478,5541,251,187,3079,10374,27429,34473,34564,31635,31683,13971,1734,4451,22682,20565,32014,30579,30496,15847
21073,57394,1064,176,165,159,161,159,5191,17407,394,166,159,159,156,154,911,3695,187,160,157,158,153,157,941,3282,187,170,165,164,164,159,175,205,34079,30005,18890,14887,383,182,177,182,22105,14617,7495,5565,253,185,3082,10403,27444,34517,34549,31661,31679,13977,1735,4459,22710,20598,32061,30656,30497,15857
21141,57691,1057,177,162,160,161,157,5185,17414,389,162,157,156,157,155,913,3705,185,159,157,156,155,152,941,3287,187,165,166,162,163,161,172,201,34151,30130,18925,14933,383,182,183,183,22156,14682,7524,5600,253,194,3090,10457,27479,34585,34554,31709,31685,13993,1741,4478,22748,20649,32120,30759,30511,15870
21240,58051,1074,177,164,160,157,159,5188,17449,390,161,162,156,156,158,915,3721,187,155,156,153,156,158,943,3299,187,165,165,164,166,160,174,202,34238,30265,18950,14974,385,182,178,185,22219,14757,7551,5632,255,187,3098,10515,27506,34658,34572,31769,31695,14006,1741,4497,22779,20702,32178,30854,30524,15891
21335,58415,1073,176,164,161,159,157,5197,17496,389,161,158,161,151,151,918,3739,186,159,154,157,153,155,948,3309,187,165,166,164,164,161,174,200,34339,30422,18990,15026,386,179,174,184,22282,14831,7572,5665,255,191,3106,10573,27533,34739,34613,31845,31719,14026,1744,4522,22808,20755,32238,30964,30549,15918
21420,58727,1084,176,163,163,157,156,5205,17559,395,163,156,156,155,157,921,3754,190,163,154,156,155,155,948,3322,177,165,165,164,163,160,176,203,34411,30491,19024,15063,386,180,179,185,22337,14887,7588,5677,254,187,3115,10631,27544,34777,34641,31853,31708,14015,1747,4541,22820,20779,32263,30991,30555,15907
20862,56610,1042,176,163,160,160,158,5199,17427,388,160,157,155,160,157,909,3679,186,157,157,159,155,155,943,3278,187,164,164,164,164,160,174,202,34017,29938,18942,14907,383,181,177,185,22141,14612,7488,5535,257,187,3093,10438,27465,34525,34474,31546,31623,13939,1740,4460,22726,20591,32030,30545,30476,15827
20603,55884,1041,176,163,160,160,160,5195,17371,390,159,156,155,155,150,902,3645,185,157,160,155,155,159,937,3254,203,165,165,164,163,159,172,200,33731,29598,18853,14809,382,184,175,182,21967,14445,7448,5499,251,186,3063,10263,27387,34325,34404,31443,31576,13914,1722,4397,22658,20484,31948,30424,30432,15804
20690,56158,1036,178,162,160,158,158,5187,17358,386,165,157,160,156,155,903,3645,186,162,160,159,155,155,935,3259,187,164,165,164,161,164,173,200,33745,29620,18863,14819,380,183,177,187,21978,14464,7469,5522,253,191,3063,10259,27369,34287,34409,31459,31545,13907,1724,4403,22662,20486,31959,30457,30418,15796
20805,56537,1051,176,162,158,158,157,5185,17370,394,162,157,159,152,168,904,3657,186,155,158,159,158,155,938,3268,187,165,166,165,162,160,177,200,33837,29753,18882,14847,383,179,173,185,22017,14513,7491,5552,252,187,3063,10294,27368,34301,34422,31495,31535,13907,1725,4419,22675,20512,31990,30525,30417,15799
20936,56930,1047,175,162,162,157,155,5189,17388,389,163,159,160,154,155,907,3670,184,156,156,156,152,158,941,3281,187,164,164,167,164,161,173,201,33854,29762,18887,14857,384,181,178,183,22048,14539,7499,5554,258,189,3071,10317,27351,34276,34399,31469,31511,13895,1730,4438,22689,20523,32009,30534,30404,15796
20942,56871,1054,177,167,160,162,159,5189,17381,391,162,154,153,156,162,907,3669,185,155,159,155,155,158,941,3275,188,164,165,164,164,160,175,203,33824,29728,18886,14857,381,182,181,183,22027,14520,7499,5554,253,187,3066,10297,27336,34246,34396,31467,31495,13890,1730,4429,22679,20511,31985,30515,30389,15788
20970,57026,1047,177,163,160,157,163,5187,17385,388,164,155,157,156,158,907,3675,185,161,159,159,156,154,940,3277,189,164,165,164,166,159,172,197,33871,29794,18907,14885,381,180,178,183,22043,14552,7514,5575,253,186,3066,10311,27333,34261,34413,31507,31493,13894,1729,4436,22690,20527,31991,30557,30395,15794
21045,57331,1060,178,167,160,158,157,5188,17403,390,160,160,156,160,159,908,3687,185,160,160,159,156,156,940,3285,190,165,165,165,164,164,173,202,33965,29927,18942,14928,384,180,173,183,22087,14609,7533,5604,257,189,3072,10357,27333,34304,34446,31572,31497,13908,1733,4451,22712,20557,32033,30631,30396,15807
21140,57695,1060,178,164,161,158,166,5189,17436,390,165,158,156,152,156,911,3703,186,157,156,155,156,158,943,3292,187,167,165,162,164,161,172,204,34064,30074,18977,14977,384,181,177,183,22141,14676,7556,5634,253,190,3078,10411,27359,34365,34485,31648,31515,13925,1735,4475,22739,20605,32076,30720,30411,15829
21225,58044,1074,178,159,157,158,159,5193,17462,395,165,155,157,157,151,913,3719,187,159,157,153,155,159,943,3299,188,165,165,168,166,159,175,202,34159,30223,19017,15027,386,187,178,184,22203,14751,7582,5670,255,187,3086,10471,27394,34449,34538,31729,31541,13944,1739,4491,22766,20655,32134,30829,30431,15851
21307,58341,1067,176,165,160,156,156,5200,17501,389,162,160,156,159,155,915,3734,196,159,154,155,158,152,944,3313,188,164,169,165,164,162,174,206,34233,30293,19035,15044,385,181,178,185,22248,14794,7591,5675,255,185,3098,10526,27403,34474,34550,31718,31538,13932,1742,4510,22783,20675,32158,30828,30438,15835
20711,56116,1046,175,163,159,157,157,5190,17372,389,157,158,156,154,159,904,3652,187,159,160,158,158,155,937,3261,186,163,166,164,164,161,174,201,33825,29727,18929,14872,386,183,177,187,22034,14508,7485,5528,252,186,3072,10324,27309,34201,34372,31400,31441,13856,1732,4423,22669,20469,31907,30383,30347,15751
20475,55466,1030,175,164,158,157,156,5182,17311,389,162,157,154,155,156,899,3621,185,159,155,155,153,159,932,3242,186,164,166,162,169,161,173,200,33553,29403,18834,14773,382,180,177,186,21870,14353,7446,5490,252,189,3045,10155,27226,33989,34283,31278,31390,13824,1717,4361,22597,20359,31816,30262,30301,15727
20583,55779,1038,177,162,161,158,155,5179,17316,389,163,161,157,155,155,898,3619,192,161,160,156,156,152,932,3245,187,164,166,168,165,160,171,202,33563,29410,18827,14766,380,178,175,181,21875,14363,7451,5501,253,187,3041,10146,27202,33939,34275,31267,31359,13816,1718,4368,22587,20350,31815,30267,30285,15717
20707,56173,1035,179,165,160,159,155,5181,17325,386,165,161,158,159,149,901,3631,186,155,160,155,156,151,933,3253,187,174,165,163,163,160,174,201,33647,29515,18838,14785,381,180,177,194,21911,14411,7467,5521,255,186,3047,10168,27203,33957,34279,31290,31345,13813,1721,4382,22603,20373,31837,30315,30283,15718
20817,56476,1052,177,162,159,159,157,5186,17339,390,163,162,159,157,158,902,3642,186,162,160,157,158,154,940,3260,186,165,166,162,163,162,173,202,33682,29551,18841,14792,381,179,179,184,21935,14433,7471,5529,253,185,3047,10187,27197,33945,34255,31259,31315,13797,1720,4395,22615,20376,31841,30323,30265,15707
20804,56403,1039,176,161,161,158,155,5180,17315,386,162,157,159,153,157,901,3639,185,158,157,153,155,158,935,3255,187,166,164,168,163,160,176,199,33657,29519,18820,14778,382,179,181,183,21919,14417,7462,5522,255,188,3046,10169,27184,33920,34231,31242,31301,13790,1723,4391,22609,20367,31829,30307,30255,15708
20841,56565,1053,180,162,160,157,155,5176,17312,390,162,158,165,156,158,900,3646,189,159,155,157,155,156,935,3260,186,168,170,165,164,163,172,199,33678,29561,18828,14789,385,179,179,183,21933,14447,7471,5537,255,188,3048,10187,27184,33933,34235,31270,31291,13794,1722,4398,22626,20393,31847,30349,30254,15712
20914,56881,1045,178,165,159,156,157,5180,17330,388,163,157,154,157,160,902,3657,185,159,157,156,159,157,935,3267,191,164,165,164,164,159,177,200,33751,29674,18831,14813,381,180,180,188,21981,14504,7483,5558,254,189,3056,10231,27203,33983,34251,31309,31295,13805,1726,4417,22653,20439,31888,30427,30268,15724
21006,57252,1063,176,166,162,159,158,5172,17336,391,163,155,158,155,155,906,3673,188,158,156,156,152,151,937,3279,188,167,165,164,164,160,179,201,33805,29763,18796,14799,382,180,179,185,22047,14583,7467,5550,251,187,3061,10283,27224,34053,34239,31318,31301,13814,1729,4437,22717,20525,31973,30536,30317,15754
21092,57633,1057,176,163,160,161,157,5158,17302,387,162,156,158,159,149,909,3695,187,158,156,155,155,156,941,3298,190,165,164,163,162,160,173,201,33774,29774,18612,14709,380,180,177,189,22157,14690,7371,5490,254,187,3070,10327,27260,34150,34156,31276,31243,13795,1736,4465,22912,20716,32157,30725,30383,15775
21187,57973,1073,177,163,159,161,159,5154,17321,393,159,167,164,155,154,914,3715,190,159,160,160,159,157,945,3315,188,165,165,164,163,159,172,202,33780,29787,18441,14589,380,182,178,183,22194,14708,7260,5406,248,191,3076,10363,27273,34185,34076,31190,31122,13739,1744,4494,22994,20783,32223,30745,30379,15751
20623,55826,1030,177,162,163,158,155,5166,17266,388,164,158,158,163,152,901,3649,187,161,156,156,157,156,939,3261,189,161,166,166,163,161,174,199,33402,29267,18155,14331,374,179,182,187,21909,14391,7065,5211,250,189,3055,10159,27138,33882,33846,30817,30958,13636,1738,4413,22854,20541,31983,30290,30265,15657
20383,55207,1031,177,162,159,161,157,5194,17335,390,162,159,163,155,155,897,3615,186,158,160,151,158,152,935,3242,186,165,166,164,162,160,172,194,33223,29037,18078,14255,376,178,176,185,21697,14219,6991,5160,251,190,3020,9995,26963,33586,33784,30727,30900,13607,1721,4367,22649,20327,31808,30128,30189,15623
20517,55609,1026,175,163,162,157,158,5211,17403,388,159,159,155,155,155,900,3623,185,157,157,159,151,154,936,3248,185,164,165,164,167,164,172,198,33319,29130,18175,14314,375,182,173,186,21717,14248,7018,5193,248,184,3020,10001,26914,33543,33854,30803,30902,13614,1721,4372,22574,20271,31797,30144,30147,15607
20656,56071,1044,180,163,158,156,157,5220,17444,391,162,160,161,156,157,900,3635,184,159,157,157,155,154,935,3261,187,168,164,164,164,162,175,197,33454,29295,18245,14373,374,180,177,183,21754,14302,7058,5234,256,191,3027,10051,26913,33571,33924,30884,30923,13623,1722,4391,22533,20258,31806,30214,30131,15608
20775,56375,1036,180,163,159,156,156,5225,17468,389,166,159,153,159,154,901,3645,186,162,157,156,159,151,937,3270,191,164,166,164,163,160,173,198,33521,29359,18300,14410,375,179,177,183,21784,14325,7075,5244,250,189,3035,10076,26930,33588,33944,30891,30933,13621,1731,4402,22527,20253,31825,30235,30115,15604
20751,56301,1049,175,163,160,159,157,5218,17439,391,162,160,155,156,154,902,3637,186,155,157,159,155,155,938,3267,186,166,163,165,165,164,175,199,33491,29327,18355,14440,377,179,177,183,21771,14315,7102,5268,250,184,3033,10070,26940,33589,33955,30913,30949,13631,1725,4395,22513,20239,31845,30253,30101,15600
20791,56483,1040,177,162,159,161,155,5210,17437,391,164,160,153,157,155,899,3642,185,165,157,153,156,152,938,3274,190,168,164,166,163,161,175,199,33454,29329,18393,14479,376,181,182,185,21846,14389,7147,5312,252,183,3041,10109,26983,33667,34031,31007,30983,13656,1726,4409,22533,20281,31871,30324,30099,15615
20874,56835,1053,177,161,159,158,158,5193,17399,391,162,161,159,153,157,901,3654,185,157,162,155,159,154,936,3274,187,165,167,164,162,161,173,201,33506,29432,18505,14570,380,181,174,188,21935,14475,7227,5381,250,185,3047,10166,27071,33791,34063,31068,31013,13675,1730,4419,22582,20351,31931,30425,30118,15634
20972,57193,1049,179,163,160,159,156,5179,17365,388,164,163,157,158,152,902,3668,188,159,156,156,155,155,936,3282,187,166,166,165,163,159,177,203,33579,29537,18541,14607,379,179,178,188,22023,14559,7287,5436,254,187,3059,10220,27156,33907,34054,31085,31034,13692,1735,4437,22675,20452,32002,30525,30147,15661
21057,57525,1065,178,164,160,158,156,5171,17356,395,165,159,159,156,156,904,3680,184,157,159,159,151,154,940,3287,190,163,167,165,164,164,174,201,33651,29656,18559,14638,379,180,181,188,22100,14639,7337,5486,252,187,3066,10276,27206,34007,34041,31117,31060,13714,1735,4457,22750,20536,32066,30633,30176,15688
21131,57711,1061,176,164,161,159,155,5172,17384,389,160,155,158,159,155,905,3686,185,157,156,155,157,159,936,3290,187,163,165,168,164,162,173,201,33719,29703,18605,14670,379,180,179,185,22129,14653,7355,5488,254,190,3074,10321,27210,34010,34023,31063,31058,13694,1737,4473,22741,20529,32042,30569,30175,15668
20478,55452,1033,175,167,159,157,155,5163,17267,388,162,158,160,159,157,895,3607,185,156,156,155,155,155,929,3225,186,164,167,163,164,163,177,199,33359,29190,18494,14498,377,180,177,183,21889,14360,7253,5353,251,189,3046,10105,27105,33716,33857,30763,30982,13627,1719,4369,22613,20311,31761,30134,30101,15600
20336,55105,1021,177,163,161,157,155,5168,17260,384,165,156,158,157,155,888,3584,185,158,157,152,160,154,923,3214,186,168,165,164,164,163,176,198,33194,28979,18436,14442,376,180,179,183,21767,14254,7233,5335,248,185,3021,9978,27031,33555,33821,30709,30951,13613,1711,4333,22547,20226,31676,30047,30068,15582
20466,55493,1035,176,162,162,156,156,5174,17278,386,166,158,157,157,161,893,3592,189,157,156,156,155,155,926,3221,186,163,167,168,164,163,175,201,33251,29028,18475,14467,377,180,178,183,21775,14271,7258,5355,251,189,3021,9986,27011,33531,33845,30745,30945,13616,1711,4339,22527,20211,31667,30066,30051,15579
20587,55882,1032,177,164,159,160,157,5175,17303,384,163,165,157,156,155,891,3603,184,157,157,154,157,159,924,3230,186,167,165,163,166,166,178,198,33385,29182,18562,14554,380,181,182,183,21811,14324,7298,5404,256,190,3029,10020,27019,33559,33930,30834,30971,13626,1716,4355,22509,20213,31675,30114,30044,15584
20688,56108,1045,175,164,160,159,159,5176,17309,391,162,161,153,170,155,895,3609,187,157,160,157,156,155,929,3235,187,168,166,164,165,161,174,199,33463,29262,18715,14664,379,185,181,183,21835,14343,7344,5436,255,186,3031,10041,27030,33567,33995,30900,31008,13638,1715,4360,22476,20183,31655,30109,30026,15579
20664,56059,1034,177,163,160,157,158,5165,17289,385,162,158,155,159,156,892,3606,186,159,160,155,156,155,922,3234,193,163,166,164,163,159,173,200,33481,29258,18774,14697,380,180,177,183,21847,14357,7382,5461,255,185,3032,10044,27058,33604,34043,30941,31034,13649,1713,4357,22491,20205,31663,30135,30037,15587
20717,56279,1046,177,167,159,159,153,5163,17283,387,161,158,157,155,155,893,3613,189,156,157,154,159,151,927,3235,187,165,167,166,161,160,171,202,33497,29317,18797,14724,381,179,181,183,21905,14419,7424,5501,252,187,3039,10078,27110,33692,34066,30995,31055,13669,1715,4367,22550,20284,31708,30209,30061,15611
20796,56615,1041,176,166,163,158,159,5155,17280,384,162,162,160,155,159,896,3627,184,157,155,158,155,156,928,3244,187,163,166,164,167,159,175,201,33576,29431,18786,14737,382,179,178,183,21967,14485,7458,5538,251,187,3048,10125,27172,33791,34061,31025,31072,13684,1720,4387,22611,20359,31745,30286,30088,15632
20887,56975,1057,173,163,160,161,156,5156,17302,389,162,163,162,154,158,897,3642,185,144,158,156,155,155,929,3256,187,171,165,161,164,161,175,201,33669,29567,18812,14778,382,180,177,183,22023,14555,7494,5578,253,187,3054,10182,27222,33885,34081,31084,31103,13707,1724,4408,22663,20424,31794,30387,30116,15656
20968,57327,1052,181,163,161,160,157,5159,17334,385,163,157,159,157,156,900,3661,186,161,157,155,155,157,930,3263,186,165,164,167,162,159,174,200,33790,29737,18879,14851,383,181,178,188,22083,14631,7530,5621,255,188,3061,10241,27262,33979,34141,31180,31156,13735,1725,4429,22697,20480,31843,30481,30157,15692
21047,57463,1063,176,167,159,159,157,5169,17387,390,161,159,155,156,155,902,3668,187,155,156,155,154,155,931,3271,187,165,165,164,167,161,174,202,33864,29782,18929,14868,383,179,178,184,22109,14641,7536,5605,256,186,3070,10283,27257,33977,34167,31157,31165,13718,1731,4446,22690,20473,31815,30399,30154,15668
20376,55210,1020,175,163,159,161,154,5158,17247,388,163,157,155,148,155,889,3592,185,162,161,156,156,154,922,3209,190,164,165,163,167,159,175,202,33484,29243,18815,14694,382,179,180,192,21851,14332,7427,5469,251,186,3041,10064,27167,33708,34025,30881,31106,13662,1713,4336,22565,20271,31558,30005,30079,15605
20273,54935,1028,177,163,159,158,155,5157,17227,387,161,161,151,155,156,886,3568,185,157,159,152,155,163,921,3199,186,167,165,164,165,160,174,199,33314,29033,18762,14639,379,179,178,183,21737,14228,7416,5454,252,188,3021,9953,27122,33580,34003,30841,31085,13650,1701,4302,22519,20211,31498,29947,30058,15595
20412,55299,1025,176,166,159,159,159,5157,17226,385,164,162,156,173,150,888,3576,184,157,155,156,158,155,918,3204,185,159,166,162,163,161,175,198,33350,29056,18773,14647,379,180,180,184,21735,14236,7430,5467,252,186,3021,9954,27108,33559,34025,30865,31083,13651,1706,4310,22507,20205,31493,29953,30049,15588
20520,55621,1039,176,165,159,157,156,5154,17246,389,162,166,155,157,159,888,3586,188,155,158,152,156,153,921,3212,186,165,165,165,166,162,181,198,33441,29169,18814,14688,380,181,176,183,21759,14277,7449,5493,251,186,3023,9981,27113,33591,34065,30926,31101,13661,1710,4324,22517,20231,31515,30016,30051,15597
20607,55838,1029,176,163,160,159,161,5157,17247,385,163,156,156,155,154,893,3595,185,154,151,159,155,153,923,3221,185,168,166,164,163,162,173,199,33498,29209,18863,14726,379,182,177,180,21778,14295,7465,5505,253,186,3029,10000,27127,33602,34087,30943,31113,13664,1712,4337,22518,20238,31529,30027,30048,15597
20594,55810,1040,180,165,162,160,157,5152,17229,389,161,155,154,155,158,894,3594,186,158,156,157,152,152,922,3214,186,169,164,167,165,163,175,199,33484,29208,18883,14741,381,179,177,182,21771,14297,7479,5516,256,184,3028,9999,27140,33621,34111,30973,31129,13675,1711,4333,22522,20247,31526,30043,30058,15604
20638,56026,1034,179,164,158,157,158,5151,17234,386,166,158,154,156,155,890,3600,184,159,157,155,157,139,921,3218,188,165,165,162,164,163,177,198,33551,29294,18904,14769,382,183,181,183,21810,14348,7495,5541,253,187,3035,10031,27169,33679,34145,31033,31157,13695,1713,4344,22549,20291,31551,30110,30070,15621
20723,56361,1047,178,163,159,161,158,5148,17259,389,162,162,157,156,158,894,3616,185,157,161,155,156,155,924,3229,185,168,165,167,163,161,174,200,33643,29437,18943,14819,384,181,177,177,21881,14427,7527,5574,255,185,3043,10087,27201,33758,34180,31116,31190,13721,1716,4365,22587,20350,31603,30201,30089,15641
20815,56728,1043,178,163,160,158,157,5152,17291,386,161,155,156,154,157,895,3632,185,155,156,156,151,149,925,3239,189,167,163,164,164,159,175,199,33754,29577,18990,14871,384,179,178,183,21946,14502,7555,5611,253,186,3051,10147,27242,33853,34241,31195,31239,13746,1719,4383,22625,20414,31655,30303,30127,15673
20900,57073,1059,178,166,160,158,157,5158,17329,391,161,159,158,159,159,898,3650,190,163,157,155,152,154,926,3253,186,164,165,164,165,164,175,201,33852,29730,19035,14927,383,179,178,184,22008,14579,7585,5646,254,185,3063,10205,27279,33954,34298,31288,31284,13777,1725,4409,22661,20475,31717,30415,30161,15702
20977,57399,1054,179,166,161,159,159,5165,17375,387,163,163,156,153,155,900,3667,186,161,156,156,155,157,927,3263,186,165,168,162,164,164,175,201,33975,29894,19069,14976,385,183,183,184,22078,14659,7606,5674,254,188,3073,10272,27323,34050,34359,31378,31333,13798,1733,4432,22702,20541,31771,30510,30202,15730
20870,56555,1049,175,165,159,161,157,5170,17343,390,162,158,158,155,159,899,3637,186,154,155,157,152,154,928,3248,187,164,167,163,163,161,175,201,33843,29647,19048,14889,384,181,178,184,22019,14540,7551,5583,253,181,3069,10227,27294,33949,34281,31183,31294,13744,1733,4415,22666,20453,31631,30221,30156,15671
20247,54869,1015,175,166,159,159,157,5154,17229,387,162,159,153,157,155,888,3571,183,157,155,155,159,154,919,3197,188,165,168,163,163,163,174,198,33431,29127,18896,14715,380,180,174,183,21755,14257,7461,5483,253,185,3035,10007,27209,33707,34143,30972,31247,13715,1707,4305,22564,20300,31458,29978,30108,15633
20294,55013,1025,176,164,162,160,157,5155,17225,388,158,159,158,156,158,887,3571,184,153,155,155,155,155,920,3201,184,164,168,165,163,159,176,197,33373,29061,18861,14682,382,180,178,183,21727,14245,7459,5483,252,185,3027,9962,27187,33656,34141,30967,31229,13708,1706,4301,22556,20287,31449,29969,30100,15629
20441,55396,1023,176,162,162,157,158,5155,17236,385,161,155,159,155,155,890,3579,184,158,157,161,153,159,920,3208,185,176,162,163,165,161,173,199,33429,29111,18858,14689,384,180,176,182,21746,14269,7463,5498,253,189,3028,9975,27185,33657,34145,30990,31230,13711,1710,4313,22563,20300,31457,30001,30100,15635
20532,55707,1039,177,161,163,157,159,5159,17266,389,163,157,157,155,154,890,3588,184,159,168,161,156,157,922,3218,186,167,166,166,164,158,172,198,33511,29211,18881,14712,385,183,180,182,21787,14316,7476,5509,253,185,3034,10007,27193,33692,34159,31012,31232,13714,1716,4329,22580,20334,31485,30056,30106,15641
20581,55784,1031,175,166,157,161,155,5159,17259,386,163,161,153,156,158,891,3589,184,162,156,155,156,157,921,3222,189,165,168,163,162,161,173,200,33520,29213,18877,14704,379,179,178,182,21789,14317,7475,5504,253,186,3033,10011,27194,33699,34159,31014,31238,13715,1715,4336,22591,20339,31483,30049,30105,15638
20590,55856,1041,177,163,160,159,156,5158,17265,389,165,159,156,155,155,895,3595,188,157,158,152,158,152,923,3225,182,164,165,164,161,161,178,198,33543,29248,18881,14716,382,180,177,183,21795,14340,7481,5516,251,187,3033,10021,27211,33727,34180,31061,31245,13726,1715,4337,22599,20369,31490,30083,30114,15651
20647,56129,1035,177,164,160,161,155,5158,17281,387,160,159,158,157,157,893,3607,184,158,157,157,155,157,921,3234,186,165,166,163,162,160,175,198,33642,29386,18902,14748,380,180,179,182,21837,14389,7492,5536,254,187,3041,10066,27229,33795,34214,31116,31267,13744,1717,4357,22632,20413,31522,30157,30131,15671
20741,56488,1047,178,163,160,157,158,5158,17309,389,167,160,154,158,154,897,3622,187,159,160,156,155,155,926,3244,185,163,165,164,167,161,173,199,33751,29543,18935,14794,384,181,176,183,21887,14453,7514,5567,254,185,3052,10123,27257,33879,34256,31204,31297,13767,1720,4375,22663,20474,31571,30253,30159,15693
20838,56869,1046,177,163,159,158,157,5161,17348,387,161,158,157,156,158,899,3640,185,158,157,157,155,154,924,3254,186,163,164,163,169,157,174,199,33863,29698,18970,14843,383,180,176,183,21949,14525,7534,5597,253,185,3057,10181,27298,33979,34304,31289,31343,13795,1727,4403,22705,20533,31628,30358,30189,15721
20922,57204,1063,177,165,159,158,155,5168,17391,390,162,158,156,152,155,903,3659,186,157,155,159,158,151,929,3267,185,167,164,165,163,161,177,198,33966,29855,19004,14890,389,180,178,183,22002,14601,7561,5627,255,187,3066,10239,27337,34083,34359,31376,31383,13825,1729,4421,22738,20597,31695,30475,30225,15754
20998,57539,1055,175,164,161,156,159,5174,17438,388,161,158,160,158,155,902,3678,185,159,157,153,159,154,929,3281,188,165,165,167,163,164,175,201,34089,30007,19038,14935,385,184,178,184,22068,14671,7575,5654,256,187,3080,10309,27373,34173,34415,31458,31420,13843,1735,4447,22771,20650,31755,30571,30260,15774
20796,56351,1047,177,163,163,160,156,5178,17379,391,162,156,156,154,155,895,3635,189,157,159,155,158,153,931,3255,186,166,166,166,162,161,174,200,33876,29676,19001,14829,383,178,181,183,21967,14508,7509,5542,252,186,3073,10231,27348,34051,34316,31224,31374,13791,1734,4411,22724,20542,31605,30249,30212,15714
20280,55076,1018,177,166,160,157,157,5165,17285,386,162,161,156,160,154,888,3587,185,163,158,155,158,154,920,3217,186,162,166,163,153,160,177,199,33505,29225,18872,14689,379,180,180,186,21738,14274,7445,5477,253,185,3041,10039,27279,33869,34216,31086,31339,13772,1715,4319,22645,20428,31481,30077,30177,15691
20351,55303,1031,175,163,160,157,159,5161,17290,387,165,159,157,154,155,890,3586,185,160,160,157,158,155,920,3222,189,164,165,167,162,159,177,198,33503,29240,18863,14685,381,181,177,183,21729,14289,7454,5489,252,185,3036,10029,27278,33869,34221,31110,31337,13774,1711,4328,22650,20434,31492,30109,30179,15692
20496,55735,1030,177,163,160,159,155,5163,17310,386,161,158,158,158,157,891,3597,184,158,163,153,156,159,921,3232,186,163,166,169,163,161,173,199,33586,29343,18882,14708,380,180,177,183,21762,14324,7469,5509,253,191,3039,10053,27294,33912,34246,31162,31347,13785,1718,4342,22669,20467,31519,30167,30186,15705
20607,56083,1043,176,163,163,160,155,5167,17339,387,160,158,158,156,155,893,3610,184,160,155,156,153,162,923,3240,187,163,171,166,164,160,173,203,33658,29411,18913,14733,381,179,180,183,21799,14370,7484,5522,253,186,3049,10092,27309,33958,34265,31175,31353,13789,1721,4361,22693,20503,31559,30217,30188,15711
20628,56077,1033,177,164,159,157,155,5167,17336,386,160,157,156,155,154,893,3611,185,158,154,156,157,153,923,3242,187,164,162,161,163,162,175,199,33647,29393,18919,14740,381,180,178,183,21787,14356,7483,5522,254,186,3046,10090,27316,33966,34271,31194,31365,13796,1720,4362,22690,20502,31557,30215,30185,15711
20644,56185,1046,175,163,159,158,158,5166,17339,392,162,158,156,160,152,894,3618,185,158,155,152,155,155,923,3245,183,166,167,165,166,161,175,199,33690,29465,18945,14766,381,181,183,187,21801,14378,7495,5538,254,188,3048,10110,27337,34015,34305,31258,31372,13809,1723,4366,22699,20528,31571,30265,30197,15723
20707,56465,1041,179,163,164,158,155,5166,17366,389,166,159,160,155,155,895,3627,183,161,155,158,152,159,926,3253,187,165,165,167,157,162,174,198,33799,29619,18983,14816,385,181,178,182,21838,14433,7519,5570,253,187,3055,10155,27363,34096,34352,31339,31407,13831,1725,4385,22733,20574,31619,30355,30217,15743
20795,56806,1053,177,163,159,159,157,5170,17398,390,162,158,157,155,157,896,3643,186,156,154,155,155,149,926,3261,188,164,166,166,164,159,172,200,33899,29755,19032,14874,383,181,180,184,21887,14496,7542,5598,255,186,3066,10210,27403,34190,34399,31422,31442,13855,1729,4403,22765,20626,31670,30455,30241,15769
20872,57135,1052,179,164,159,160,158,5171,17424,389,165,157,157,157,157,899,3659,184,163,157,157,155,159,928,3273,189,164,166,160,166,161,173,200,33999,29899,19077,14929,386,181,177,183,21943,14570,7568,5630,253,186,3072,10267,27443,34292,34463,31514,31479,13881,1732,4425,22795,20682,31729,30559,30271,15793
20944,57443,1063,176,165,160,157,160,5176,17460,390,158,158,157,158,155,902,3675,186,159,157,160,151,158,929,3284,187,164,168,164,168,159,175,202,34108,30061,19125,14984,386,184,179,186,22007,14642,7595,5664,257,187,3082,10331,27483,34394,34522,31618,31524,13909,1738,4452,22829,20741,31794,30667,30306,15827
21019,57605,1056,177,165,160,160,160,5185,17504,391,165,161,157,156,155,905,3683,185,159,161,155,155,161,932,3292,191,166,166,165,164,164,175,199,34141,30064,19158,14989,385,185,178,183,22037,14657,7596,5646,254,187,3090,10371,27499,34422,34535,31575,31527,13893,1740,4464,22843,20750,31791,30609,30303,15798
20390,55501,1034,176,163,161,160,160,5171,17364,390,159,162,153,155,155,892,3609,185,161,159,154,147,157,923,3236,193,165,165,165,163,158,174,200,33722,29516,19032,14814,383,184,181,183,21796,14356,7493,5515,253,186,3065,10172,27423,34193,34390,31319,31473,13849,1723,4360,22732,20570,31573,30259,30241,15750
20288,55283,1021,175,163,159,157,156,5164,17338,386,163,156,156,159,158,888,3591,189,158,156,155,158,153,919,3228,187,165,166,169,165,160,174,198,33563,29349,18967,14756,380,181,178,183,21708,14287,7478,5509,257,189,3046,10086,27401,34131,34383,31311,31464,13846,1715,4335,22718,20543,31547,30232,30233,15749
20397,55623,1037,177,162,160,156,159,5165,17349,388,165,157,155,155,154,892,3602,184,159,156,154,153,159,920,3236,187,163,167,164,163,159,176,197,33631,29413,18981,14765,382,183,177,183,21725,14312,7492,5521,253,186,3047,10099,27406,34151,34391,31341,31465,13853,1718,4346,22726,20558,31562,30271,30231,15752
20504,55973,1032,175,163,159,161,157,5164,17375,390,160,158,153,156,154,887,3612,185,158,153,155,154,155,921,3245,189,165,161,164,163,165,173,202,33741,29560,19005,14803,382,182,177,184,21769,14371,7510,5545,252,185,3052,10140,27419,34210,34421,31395,31476,13864,1722,4363,22747,20595,31599,30347,30247,15764
20616,56257,1045,177,165,163,157,156,5169,17390,389,160,158,157,157,156,892,3623,184,156,147,151,152,154,923,3255,187,165,165,168,168,161,175,199,33759,29565,19021,14817,383,179,178,183,21785,14383,7515,5547,255,186,3057,10159,27428,34229,34434,31409,31487,13870,1726,4377,22758,20611,31607,30361,30245,15764
20615,56260,1035,177,166,160,159,157,5167,17386,389,162,162,158,157,156,891,3623,188,157,158,159,156,158,922,3254,187,164,168,163,162,161,173,200,33780,29598,19041,14837,382,181,177,183,21787,14394,7520,5559,253,189,3055,10167,27439,34250,34467,31462,31503,13883,1725,4378,22758,20621,31615,30386,30252,15777
20649,56473,1047,176,163,159,157,159,5167,17401,390,166,158,156,153,155,895,3631,185,150,151,159,159,158,922,3261,189,163,166,164,163,158,174,205,33878,29741,19087,14883,386,182,177,187,21819,14449,7541,5588,253,187,3062,10206,27465,34324,34512,31550,31528,13905,1726,4389,22776,20659,31649,30461,30264,15791
20733,56803,1044,179,164,159,157,155,5167,17430,387,165,158,157,156,155,896,3646,189,159,157,156,152,153,924,3270,187,167,163,164,164,163,174,200,33981,29894,19129,14941,386,181,177,183,21883,14521,7569,5622,254,187,3070,10261,27501,34418,34559,31636,31560,13929,1730,4409,22805,20713,31704,30561,30290,15817
20823,57157,1060,177,166,161,157,158,5172,17469,393,164,159,154,159,152,898,3663,189,154,159,159,156,158,925,3285,187,164,168,164,165,163,174,200,34090,30054,19184,15006,385,182,177,185,21937,14589,7597,5657,256,189,3079,10323,27542,34517,34626,31735,31601,13957,1740,4432,22839,20774,31766,30679,30312,15842
20909,57504,1053,183,165,160,159,154,5179,17510,393,166,162,157,153,158,899,3678,187,158,160,156,158,158,926,3295,190,166,165,163,165,167,177,204,34197,30209,19243,15075,387,181,182,185,22016,14674,7634,5696,256,187,3091,10387,27590,34632,34693,31835,31647,13987,1741,4454,22880,20839,31836,30801,30349,15875
20981,57803,1071,178,163,159,156,155,5183,17561,397,166,156,159,155,154,901,3695,187,159,155,155,157,156,929,3308,188,163,166,165,165,167,174,211,34311,30373,19284,15125,389,180,178,183,22084,14757,7659,5732,257,187,3099,10459,27627,34726,34754,31924,31679,14000,1743,4477,22911,20893,31886,30895,30383,15895
20814,56774,1041,177,166,159,157,156,5185,17503,396,166,161,156,156,159,898,3659,185,161,158,154,158,155,929,3284,189,165,166,169,164,153,174,204,34108,30035,19256,15025,385,179,179,187,21989,14593,7594,5619,255,187,3096,10379,27591,34601,34668,31707,31638,13950,1741,4445,22864,20785,31729,30566,30336,15837
20268,55385,1031,175,166,162,158,155,5175,17407,391,164,157,159,159,155,890,3604,184,159,157,156,155,152,920,3244,187,165,169,166,172,163,177,199,33710,29553,19118,14873,383,179,178,183,21739,14343,7518,5541,256,186,3062,10183,27526,34415,34572,31562,31600,13933,1717,4351,22777,20663,31587,30374,30295,15813
20307,55533,1026,179,164,163,158,154,5171,17405,387,161,161,160,153,159,888,3603,184,156,160,158,155,155,918,3247,186,167,166,164,165,157,173,199,33709,29565,19099,14861,383,180,177,186,21725,14340,7529,5555,253,186,3057,10164,27521,34411,34579,31584,31604,13934,1719,4353,22778,20664,31591,30390,30289,15807
20445,55925,1043,175,162,158,158,155,5174,17421,391,161,162,160,153,157,890,3616,186,157,159,156,158,153,922,3257,186,165,162,162,170,160,178,195,33771,29657,19116,14884,387,179,177,185,21744,14370,7545,5574,253,185,3058,10183,27533,34441,34606,31637,31603,13947,1722,4367,22785,20682,31610,30437,30295,15813
20529,56244,1035,178,165,161,160,155,5176,17451,388,162,160,158,156,160,893,3624,182,159,160,156,155,155,923,3265,188,164,165,167,162,171,174,199,33878,29761,19162,14928,383,180,178,183,21789,14422,7562,5592,252,186,3064,10227,27547,34488,34634,31681,31612,13954,1727,4384,22798,20710,31639,30497,30302,15822
20604,56375,1046,178,163,160,156,155,5175,17451,391,163,160,159,157,157,893,3632,186,158,160,156,155,155,923,3271,186,173,165,169,158,159,174,200,33870,29751,19172,14940,384,181,177,185,21787,14422,7565,5594,254,185,3066,10232,27550,34501,34647,31701,31623,13963,1728,4391,22802,20717,31639,30500,30298,15826
20617,56461,1038,177,166,159,160,155,5175,17451,389,149,160,157,157,159,893,3635,185,159,160,156,155,156,925,3271,187,163,166,164,167,160,177,199,33927,29835,19193,14968,383,179,181,185,21805,14449,7580,5612,254,186,3069,10249,27573,34554,34679,31755,31633,13974,1731,4393,22816,20744,31658,30550,30308,15841
20671,56701,1053,179,166,158,160,159,5174,17473,394,162,159,161,155,155,900,3643,187,158,156,156,157,158,926,3281,188,163,166,165,165,160,177,202,34010,29972,19227,15011,387,184,178,184,21852,14509,7601,5643,254,187,3075,10296,27592,34621,34715,31832,31654,13994,1729,4409,22839,20790,31695,30637,30326,15852
20755,57035,1047,175,164,162,158,157,5178,17502,389,165,158,159,156,153,896,3659,185,158,157,157,155,158,927,3292,187,164,166,168,161,162,177,204,34125,30135,19272,15069,388,181,181,187,21917,14582,7630,5680,255,190,3085,10354,27637,34723,34769,31926,31686,14017,1737,4426,22877,20844,31754,30740,30349,15881
20859,57409,1063,178,163,161,159,158,5180,17539,396,159,155,155,155,154,899,3674,187,162,156,159,153,157,932,3304,188,161,165,161,164,162,173,205,34218,30283,19323,15129,388,181,181,184,21976,14659,7663,5719,255,190,3094,10419,27674,34828,34820,32019,31721,14043,1738,4453,22911,20907,31811,30845,30372,15909
20939,57744,1057,178,164,161,157,158,5187,17576,394,170,157,156,155,157,901,3690,186,157,153,156,159,155,931,3317,191,165,167,166,162,159,175,201,34326,30443,19370,15191,389,182,180,183,22037,14739,7690,5754,257,187,3103,10476,27714,34928,34890,32122,31765,14073,1745,4477,22949,20969,31878,30961,30407,15935
21013,58037,1071,177,164,159,157,158,5193,17635,393,162,159,160,158,155,906,3711,185,158,157,156,156,154,934,3329,191,165,165,162,164,161,176,202,34438,30595,19401,15233,390,182,179,182,22098,14803,7719,5785,257,186,3109,10542,27743,35009,34954,32190,31779,14078,1747,4498,22971,21015,31909,31031,30429,15954
20732,56661,1040,177,162,158,159,157,5193,17557,388,159,155,157,152,159,899,3662,185,159,155,153,157,156,932,3296,187,163,165,174,165,159,173,200,34183,30176,19343,15102,388,180,178,183,21949,14582,7630,5650,255,185,3099,10429,27697,34844,34841,31943,31725,14022,1741,4451,22895,20874,31701,30642,30374,15886
20297,55532,1034,176,162,159,158,157,5182,17480,391,160,155,155,154,157,890,3615,186,160,155,160,159,155,923,3262,188,165,165,166,162,161,174,200,33807,29733,19210,14964,387,179,178,181,21703,14355,7564,5585,252,186,3066,10241,27635,34678,34759,31822,31691,14009,1722,4367,22813,20756,31578,30490,30343,15864
20352,55707,1027,177,164,159,157,160,5182,17475,390,163,159,157,156,154,890,3615,184,159,159,156,154,155,924,3267,190,170,161,165,167,164,174,199,33823,29773,19185,14949,390,185,178,183,21709,14367,7569,5595,253,188,3062,10231,27622,34665,34750,31835,31680,14005,1722,4372,22823,20767,31583,30517,30338,15861
20491,56126,1045,175,161,160,157,148,5187,17491,394,162,156,159,156,157,894,3629,188,159,159,157,154,153,923,3275,188,163,165,163,163,160,174,200,33900,29871,19203,14978,386,180,178,183,21733,14403,7584,5614,254,186,3066,10255,27631,34699,34773,31890,31684,14016,1726,4385,22822,20782,31610,30574,30337,15871
20585,56459,1042,177,161,159,159,154,5187,17521,391,163,155,153,159,158,893,3638,184,158,156,155,155,156,926,3289,187,177,165,169,163,159,174,200,33983,29955,19229,15004,385,179,177,183,21774,14451,7593,5625,255,186,3073,10293,27639,34741,34787,31909,31690,14022,1732,4405,22837,20810,31654,30637,30347,15879
20652,56575,1049,176,163,159,158,159,5190,17520,392,162,155,159,156,155,898,3645,185,158,155,156,153,156,928,3291,190,167,165,162,163,161,177,200,33969,29941,19228,15003,386,183,178,179,21767,14447,7588,5626,253,186,3072,10298,27633,34745,34789,31920,31692,14025,1732,4408,22841,20817,31659,30650,30340,15881
20672,56661,1042,175,166,159,157,159,5185,17513,389,162,159,158,158,156,896,3647,187,158,155,155,156,154,928,3289,186,163,162,163,163,163,178,200,34017,30031,19247,15034,385,183,181,184,21787,14477,7601,5642,255,186,3075,10321,27656,34787,34803,31975,31700,14039,1735,4415,22852,20840,31685,30701,30358,15891
20727,56918,1057,179,163,161,161,157,5181,17529,392,162,158,157,154,157,896,3660,186,157,153,156,159,154,928,3296,188,168,167,164,164,160,174,201,34103,30173,19287,15082,389,181,177,183,21845,14551,7622,5671,255,186,3081,10370,27681,34861,34842,32051,31723,14060,1736,4431,22875,20892,31739,30805,30373,15911
20816,57263,1051,178,163,160,159,157,5185,17559,390,162,157,156,155,155,898,3671,186,160,156,153,155,158,930,3307,187,165,168,168,167,161,175,201,34202,30325,19328,15140,391,181,178,184,21916,14632,7650,5709,255,189,3093,10431,27713,34950,34874,32123,31750,14081,1744,4453,22913,20943,31813,30928,30388,15937
20924,57648,1065,180,163,163,160,159,5188,17590,393,162,158,157,155,159,901,3687,185,158,153,155,159,155,933,3320,191,169,166,165,161,158,173,201,34289,30466,19376,15201,391,180,183,184,21979,14713,7678,5743,255,187,3100,10498,27747,35048,34917,32208,31785,14106,1744,4478,22946,21005,31887,31053,30422,15960
21011,57985,1061,178,159,160,162,155,5194,17641,391,165,158,159,156,155,902,3705,185,155,157,153,156,151,934,3330,187,167,165,168,162,162,176,206,34387,30624,19413,15254,391,182,178,185,22057,14798,7706,5782,256,187,3111,10560,27786,35149,34957,32297,31818,14132,1750,4499,22983,21065,31960,31176,30446,15988
21095,58303,1077,176,163,159,157,159,5204,17695,399,160,161,155,159,154,907,3718,188,157,160,154,155,159,936,3346,187,165,165,164,167,160,176,202,34464,30715,19448,15293,391,184,179,185,22121,14866,7729,5802,258,187,3120,10633,27811,35219,34996,32328,31832,14129,1752,4523,23005,21114,32020,31246,30467,15994
20692,56598,1040,177,163,161,158,157,5193,17587,389,162,159,156,153,155,898,3657,185,158,157,155,157,154,936,3304,187,165,163,163,164,160,173,201,34127,30218,19359,15135,386,181,179,183,21956,14629,7625,5659,257,188,3104,10483,27755,35018,34851,32049,31763,14079,1746,4458,22938,20968,31812,30854,30405,15929
20402,55820,1042,177,163,159,164,160,5188,17536,393,163,158,156,157,155,891,3621,186,158,157,152,153,159,927,3282,186,165,169,165,164,158,174,201,33807,29867,19252,15032,386,185,178,183,21767,14465,7581,5621,254,187,3076,10326,27700,34885,34787,31981,31735,14067,1733,4396,22879,20895,31733,30763,30386,15922
20453,56021,1032,177,162,159,161,155,5187,17548,389,163,154,153,155,155,889,3623,184,158,156,153,155,152,925,3289,185,165,165,166,166,153,174,201,33878,29951,19265,15053,388,180,178,182,21788,14491,7602,5641,254,187,3075,10339,27697,34890,34796,32021,31730,14070,1733,4406,22890,20912,31763,30808,30389,15927
20575,56416,1050,177,163,162,153,154,5191,17577,395,162,157,157,159,154,891,3636,185,158,154,156,155,154,928,3301,188,165,162,166,162,164,174,200,33981,30099,19292,15099,387,180,176,187,21837,14557,7627,5673,257,187,3082,10382,27699,34933,34835,32087,31735,14081,1737,4427,22911,20950,31791,30895,30398,15940
20729,56912,1046,175,164,159,158,155,5197,17606,387,159,159,154,156,158,895,3654,186,158,160,153,154,155,929,3313,186,165,166,165,167,163,178,201,34011,30115,19320,15119,391,181,181,184,21879,14593,7640,5682,255,187,3088,10413,27697,34935,34839,32091,31737,14082,1743,4448,22924,20967,31829,30935,30400,15943
20759,56918,1055,177,166,158,159,157,5197,17598,395,166,157,160,153,158,896,3657,189,158,157,157,160,155,931,3313,187,168,162,163,174,160,174,201,33979,30087,19325,15125,389,181,178,184,21866,14583,7634,5686,255,187,3084,10407,27694,34938,34845,32107,31733,14087,1744,4448,22919,20971,31828,30947,30399,15947
20781,57047,1048,177,163,160,161,157,5195,17612,393,161,155,156,156,153,897,3661,185,159,154,157,155,157,932,3318,188,164,167,165,164,155,174,203,34043,30191,19341,15159,388,181,178,187,21890,14618,7651,5706,255,191,3087,10431,27699,34968,34871,32171,31744,14097,1744,4454,22934,20996,31859,31007,30408,15958
20846,57326,1063,177,166,159,157,154,5199,17645,398,164,158,159,153,156,897,3672,186,160,157,155,157,152,933,3325,187,171,163,175,159,161,176,201,34125,30325,19378,15202,389,181,178,185,21938,14684,7673,5736,258,187,3094,10481,27717,35029,34901,32240,31758,14115,1747,4473,22957,21043,31904,31099,30428,15977
20940,57683,1057,181,163,163,158,157,5205,17675,391,165,158,159,157,159,899,3687,186,162,157,159,153,157,933,3338,191,166,165,165,164,161,175,199,34221,30458,19419,15258,391,180,180,185,21991,14751,7700,5771,256,187,3101,10534,27738,35102,34953,32319,31783,14133,1752,4493,22986,21088,31956,31199,30445,16000
21029,58011,1075,177,165,162,161,156,5208,17713,401,165,159,155,155,159,901,3706,187,160,156,159,157,155,935,3349,185,164,162,162,160,160,174,202,34300,30599,19459,15312,392,182,177,187,22043,14819,7727,5806,257,187,3109,10591,27760,35182,34996,32407,31817,14159,1758,4518,23007,21143,32018,31307,30471,16024
21097,58309,1065,181,161,156,162,155,5214,17760,393,165,155,157,159,152,903,3717,186,162,155,157,155,156,938,3360,188,164,164,165,161,161,173,201,34410,30758,19498,15361,392,181,179,185,22106,14893,7748,5835,258,189,3117,10652,27776,35254,35055,32483,31833,14166,1761,4535,23032,21183,32066,31392,30500,16043
20911,57172,1057,176,174,163,160,157,5215,17698,395,162,159,156,155,157,899,3679,187,156,156,155,156,155,935,3334,188,160,168,167,164,163,175,203,34201,30394,19454,15256,391,177,178,185,22001,14722,7675,5721,256,186,3108,10570,27717,35090,34956,32247,31770,14109,1761,4503,22977,21064,31908,31059,30445,15981
20410,55871,1031,176,165,164,161,156,5204,17611,391,163,161,160,161,155,891,3625,189,159,159,160,155,155,930,3297,187,164,169,165,164,164,175,199,33830,29936,19324,15119,387,184,177,183,21763,14484,7603,5653,256,187,3075,10368,27638,34870,34863,32117,31723,14084,1739,4414,22891,20931,31778,30883,30411,15954
20456,56031,1044,177,160,159,159,158,5201,17610,394,162,155,155,155,152,892,3623,186,157,157,159,153,158,929,3301,187,168,165,165,165,162,175,199,33829,29956,19313,15111,386,177,178,193,21761,14494,7611,5665,254,190,3069,10355,27607,34836,34863,32127,31713,14080,1738,4419,22890,20931,31790,30914,30401,15953
20581,56444,1039,177,163,159,166,155,5202,17628,391,159,158,158,156,151,890,3637,186,157,157,160,156,155,929,3311,187,165,165,164,163,160,168,202,33926,30088,19337,15151,388,179,178,184,21794,14545,7633,5691,256,187,3074,10382,27605,34853,34891,32197,31713,14090,1742,4434,22895,20955,31821,30979,30412,15967
20703,56871,1054,178,165,160,161,158,5206,17659,395,162,160,157,155,157,893,3652,185,157,161,153,163,154,931,3324,187,169,165,166,162,160,174,199,33989,30152,19369,15183,387,182,177,184,21840,14592,7652,5709,255,185,3079,10427,27600,34869,34902,32206,31705,14091,1747,4457,22902,20972,31858,31034,30411,15967
20755,56906,1045,177,166,159,160,155,5206,17653,390,161,162,155,152,155,895,3654,185,158,160,155,155,154,934,3324,189,164,165,164,163,163,171,201,33962,30105,19374,15183,391,182,177,183,21829,14580,7646,5706,255,185,3077,10413,27590,34845,34903,32212,31695,14090,1748,4456,22895,20963,31851,31031,30403,15968
20766,57001,1057,175,166,159,158,155,5204,17663,395,167,158,155,155,157,893,3655,189,158,157,151,151,154,932,3327,188,165,169,165,163,164,175,200,33999,30190,19391,15214,389,181,179,183,21842,14608,7659,5725,255,187,3079,10431,27584,34865,34920,32268,31698,14097,1748,4461,22904,20981,31870,31082,30406,15977
20821,57273,1050,180,162,160,161,156,5205,17683,395,165,159,157,156,159,894,3670,185,160,157,156,155,155,932,3333,199,165,166,165,166,159,176,202,34099,30335,19425,15260,391,179,178,188,21887,14665,7684,5758,255,187,3085,10478,27600,34923,34963,32334,31710,14115,1752,4479,22923,21018,31908,31163,30419,15995
20920,57639,1065,177,163,159,159,155,5211,17719,395,163,162,159,160,153,898,3682,186,156,157,157,155,158,937,3345,190,165,165,165,167,159,178,202,34184,30476,19460,15311,389,181,178,187,21951,14742,7710,5797,260,188,3091,10538,27615,34987,34998,32409,31732,14133,1752,4499,22946,21062,31962,31266,30443,16018
21017,57997,1060,177,159,159,161,156,5216,17754,393,163,157,157,155,158,899,3699,186,160,157,156,156,155,935,3356,187,164,164,166,165,159,175,202,34281,30623,19498,15365,393,181,179,184,22018,14820,7736,5831,255,188,3102,10594,27645,35066,35042,32493,31763,14154,1758,4522,22980,21119,32021,31375,30462,16042
21095,58317,1076,177,165,160,158,152,5221,17803,397,160,158,161,152,159,901,3719,187,162,156,156,158,155,938,3370,189,165,167,164,163,161,174,203,34383,30770,19534,15407,395,182,182,185,22082,14893,7761,5861,258,187,3109,10660,27657,35126,35097,32557,31771,14159,1760,4546,22996,21153,32062,31452,30481,16055
20809,56908,1045,176,167,159,158,156,5219,17725,393,159,162,157,155,158,896,3666,185,157,159,159,154,157,938,3337,188,166,167,165,167,162,173,202,34126,30339,19468,15276,393,181,176,184,21959,14697,7672,5730,255,192,3097,10544,27596,34939,34972,32285,31696,14094,1758,4500,22925,21019,31878,31080,30427,15990
20354,55733,1037,175,162,163,159,153,5209,17640,394,165,163,156,156,152,886,3615,185,159,156,156,152,157,927,3301,188,163,164,167,164,164,176,199,33747,29885,19335,15138,387,181,177,183,21715,14468,7600,5657,254,190,3064,10348,27503,34716,34851,32135,31644,14070,1739,4412,22842,20885,31759,30911,30387,15962
20425,55947,1030,175,163,160,158,154,5203,17637,392,163,161,156,155,157,886,3618,186,158,157,156,153,157,926,3306,188,165,169,162,165,161,172,202,33745,29890,19312,15126,387,179,180,184,21715,14472,7607,5669,253,185,3059,10333,27482,34669,34839,32136,31625,14060,1739,4417,22836,20881,31769,30930,30375,15960
20554,56375,1046,177,162,160,158,160,5205,17651,394,165,162,155,151,155,890,3631,186,157,158,159,155,159,929,3320,188,167,165,164,166,159,175,199,33817,29999,19328,15149,388,184,178,183,21749,14517,7622,5691,254,187,3059,10358,27471,34679,34852,32179,31616,14065,1744,4434,22841,20891,31784,30984,30375,15959
20670,56743,1042,177,163,161,156,160,5205,17673,397,162,158,158,155,156,892,3643,185,159,157,159,153,155,934,3325,190,164,166,164,164,164,175,203,33883,30051,19354,15177,389,183,173,185,21788,14561,7633,5708,254,192,3066,10394,27467,34683,34856,32186,31610,14062,1746,4452,22851,20910,31815,31029,30372,15964
20707,56771,1053,177,165,169,159,156,5208,17666,394,161,159,158,158,152,893,3643,185,163,157,157,156,157,932,3324,192,165,164,165,168,163,174,201,33859,30019,19355,15179,389,181,178,186,21779,14555,7632,5707,257,190,3062,10386,27455,34669,34853,32180,31597,14061,1747,4455,22843,20899,31813,31025,30364,15963
20730,56871,1046,177,165,162,158,157,5205,17664,391,161,160,155,159,157,893,3647,185,155,161,160,156,159,932,3326,186,167,165,165,163,161,173,199,33892,30090,19371,15203,389,181,179,183,21796,14577,7648,5727,259,188,3064,10399,27457,34686,34865,32219,31594,14066,1747,4459,22849,20919,31825,31073,30367,15971
20795,57163,1061,179,163,160,159,156,5204,17679,395,162,157,156,157,153,895,3662,187,158,153,159,154,156,934,3329,187,169,165,164,167,162,175,201,33983,30237,19396,15246,390,180,179,187,21839,14636,7670,5761,257,189,3072,10450,27471,34739,34887,32283,31607,14083,1749,4474,22873,20958,31868,31157,30377,15986
20892,57537,1054,178,162,163,160,157,5205,17703,394,165,155,161,159,154,895,3677,185,159,157,158,155,158,933,3338,191,166,165,165,163,162,177,202,34085,30384,19439,15302,390,182,178,183,21896,14710,7696,5796,257,187,3080,10505,27495,34813,34927,32361,31629,14103,1756,4495,22905,21006,31918,31259,30397,16007
20991,57910,1071,178,164,159,162,157,5210,17739,397,161,154,156,153,155,898,3693,186,158,157,160,158,152,937,3351,187,165,165,165,162,161,175,202,34168,30523,19474,15352,392,182,178,185,21966,14785,7723,5832,257,187,3085,10565,27525,34893,34965,32437,31661,14126,1756,4519,22928,21062,31977,31373,30421,16031
21075,58241,1065,180,164,165,157,159,5211,17779,395,165,157,156,155,156,900,3707,189,162,153,156,151,156,936,3362,189,166,169,166,165,163,175,202,34285,30697,19509,15406,392,183,181,184,22045,14873,7750,5868,258,187,3099,10634,27559,34982,35003,32518,31690,14147,1761,4541,22966,21110,32038,31482,30443,16054
21075,57842,1069,180,162,165,159,155,5218,17774,401,165,161,158,154,149,904,3692,186,158,161,155,159,153,937,3361,188,169,165,166,163,161,179,206,34205,30508,19502,15351,392,180,178,189,22022,14805,7714,5795,256,188,3099,10619,27530,34899,34945,32351,31642,14097,1764,4543,22933,21052,31946,31254,30413,16004
20384,55713,1030,178,162,157,158,154,5202,17634,391,166,165,154,157,155,887,3614,185,158,154,156,159,151,927,3302,186,165,166,164,165,161,175,202,33719,29889,19349,15156,388,181,180,183,21730,14486,7596,5668,256,185,3062,10369,27423,34619,34774,32073,31567,14050,1742,4424,22815,20860,31743,30939,30348,15954
20386,55732,1037,176,167,165,157,159,5197,17611,394,162,157,157,154,151,887,3601,186,157,156,156,159,159,926,3298,183,165,169,165,163,160,173,203,33599,29758,19296,15111,392,181,179,183,21675,14444,7588,5666,255,189,3047,10305,27386,34531,34740,32055,31537,14035,1739,4408,22794,20831,31729,30927,30320,15944
20522,56120,1034,178,164,159,161,155,5193,17613,390,164,153,154,158,153,888,3615,186,161,156,155,158,152,928,3305,187,164,164,164,164,159,173,198,33639,29807,19291,15118,388,180,178,185,21695,14467,7597,5677,261,187,3049,10317,27367,34519,34734,32063,31529,14035,1740,4421,22791,20829,31743,30965,30316,15945
20624,56478,1047,176,167,168,156,157,5195,17635,394,159,158,156,155,144,890,3625,186,161,157,155,155,158,930,3314,187,166,169,167,167,162,178,200,33735,29930,19324,15147,390,181,177,185,21730,14518,7615,5703,256,189,3053,10353,27371,34545,34739,32094,31520,14033,1742,4439,22800,20850,31763,31016,30318,15947
20710,56651,1041,177,164,163,158,149,5195,17637,395,161,157,160,159,156,892,3630,187,158,153,159,155,158,931,3318,189,163,167,165,163,162,174,198,33740,29913,19322,15153,386,180,179,183,21749,14525,7616,5700,255,186,3054,10358,27366,34535,34733,32078,31507,14031,1747,4447,22803,20854,31764,31009,30301,15941
20723,56663,1052,175,167,164,158,160,5191,17629,395,162,161,156,160,155,891,3632,187,155,160,156,154,157,932,3319,188,165,166,167,164,159,174,202,33735,29932,19323,15160,386,183,178,186,21738,14529,7621,5710,255,187,3056,10361,27365,34543,34741,32103,31506,14035,1745,4449,22797,20859,31769,31031,30304,15947
20783,56917,1045,177,163,160,157,152,5192,17641,391,160,158,157,154,148,893,3642,186,157,158,155,151,152,930,3324,187,165,164,164,163,162,176,200,33826,30055,19346,15198,389,180,180,185,21775,14578,7638,5737,253,186,3059,10399,27381,34596,34763,32158,31515,14047,1748,4463,22818,20896,31793,31109,30309,15958
20876,57267,1060,177,166,160,159,155,5193,17664,395,161,162,161,160,156,894,3656,186,157,159,155,154,151,933,3336,187,164,166,163,164,161,174,202,33917,30209,19373,15242,390,182,182,187,21837,14651,7663,5774,256,187,3066,10454,27402,34662,34787,32223,31534,14064,1750,4482,22841,20935,31840,31201,30323,15980
20970,57639,1055,177,163,159,153,157,5195,17695,393,162,157,155,156,158,898,3674,191,163,153,155,155,158,933,3346,189,165,163,162,164,161,174,202,34021,30361,19403,15290,390,182,179,188,21901,14727,7683,5802,257,190,3077,10511,27436,34747,34816,32294,31559,14085,1756,4503,22874,20983,31897,31305,30345,16005
21061,57999,1072,180,163,160,157,159,5201,17731,397,167,159,176,153,155,900,3691,186,159,159,160,157,157,937,3356,187,169,166,165,164,159,176,203,34110,30511,19445,15344,391,185,179,188,21964,14807,7713,5840,259,188,3083,10579,27475,34849,34861,32378,31591,14111,1758,4529,22900,21046,31955,31413,30365,16027
21145,58326,1068,177,163,159,155,156,5205,17774,393,160,158,155,166,155,901,3708,185,159,160,153,160,150,937,3369,188,168,165,169,165,161,179,204,34222,30642,19476,15382,391,181,179,180,22024,14875,7735,5861,257,188,3095,10643,27499,34923,34897,32423,31607,14113,1764,4551,22925,21092,32009,31487,30383,16033
20772,56622,1050,178,163,164,157,155,5197,17670,397,162,159,157,156,155,894,3648,188,159,155,157,155,151,934,3337,188,169,167,167,164,161,174,199,33899,30166,19410,15241,389,180,178,183,21883,14657,7641,5726,255,188,3080,10509,27438,34735,34751,32137,31537,14050,1758,4496,22860,20951,31813,31102,30327,15969
20411,55661,1027,173,163,158,160,157,5187,17585,391,165,156,153,153,149,887,3603,185,163,155,154,155,154,927,3302,187,165,167,167,167,163,175,203,33543,29752,19277,15107,388,182,178,186,21671,14452,7579,5668,255,187,3049,10327,27370,34548,34655,32011,31498,14031,1738,4416,22788,20840,31712,30955,30289,15941
20502,55943,1041,177,164,160,159,159,5183,17584,393,162,157,162,156,155,883,3608,186,159,159,160,155,156,927,3306,189,165,166,165,165,159,173,198,33551,29770,19265,15106,387,184,177,186,21667,14462,7590,5683,255,188,3046,10325,27359,34539,34649,32017,31487,14025,1744,4427,22793,20850,31719,30987,30284,15938
20643,56388,1038,176,165,160,158,157,5184,17603,391,162,162,157,153,155,890,3623,185,159,159,156,153,153,928,3315,187,163,167,164,165,161,174,202,33644,29896,19279,15135,389,181,175,180,21703,14510,7607,5703,255,187,3050,10355,27369,34566,34667,32069,31487,14037,1747,4444,22806,20870,31746,31045,30284,15947
20759,56746,1053,175,167,158,157,156,5190,17628,397,162,159,147,151,152,892,3634,186,157,157,153,157,156,932,3324,186,165,166,165,165,163,175,201,33694,29939,19297,15149,391,181,178,183,21750,14552,7615,5716,257,189,3055,10390,27370,34589,34661,32062,31481,14030,1748,4459,22819,20892,31771,31073,30283,15949
20775,56721,1042,177,162,161,158,156,5188,17619,391,166,155,160,154,151,891,3635,183,160,157,156,159,159,930,3323,187,164,165,169,164,160,178,200,33677,29920,19295,15149,387,181,181,185,21743,14542,7612,5715,257,190,3056,10382,27367,34588,34661,32068,31476,14035,1753,4462,22816,20884,31761,31069,30279,15951
20805,56855,1054,177,164,160,159,158,5185,17623,394,169,161,159,159,159,891,3641,185,161,159,160,156,154,930,3327,189,165,166,167,165,161,174,200,33719,29994,19305,15170,388,182,178,183,21756,14572,7623,5736,257,188,3057,10401,27379,34627,34683,32120,31483,14043,1751,4464,22831,20913,31775,31118,30285,15961
20882,57165,1049,179,162,161,161,158,5186,17645,391,167,156,156,155,157,891,3654,186,161,156,153,155,158,930,3336,187,166,165,167,164,160,174,199,33815,30139,19338,15219,390,182,174,184,21810,14639,7647,5768,256,185,3063,10451,27404,34697,34709,32183,31501,14061,1754,4484,22855,20957,31823,31205,30299,15977
20975,57521,1064,177,164,159,158,161,5186,17669,395,164,159,159,159,154,893,3671,185,161,160,159,155,158,932,3346,188,164,165,164,167,158,174,201,33915,30272,19371,15263,390,182,177,183,21871,14707,7675,5803,263,185,3072,10505,27434,34776,34744,32248,31523,14079,1757,4506,22890,21008,31873,31303,30316,15995
21065,57856,1057,178,163,159,158,158,5191,17707,394,164,154,155,155,157,897,3684,185,158,155,155,152,155,933,3355,191,168,165,168,164,160,172,201,34043,30442,19409,15318,391,182,178,184,21933,14780,7695,5833,262,186,3081,10561,27473,34871,34771,32319,31548,14100,1761,4526,22923,21067,31924,31395,30343,16019
21130,58174,1073,177,164,160,156,158,5197,17747,396,162,154,156,156,156,900,3702,187,155,158,154,153,156,934,3366,194,165,165,168,164,161,175,204,34157,30612,19441,15368,392,182,178,186,22000,14849,7721,5859,262,183,3089,10622,27498,34953,34822,32395,31581,14113,1766,4546,22951,21114,31971,31484,30368,16037
21003,57207,1048,179,167,163,159,157,5197,17697,394,164,161,154,153,156,899,3666,186,161,160,158,157,154,936,3348,191,163,165,165,163,162,175,201,33980,30314,19417,15278,390,182,179,184,21925,14722,7663,5765,257,184,3086,10561,27463,34842,34734,32190,31525,14061,1765,4525,22911,21026,31846,31196,30328,15977
20452,55728,1039,177,162,162,156,155,5187,17594,393,159,158,157,158,157,887,3611,185,162,154,153,154,152,925,3303,187,165,166,167,163,162,178,199,33568,29832,19279,15131,387,181,182,185,21680,14475,7583,5682,249,187,3053,10360,27389,34631,34615,32018,31483,14035,1744,4429,22822,20889,31714,30989,30283,15951
20510,55922,1031,175,162,162,159,157,5180,17594,390,159,154,152,157,159,887,3607,185,156,154,156,156,154,925,3308,186,165,165,165,161,160,173,199,33557,29834,19261,15120,387,181,175,183,21675,14475,7589,5695,255,187,3047,10338,27379,34611,34616,32047,31474,14033,1743,4432,22827,20891,31725,31008,30284,15943
20641,56371,1047,175,164,162,158,160,5185,17609,394,166,155,157,157,157,887,3625,185,160,159,156,152,158,925,3315,188,165,165,167,165,159,174,201,33650,29963,19285,15159,387,185,179,184,21712,14524,7610,5717,254,188,3052,10371,27386,34656,34652,32105,31479,14046,1748,4448,22833,20910,31742,31071,30284,15958
20761,56769,1043,177,162,162,159,160,5183,17635,391,162,155,160,155,155,889,3641,185,158,156,157,155,154,927,3325,188,168,165,168,167,164,175,200,33740,30043,19322,15192,391,183,178,185,21751,14571,7630,5738,255,186,3060,10415,27403,34699,34666,32134,31483,14051,1751,4467,22855,20943,31785,31122,30286,15960
20797,56774,1053,179,166,159,155,159,5185,17621,397,162,158,157,157,148,894,3641,186,158,155,158,153,158,931,3328,188,170,169,165,163,159,175,200,33717,30011,19323,15189,389,183,181,185,21743,14557,7628,5737,256,188,3059,10406,27397,34695,34664,32134,31488,14049,1752,4467,22858,20942,31779,31115,30284,15957
20812,56875,1044,180,164,162,156,157,5179,17611,391,165,159,159,160,152,892,3646,186,163,156,161,157,159,929,3327,187,165,169,165,165,161,173,201,33743,30072,19327,15211,390,181,177,185,21765,14593,7643,5755,259,188,3060,10423,27415,34735,34686,32181,31494,14062,1752,4473,22881,20974,31797,31159,30289,15968
20882,57161,1061,176,165,160,159,155,5178,17626,393,161,159,155,154,157,893,3655,187,156,156,161,159,151,929,3335,188,164,169,165,163,161,174,201,33827,30226,19357,15255,392,180,182,188,21845,14670,7671,5794,258,188,3069,10475,27451,34836,34687,32226,31511,14077,1754,4489,22920,21038,31865,31267,30305,15991
20975,57521,1054,176,163,159,160,158,5178,17649,393,162,153,157,156,155,894,3668,186,155,157,160,155,158,928,3346,187,165,166,164,164,161,178,201,33954,30380,19404,15316,390,181,183,185,21936,14763,7710,5838,262,190,3078,10531,27527,34946,34683,32271,31533,14098,1762,4511,22981,21113,31943,31382,30323,16009
21067,57869,1069,177,163,159,157,160,5182,17695,395,159,161,154,158,154,897,3685,181,162,158,155,155,158,932,3360,188,166,164,165,166,159,175,199,34091,30566,19535,15448,393,184,181,187,22006,14845,7769,5901,259,188,3087,10591,27560,35037,34774,32416,31576,14127,1763,4533,22984,21149,31966,31465,30343,16031
21130,58159,1064,177,166,159,159,157,5195,17750,394,160,162,155,154,155,898,3702,185,156,159,165,157,158,933,3373,187,167,165,167,163,160,177,203,34222,30720,19567,15480,394,183,181,185,22087,14927,7807,5935,260,191,3094,10649,27614,35140,34832,32475,31598,14136,1768,4555,23029,21212,32006,31545,30376,16052
20914,56925,1054,177,163,160,157,156,5192,17677,395,162,158,158,158,151,895,3657,182,154,155,152,156,158,931,3346,189,166,167,165,167,163,176,203,33979,30353,19542,15381,391,182,179,185,21973,14750,7741,5819,259,190,3087,10559,27572,35007,34703,32223,31537,14080,1765,4513,23001,21118,31869,31217,30332,15990
20426,55666,1026,181,165,163,158,156,5172,17557,391,164,160,161,160,163,885,3605,190,162,156,151,158,155,923,3303,187,163,169,164,166,160,174,202,33567,29879,19394,15229,389,180,178,185,21741,14516,7669,5742,259,187,3055,10363,27493,34799,34596,32073,31507,14055,1743,4422,22943,21013,31763,31034,30301,15963
20497,55885,1040,178,162,159,159,157,5166,17538,395,161,162,157,164,159,885,3606,188,159,158,158,156,155,923,3302,187,167,165,165,164,160,174,200,33548,29868,19393,15233,388,180,182,189,21737,14520,7672,5752,257,187,3050,10347,27465,34758,34602,32093,31511,14063,1742,4423,22941,21012,31779,31067,30288,15955
20634,56309,1037,177,163,159,160,155,5155,17518,389,162,156,155,156,161,886,3615,185,165,157,152,156,153,925,3307,189,169,164,167,166,162,174,204,33646,29987,19463,15310,392,182,178,184,21770,14555,7702,5789,256,188,3055,10374,27452,34761,34687,32223,31549,14085,1745,4433,22959,21029,31785,31097,30289,15962
20736,56688,1051,175,158,159,159,156,5154,17515,391,161,158,165,164,154,883,3631,184,156,155,157,154,155,923,3320,188,165,165,164,164,160,175,200,33767,30103,19611,15418,391,181,180,186,21816,14609,7749,5825,257,189,3063,10422,27476,34826,34738,32279,31573,14092,1748,4455,22979,21064,31834,31167,30294,15967
20779,56694,1042,177,164,160,156,156,5148,17493,387,163,158,157,160,160,890,3629,187,157,153,155,156,151,925,3313,188,169,165,163,164,161,175,201,33745,30067,19578,15382,391,181,179,186,21821,14604,7743,5819,262,189,3061,10422,27479,34827,34740,32275,31571,14097,1749,4453,22985,21067,31821,31144,30291,15961
20783,56750,1054,177,163,159,157,159,5148,17506,395,161,158,159,160,155,888,3634,186,158,159,155,156,160,923,3315,188,168,166,164,165,158,175,202,33765,30120,19523,15351,390,185,180,189,21852,14633,7750,5824,258,189,3065,10434,27509,34871,34712,32273,31574,14099,1750,4457,23017,21111,31828,31163,30302,15975
20839,57015,1047,179,167,161,157,159,5148,17524,391,165,158,158,156,161,894,3646,183,165,157,155,154,155,925,3323,187,165,168,168,163,164,174,199,33855,30257,19516,15379,391,185,179,184,21893,14690,7763,5855,258,189,3070,10472,27503,34929,34699,32314,31596,14120,1753,4477,23060,21166,31869,31248,30314,15989
20942,57381,1061,177,164,159,157,157,5153,17559,392,163,159,156,158,158,890,3663,187,155,156,153,156,155,925,3332,192,165,164,165,164,162,175,202,33973,30427,19515,15404,393,181,179,185,21945,14756,7763,5865,260,183,3079,10527,27490,34943,34735,32387,31620,14138,1756,4497,23059,21175,31857,31287,30328,16006
21029,57754,1056,177,166,160,158,158,5165,17618,391,163,162,155,152,151,895,3679,187,162,162,156,152,157,928,3343,187,164,168,163,166,162,177,202,34169,30665,19682,15575,398,182,183,185,21998,14823,7799,5916,259,191,3087,10589,27500,35015,34874,32579,31691,14175,1762,4516,23024,21170,31886,31388,30337,16029
21118,58097,1071,180,167,158,159,159,5179,17695,395,161,156,163,156,155,896,3699,187,158,157,156,150,155,929,3352,191,169,169,164,164,159,174,203,34383,30927,19915,15763,398,185,182,186,22068,14909,7863,5985,260,191,3099,10664,27557,35137,35083,32821,31766,14210,1761,4534,23008,21187,31933,31483,30351,16044
21061,57430,1052,176,164,161,159,159,5191,17693,392,161,158,158,159,155,900,3670,187,158,156,159,157,156,930,3340,188,166,166,165,164,161,175,203,34331,30750,19956,15738,397,183,180,186,22023,14805,7835,5907,260,189,3101,10631,27540,35068,35103,32708,31743,14169,1764,4522,22941,21085,31795,31203,30320,15997
20486,55731,1040,176,163,160,156,155,5187,17599,395,162,154,160,156,155,888,3607,185,157,161,155,156,154,922,3293,186,167,165,163,163,161,177,202,33846,30178,19785,15522,393,181,179,184,21752,14517,7755,5809,255,184,3066,10411,27539,34929,34978,32495,31703,14141,1742,4415,22873,20963,31662,30974,30291,15965
20528,55838,1029,176,163,161,157,155,5183,17588,390,160,154,158,159,158,884,3603,189,160,153,154,150,150,924,3301,186,165,165,169,163,159,174,202,33686,30023,19510,15307,390,180,178,185,21759,14530,7685,5750,258,189,3059,10364,27532,34896,34840,32368,31658,14117,1743,4417,22914,21000,31681,30953,30301,15963
20651,56200,1044,176,163,159,160,156,5186,17618,393,160,155,159,155,151,890,3617,185,156,157,159,152,155,926,3317,188,164,165,165,163,162,178,201,33677,30053,19358,15216,390,181,180,185,21785,14557,7652,5731,251,193,3058,10365,27498,34887,34697,32269,31628,14113,1749,4436,22899,20994,31663,30972,30309,15966
20734,56510,1038,175,163,161,158,158,5188,17642,395,162,155,158,155,154,890,3627,185,157,157,155,153,154,931,3337,190,165,165,167,163,164,175,200,33785,30182,19308,15211,388,183,181,185,21837,14623,7631,5734,255,188,3064,10401,27440,34851,34615,32231,31623,14116,1756,4464,22893,21010,31690,31025,30309,15970
20817,56647,1051,178,163,158,159,155,5181,17599,396,161,157,159,154,156,895,3629,187,159,150,157,159,151,933,3341,187,167,165,164,162,160,175,201,33743,30126,19336,15217,392,179,179,185,21857,14636,7647,5737,259,189,3067,10407,27475,34871,34598,32208,31622,14113,1755,4465,22933,21061,31753,31068,30322,15977
20811,56647,1040,178,163,158,159,159,5152,17503,389,163,158,156,152,154,889,3629,185,157,159,156,165,156,932,3339,185,168,164,165,163,164,175,203,33661,30066,19177,15094,387,184,179,188,21892,14664,7611,5710,255,189,3071,10412,27461,34887,34515,32150,31601,14110,1758,4466,23013,21138,31791,31092,30340,15982
20863,56867,1055,177,165,160,157,159,5149,17509,394,165,156,156,157,155,893,3638,189,159,173,150,154,155,935,3345,187,163,165,166,166,160,172,202,33677,30151,19122,15082,387,183,184,191,21923,14713,7623,5735,259,187,3073,10445,27485,34945,34422,32114,31578,14113,1763,4485,23062,21203,31819,31158,30334,15989
20943,57193,1049,175,163,163,159,158,5146,17523,391,165,157,161,153,152,893,3649,189,160,160,162,156,159,932,3355,188,164,164,164,164,161,177,199,33771,30284,19143,15119,389,182,183,185,21983,14783,7641,5763,258,193,3082,10491,27508,35006,34415,32163,31593,14125,1767,4504,23089,21239,31862,31241,30340,16005
21029,57528,1063,177,166,159,158,158,5145,17559,393,163,159,161,158,159,895,3666,191,156,156,157,155,154,934,3367,189,167,166,162,167,160,174,202,33876,30452,19189,15181,389,182,179,185,22050,14858,7657,5794,262,189,3086,10546,27511,35065,34445,32239,31617,14148,1767,4523,23081,21263,31896,31331,30354,16022
21107,57862,1059,176,163,162,158,159,5160,17627,393,159,158,161,159,154,895,3681,185,157,157,157,155,153,936,3379,187,165,165,164,164,165,179,203,34035,30663,19295,15296,391,184,183,186,22130,14951,7689,5838,260,189,3097,10615,27539,35154,34530,32372,31660,14178,1771,4544,23081,21298,31943,31434,30375,16045
21190,57950,1069,177,165,159,159,157,5174,17680,395,162,158,157,156,159,899,3684,181,157,168,149,155,155,940,3385,191,167,166,165,164,160,175,203,34085,30665,19359,15313,392,182,179,186,22153,14949,7687,5807,259,189,3104,10645,27535,35151,34543,32320,31651,14145,1771,4560,23057,21268,31927,31343,30370,16018
20581,55879,1030,177,166,160,158,159,5171,17579,392,162,162,157,157,155,889,3614,184,159,160,159,158,155,931,3331,187,164,165,163,165,162,174,202,33666,30123,19179,15112,386,183,181,184,21923,14663,7567,5671,259,188,3076,10428,27461,34931,34368,32041,31575,14096,1758,4457,22979,21110,31727,31001,30316,15967
20541,55781,1038,176,164,160,158,155,5173,17573,393,164,161,157,159,156,887,3607,184,161,160,154,155,154,932,3332,189,165,165,164,164,160,174,199,33555,30000,19121,15064,387,179,179,186,21852,14613,7561,5667,257,187,3060,10359,27447,34897,34333,32028,31555,14089,1750,4442,22974,21102,31710,30991,30311,15970
20647,56141,1034,176,166,159,159,160,5175,17584,389,162,160,156,152,155,887,3615,185,160,160,152,157,155,932,3338,188,164,164,164,162,163,175,203,33628,30089,19099,15060,386,184,180,185,21883,14647,7566,5676,255,189,3066,10374,27453,34924,34312,32040,31547,14095,1756,4454,22999,21129,31739,31039,30313,15970
20747,56523,1049,179,165,160,160,160,5171,17602,397,160,158,155,156,153,891,3628,186,158,157,159,154,160,933,3347,188,169,169,165,163,161,175,199,33716,30202,19107,15087,388,182,179,185,21940,14711,7579,5700,257,190,3069,10422,27459,34967,34308,32054,31539,14093,1762,4479,23034,21183,31783,31115,30323,15982
20852,56713,1041,175,164,161,157,155,5167,17582,390,159,159,155,156,154,895,3635,185,154,155,153,154,153,935,3351,187,166,167,163,165,161,173,200,33683,30150,19095,15073,389,181,178,185,21950,14716,7579,5692,257,187,3072,10423,27456,34958,34284,32024,31531,14092,1763,4483,23057,21197,31797,31116,30311,15974
20846,56699,1050,178,165,161,157,157,5165,17582,394,161,158,159,152,159,892,3635,186,157,157,159,156,156,933,3349,187,168,169,165,166,160,174,201,33659,30155,19079,15067,387,182,180,185,21955,14725,7579,5699,257,189,3074,10423,27461,34987,34258,32036,31518,14091,1762,4483,23066,21211,31815,31143,30308,15983
20895,56910,1046,177,163,157,159,158,5171,17623,391,166,156,154,159,156,893,3643,184,160,164,153,156,153,935,3356,187,165,164,165,165,163,174,200,33766,30298,19124,15129,388,181,179,185,21991,14773,7603,5731,258,187,3076,10456,27465,35025,34289,32106,31528,14107,1764,4497,23067,21230,31834,31203,30320,15993
20971,57239,1058,178,164,160,156,156,5175,17651,396,165,155,159,155,155,895,3660,187,158,159,158,154,143,935,3368,188,166,167,164,164,164,174,201,33853,30421,19185,15186,390,181,180,189,22049,14839,7629,5760,257,189,3082,10511,27499,35108,34338,32177,31551,14123,1770,4516,23101,21288,31900,31303,30341,16010
21056,57543,1054,178,163,158,159,157,5171,17667,394,159,158,153,158,155,897,3671,187,161,147,153,155,159,936,3379,193,164,164,167,161,162,175,201,33905,30510,19170,15197,387,182,180,187,22117,14911,7638,5778,258,189,3091,10561,27533,35205,34333,32211,31555,14133,1769,4537,23170,21370,31977,31415,30373,16035
21117,57821,1067,177,162,161,157,157,5169,17683,395,166,158,159,158,153,901,3686,185,158,155,156,155,144,937,3390,189,164,165,163,163,164,179,206,33944,30599,19138,15205,390,181,181,187,22176,14982,7647,5794,257,189,3100,10613,27577,35303,34295,32215,31552,14137,1774,4558,23259,21475,32059,31523,30393,16049
21135,57589,1053,178,163,161,159,155,5166,17665,393,162,157,156,157,157,900,3675,184,159,153,155,155,158,940,3387,189,165,167,165,163,160,174,202,33891,30475,19143,15174,388,180,179,186,22153,14924,7618,5738,257,188,3102,10604,27551,35239,34208,32061,31497,14089,1776,4559,23262,21433,32028,31368,30366,16004
20521,55659,1035,176,163,162,158,157,5146,17509,392,166,158,161,155,159,887,3606,185,157,156,155,153,149,927,3326,188,162,168,169,164,161,173,203,33445,29922,19015,15013,385,181,178,184,21897,14635,7529,5632,255,187,3070,10392,27450,34997,34083,31851,31447,14052,1757,4448,23189,21294,31875,31097,30318,15962
20511,55688,1028,176,166,162,159,159,5126,17416,389,162,161,160,154,155,886,3602,184,157,158,158,158,154,925,3320,187,154,165,167,163,164,175,200,33347,29819,19018,15031,384,181,178,188,21831,14577,7546,5648,257,187,3059,10326,27478,35025,34082,31867,31395,14035,1745,4424,23277,21358,31875,31094,30281,15943
20643,56104,1042,176,163,163,159,157,5109,17361,389,162,161,153,155,156,888,3610,190,155,157,156,164,149,924,3319,188,166,165,164,163,164,178,201,33420,29893,19161,15151,389,181,179,184,21825,14573,7589,5685,255,187,3055,10327,27547,35135,34123,31943,31366,14027,1741,4407,23359,21403,31924,31143,30251,15939
20761,56507,1042,175,163,160,158,157,5105,17381,388,160,159,157,156,155,889,3623,184,156,159,153,160,159,925,3325,189,168,165,176,169,160,172,204,33560,30037,19225,15207,389,181,178,189,21851,14619,7617,5711,255,188,3054,10343,27558,35170,34174,31999,31370,14031,1738,4419,23329,21391,31928,31199,30246,15945
20846,56651,1050,177,164,160,157,156,5113,17408,391,162,157,158,156,155,890,3627,186,158,161,160,158,154,927,3330,189,167,166,165,165,165,174,201,33587,30065,19217,15199,388,181,180,185,21854,14622,7603,5701,256,189,3059,10360,27513,35119,34172,32001,31390,14043,1744,4433,23265,21336,31906,31189,30239,15941
20835,56691,1042,177,163,163,158,158,5122,17451,389,161,158,159,154,155,889,3634,184,153,157,160,155,154,923,3333,189,165,165,159,163,162,173,201,33625,30127,19195,15185,389,183,179,186,21889,14667,7602,5707,255,189,3063,10387,27482,35101,34184,32045,31418,14060,1750,4453,23201,21308,31915,31217,30245,15951
20879,56922,1055,177,163,161,159,155,5140,17545,396,159,155,156,159,156,892,3648,186,159,160,159,155,151,925,3343,188,164,165,167,166,159,178,201,33736,30302,19194,15211,389,181,180,185,21929,14724,7609,5727,257,188,3071,10442,27461,35127,34214,32110,31438,14077,1755,4481,23177,21314,31905,31267,30264,15971
20983,57322,1049,177,163,160,160,159,5154,17612,392,160,159,157,156,155,896,3663,186,156,156,154,161,153,928,3355,187,161,170,168,166,164,175,202,33865,30460,19260,15284,393,184,180,185,21985,14799,7641,5775,257,187,3081,10506,27499,35224,34257,32202,31479,14102,1761,4507,23192,21356,31958,31374,30293,15995
21087,57700,1067,177,163,159,157,159,5156,17644,396,165,156,156,153,154,898,3681,187,162,165,160,169,157,931,3368,187,164,165,165,165,161,176,202,33949,30603,19271,15307,394,182,179,185,22057,14881,7674,5813,259,192,3089,10569,27532,35316,34305,32289,31505,14127,1765,4528,23229,21420,32005,31461,30316,16023
21159,58015,1061,177,163,163,161,158,5167,17696,392,162,158,160,156,155,900,3697,187,158,159,158,155,152,934,3381,188,164,163,166,165,164,177,203,34049,30746,19306,15365,393,186,180,186,22127,14960,7709,5855,258,188,3099,10629,27575,35421,34327,32347,31526,14145,1769,4555,23266,21485,32058,31573,30343,16048
21111,57399,1060,179,163,159,158,157,5170,17669,394,161,162,160,159,155,898,3678,186,157,160,159,155,151,933,3373,190,169,164,163,165,152,174,207,33929,30525,19255,15259,390,181,181,186,22067,14847,7652,5755,257,187,3098,10587,27535,35301,34248,32149,31487,14087,1771,4544,23234,21403,31937,31293,30320,15998
20508,55713,1027,178,162,159,156,157,5164,17581,392,164,154,153,156,155,888,3615,187,159,154,155,154,150,925,3324,192,167,164,164,165,165,175,199,33543,30044,19105,15100,388,181,179,183,21826,14585,7540,5645,256,187,3066,10371,27415,35034,34126,31974,31454,14065,1754,4444,23122,21233,31767,31041,30287,15969
20538,55850,1038,177,164,163,159,156,5154,17552,394,159,158,157,156,155,888,3611,185,159,154,146,154,152,921,3323,190,166,169,168,167,163,174,200,33554,30055,19196,15182,388,183,178,184,21851,14617,7540,5651,256,188,3056,10349,27238,34857,34267,32133,31502,14083,1749,4436,23151,21273,31821,31103,30298,15971
20683,56286,1035,181,162,159,156,155,5139,17529,394,165,157,157,158,154,889,3625,185,155,157,155,159,153,917,3317,189,165,168,164,165,161,174,201,33647,30173,19231,15207,387,181,179,185,21894,14658,7568,5681,258,187,3064,10386,27266,34916,34384,32255,31532,14102,1751,4447,23155,21273,31814,31113,30294,15978
20773,56609,1049,175,163,160,157,156,5159,17613,395,162,155,152,156,160,892,3640,185,157,165,155,152,155,928,3328,183,170,165,164,163,154,174,201,33721,30251,19208,15208,389,182,178,184,21906,14689,7588,5708,257,187,3071,10426,27357,35036,34347,32229,31526,14105,1754,4474,23113,21258,31825,31168,30294,15984
20847,56734,1042,176,165,161,160,155,5165,17622,391,161,162,158,156,158,895,3643,184,158,158,156,156,156,923,3338,188,163,166,167,167,157,175,200,33686,30211,19224,15213,389,180,178,184,21909,14685,7606,5717,255,188,3075,10438,27374,35049,34343,32231,31525,14109,1760,4483,23115,21266,31827,31159,30300,15985
20846,56779,1052,176,163,160,157,157,5167,17630,395,162,159,157,157,151,895,3651,186,156,155,154,155,156,925,3341,187,167,159,166,162,163,174,205,33745,30299,19219,15221,390,181,179,184,21887,14679,7625,5734,259,190,3072,10440,27369,35061,34390,32301,31539,14118,1757,4488,23123,21286,31778,31149,30315,15997
20907,57055,1046,177,163,158,157,159,5161,17625,391,162,158,155,155,155,899,3663,186,157,157,153,153,155,929,3351,187,169,165,167,164,156,176,200,33843,30444,19217,15244,389,181,177,183,21930,14737,7631,5753,256,187,3078,10484,27361,35103,34406,32359,31564,14139,1762,4506,23151,21332,31809,31215,30332,16019
20996,57413,1063,176,166,159,159,157,5171,17679,396,152,158,153,156,160,898,3680,186,155,157,157,153,154,929,3361,187,165,171,163,167,160,175,202,33946,30604,19295,15329,391,179,179,187,21991,14811,7673,5802,257,187,3087,10545,27401,35207,34437,32431,31592,14164,1765,4529,23154,21363,31857,31319,30354,16041
21096,57767,1056,177,165,160,159,157,5190,17775,398,162,161,157,154,152,901,3697,187,158,156,156,159,154,929,3369,191,165,169,164,164,163,179,201,34033,30741,19314,15370,391,180,183,184,22068,14895,7704,5839,258,188,3099,10601,27464,35327,34471,32500,31614,14181,1770,4549,23186,21419,31919,31430,30381,16068
21175,58075,1070,178,163,158,159,156,5202,17835,394,158,164,160,156,156,902,3719,187,161,155,158,155,153,932,3386,190,165,174,158,160,162,175,202,34127,30894,19325,15395,394,181,182,187,22123,14962,7735,5878,257,188,3105,10659,27507,35423,34506,32583,31639,14201,1770,4572,23230,21486,31955,31511,30415,16095
21216,57956,1059,178,162,159,158,156,5207,17830,394,165,155,156,156,152,905,3713,185,159,154,157,159,155,936,3393,188,167,167,166,153,160,175,206,34094,30789,19315,15357,391,181,180,187,22105,14910,7709,5818,258,189,3108,10655,27482,35363,34482,32468,31611,14159,1777,4582,23220,21452,31879,31329,30407,16061
20599,56006,1042,177,164,158,157,159,5194,17693,399,161,162,160,157,154,894,3644,186,158,157,158,155,159,926,3338,189,158,165,159,168,161,178,204,33659,30231,19179,15184,389,181,178,184,21857,14628,7594,5694,258,189,3077,10445,27381,35115,34335,32241,31578,14129,1757,4475,23119,21286,31728,31066,30367,16022
20598,56019,1031,176,164,159,155,157,5192,17711,393,160,158,156,160,155,891,3637,186,156,156,157,158,151,924,3332,187,167,165,164,172,162,175,201,33590,30174,19180,15196,389,182,181,187,21833,14609,7613,5714,257,186,3069,10396,27378,35100,34348,32278,31576,14133,1751,4463,23109,21278,31721,31071,30370,16025
20714,56383,1049,176,166,158,160,158,5195,17732,396,165,159,161,155,159,893,3645,186,162,156,155,159,155,927,3346,187,161,167,162,162,159,175,201,33668,30269,19194,15210,391,181,179,187,21852,14637,7631,5729,255,187,3071,10419,27391,35127,34399,32351,31589,14144,1753,4479,23119,21300,31745,31115,30378,16035
20797,56715,1043,175,164,160,157,160,5186,17719,394,161,160,156,160,155,897,3655,179,159,155,155,159,155,930,3359,190,165,170,165,168,165,170,203,33788,30414,19252,15280,390,183,178,183,21903,14705,7641,5748,258,187,3078,10464,27392,35179,34419,32399,31623,14164,1757,4501,23151,21349,31818,31235,30394,16046
20916,57030,1056,177,163,162,157,155,5169,17662,397,163,161,157,155,156,895,3659,188,156,157,156,156,151,931,3368,189,166,165,167,167,161,174,202,33788,30413,19328,15353,392,181,183,184,21954,14748,7639,5753,260,190,3089,10501,27367,35157,34443,32449,31671,14180,1763,4518,23161,21362,31907,31324,30399,16050
20951,57147,1047,178,165,162,156,156,5158,17653,393,165,160,158,158,152,893,3657,186,160,158,159,159,157,929,3361,188,166,171,172,174,160,171,202,33835,30486,19409,15420,393,182,179,185,22010,14799,7661,5775,260,192,3092,10529,27407,35222,34495,32534,31703,14198,1763,4518,23157,21369,31941,31363,30399,16065
21004,57345,1061,173,162,159,158,155,5170,17732,395,167,158,160,158,155,895,3672,187,158,155,156,156,152,926,3363,192,164,166,163,167,161,176,202,33911,30615,19441,15452,394,181,181,186,22059,14865,7703,5815,261,188,3100,10573,27468,35355,34527,32591,31710,14210,1765,4535,23157,21398,31970,31444,30409,16080
21071,57614,1054,175,166,159,157,156,5188,17809,398,162,159,153,156,155,897,3686,187,157,160,154,153,151,930,3379,190,163,166,179,164,161,176,207,34001,30754,19411,15458,395,183,179,189,22113,14923,7724,5844,258,189,3108,10619,27516,35454,34531,32643,31715,14223,1770,4558,23167,21436,31969,31478,30439,16101
21153,57941,1071,180,162,160,157,156,5205,17867,401,162,162,154,155,155,901,3702,187,158,157,157,152,155,935,3401,188,168,164,165,165,159,178,204,34093,30901,19423,15500,394,184,181,185,22169,15001,7725,5857,258,190,3113,10673,27545,35530,34537,32697,31760,14252,1774,4582,23185,21484,32061,31635,30471,16127
21239,58269,1066,178,168,159,159,157,5195,17879,396,165,162,155,155,151,902,3712,186,159,161,153,155,157,938,3417,191,165,166,165,168,160,175,205,34145,31025,19425,15535,400,183,179,190,22292,15126,7728,5881,260,192,3127,10744,27572,35628,34507,32718,31786,14273,1778,4605,23236,21555,32171,31789,30501,16155
21343,58509,1077,180,166,160,158,161,5201,17905,400,162,158,160,151,151,903,3715,189,158,157,158,157,157,939,3429,189,169,169,163,164,162,177,213,34119,30978,19453,15530,396,181,181,187,22353,15155,7733,5862,261,192,3135,10799,27604,35663,34457,32629,31769,14243,1784,4627,23269,21601,32230,31763,30520,16141
20746,56393,1038,175,163,159,156,158,5187,17753,393,162,158,156,157,156,892,3646,185,158,157,156,160,154,936,3371,178,164,159,165,164,163,175,205,33663,30373,19197,15260,387,185,181,189,22121,14858,7597,5705,260,189,3111,10576,27503,35411,34267,32317,31694,14191,1770,4531,23229,21479,32020,31389,30492,16101
20658,56175,1044,178,163,160,158,161,5174,17685,394,172,158,157,154,155,890,3630,185,156,156,156,156,156,931,3365,189,166,167,167,167,167,178,200,33487,30196,19086,15170,389,185,180,187,22020,14782,7583,5698,259,188,3091,10495,27453,35313,34251,32324,31669,14188,1760,4505,23239,21477,31970,31346,30476,16098
20722,56453,1036,180,164,160,158,155,5145,17606,391,167,162,157,159,153,891,3643,184,163,160,155,158,156,931,3378,188,165,161,167,165,161,174,201,33578,30305,19041,15150,389,181,179,185,22033,14803,7595,5714,259,191,3095,10513,27434,35325,34261,32353,31651,14190,1764,4518,23251,21501,31960,31361,30483,16111
20803,56799,1053,179,164,162,157,152,5155,17670,394,161,159,157,158,153,894,3665,186,159,160,155,154,156,932,3388,194,169,166,165,163,168,176,200,33789,30552,19083,15227,389,181,178,185,22049,14842,7615,5739,256,187,3099,10555,27399,35325,34308,32433,31649,14195,1765,4544,23217,21478,31897,31359,30489,16113
20988,57283,1049,177,162,163,157,158,5176,17733,393,165,157,161,157,155,898,3678,186,163,156,159,159,154,938,3397,188,165,167,165,165,162,175,203,33833,30563,19257,15354,388,184,178,185,22090,14882,7645,5771,258,187,3099,10576,27410,35362,34383,32512,31681,14204,1769,4556,23197,21484,32011,31470,30485,16118
20989,57275,1059,179,163,164,157,158,5184,17765,396,162,157,160,159,155,897,3680,185,159,153,155,155,157,936,3393,189,167,167,167,162,158,176,202,33886,30629,19236,15345,392,186,179,186,22087,14887,7633,5763,257,188,3100,10573,27370,35339,34463,32610,31719,14223,1770,4559,23198,21491,31979,31486,30491,16125
21018,57476,1052,177,164,164,158,157,5178,17778,398,162,158,159,155,155,897,3690,187,158,157,159,155,158,933,3393,191,163,163,165,166,157,177,204,33976,30781,19304,15423,395,180,182,189,22143,14948,7682,5814,259,188,3107,10625,27413,35441,34515,32698,31740,14241,1773,4572,23232,21548,32017,31565,30507,16148
21103,57797,1067,178,163,160,153,155,5196,17859,401,162,155,152,153,156,899,3708,187,158,159,158,158,152,936,3403,188,166,169,165,164,163,175,204,34052,30916,19316,15455,395,182,183,188,22199,15021,7720,5856,259,189,3118,10686,27489,35571,34515,32730,31743,14253,1773,4593,23284,21617,32079,31664,30534,16168
21205,58164,1063,181,163,160,161,156,5213,17925,392,165,159,155,156,155,902,3727,186,163,153,153,155,151,937,3420,189,165,169,168,164,165,178,205,34135,31059,19344,15503,396,183,180,189,22252,15088,7757,5900,258,189,3127,10744,27537,35675,34535,32805,31771,14279,1780,4617,23318,21677,32143,31785,30557,16195
21287,58489,1079,177,163,160,164,156,5213,17959,399,163,162,161,155,152,905,3741,187,157,156,155,154,155,939,3431,188,166,169,166,163,164,177,205,34191,31173,19345,15523,395,182,179,186,22324,15173,7781,5926,260,190,3132,10809,27583,35779,34545,32849,31791,14289,1783,4641,23363,21745,32225,31898,30583,16213
21257,57939,1060,177,165,160,159,157,5222,17952,395,162,159,157,152,155,903,3719,185,159,159,155,157,155,941,3426,193,165,165,165,164,167,179,207,34031,30890,19306,15434,394,185,181,187,22267,15062,7732,5841,259,189,3135,10766,27563,35693,34424,32625,31731,14236,1788,4634,23341,21683,32149,31679,30561,16170
20683,56267,1043,177,164,159,159,159,5213,17848,397,162,154,158,156,154,894,3661,186,158,159,159,156,158,936,3382,188,176,166,163,161,163,177,198,33606,30374,19155,15270,389,183,179,188,22016,14789,7652,5753,256,191,3102,10558,27494,35481,34302,32439,31685,14206,1764,4532,23260,21543,32003,31449,30529,16145
20703,56351,1037,177,163,158,159,159,5212,17845,395,165,159,156,154,157,890,3657,186,157,160,156,152,156,931,3382,190,167,166,163,164,162,177,202,33582,30347,19120,15245,389,183,179,183,22000,14790,7651,5750,257,187,3098,10528,27468,35447,34292,32446,31679,14206,1765,4531,23263,21554,32010,31466,30533,16146
20813,56731,1051,180,162,160,158,159,5208,17858,398,161,162,160,155,155,893,3666,184,158,157,156,154,157,932,3391,182,155,166,166,164,162,175,202,33662,30467,19133,15279,391,183,177,185,22030,14833,7661,5774,258,191,3096,10551,27453,35456,34309,32506,31685,14217,1769,4548,23267,21576,32044,31534,30533,16155
20903,57109,1048,176,163,158,159,164,5214,17898,396,163,158,157,157,155,895,3679,184,157,157,157,159,154,933,3401,191,165,167,165,165,164,178,200,33788,30598,19194,15345,391,186,180,184,22089,14895,7683,5799,259,187,3107,10607,27456,35493,34344,32559,31695,14225,1771,4563,23275,21595,32088,31607,30546,16162
21019,57350,1061,177,164,160,158,156,5215,17913,401,161,158,160,158,151,899,3689,187,156,155,159,149,155,936,3411,188,166,166,160,164,164,175,202,33770,30575,19204,15347,392,180,179,185,22097,14899,7683,5801,258,189,3108,10607,27445,35480,34359,32571,31703,14226,1773,4582,23273,21605,32105,31633,30543,16166
21032,57413,1053,176,165,157,165,151,5214,17909,395,162,159,155,159,155,900,3693,185,158,155,155,156,151,936,3411,188,167,170,163,162,162,172,199,33804,30641,19215,15371,391,181,179,186,22109,14925,7701,5818,258,188,3107,10625,27455,35519,34377,32627,31711,14238,1775,4583,23288,21631,32135,31689,30554,16178
21077,57627,1065,177,169,160,156,157,5213,17926,399,159,157,158,153,158,899,3704,186,160,155,156,156,154,938,3420,190,166,167,183,166,161,177,203,33865,30759,19230,15406,394,179,180,189,22164,14992,7719,5845,260,188,3114,10673,27467,35567,34395,32676,31726,14255,1775,4600,23305,21671,32174,31769,30566,16195
21153,57972,1061,180,164,157,157,155,5217,17962,401,165,158,156,156,157,901,3719,185,161,156,155,153,158,938,3432,190,166,164,166,166,161,179,207,33963,30913,19268,15464,394,180,183,190,22230,15066,7748,5883,260,189,3123,10727,27488,35639,34429,32758,31754,14274,1781,4618,23338,21726,32231,31878,30590,16217
21255,58339,1075,177,161,163,157,158,5220,17992,399,160,158,157,156,154,903,3734,186,162,157,155,155,156,939,3442,189,166,170,168,168,159,177,206,34066,31071,19316,15531,396,184,180,187,22288,15148,7774,5921,263,189,3131,10793,27513,35726,34471,32845,31780,14297,1785,4644,23373,21788,32292,31986,30609,16238
21343,58686,1071,177,163,160,153,158,5225,18034,399,162,158,156,157,155,905,3751,186,159,157,155,157,152,940,3453,188,170,164,164,164,162,179,204,34179,31227,19348,15572,395,183,183,187,22365,15225,7797,5951,261,191,3142,10857,27537,35798,34522,32909,31799,14302,1789,4665,23394,21833,32346,32079,30632,16255
21146,57526,1062,177,163,160,159,160,5225,17972,399,166,160,160,159,153,902,3712,186,159,160,159,155,157,941,3428,193,165,165,165,164,163,176,203,33941,30827,19299,15452,391,182,181,186,22254,15047,7725,5831,259,191,3132,10756,27489,35640,34405,32657,31745,14244,1789,4635,23341,21719,32220,31773,30588,16199
20675,56294,1035,179,163,160,156,159,5216,17888,397,166,158,156,160,155,891,3661,188,161,157,155,156,153,931,3387,189,165,165,165,165,161,176,202,33567,30367,19165,15315,392,182,183,185,22044,14831,7657,5763,257,189,3101,10567,27428,35450,34314,32527,31711,14221,1768,4549,23273,21607,32125,31623,30567,16179
20714,56451,1050,176,164,159,161,160,5210,17889,399,166,159,153,156,150,892,3662,185,158,155,159,158,156,930,3391,189,163,166,166,163,164,172,200,33565,30393,19155,15315,393,182,179,186,22050,14843,7668,5778,256,192,3097,10557,27412,35419,34314,32543,31699,14221,1769,4555,23268,21612,32140,31658,30561,16181
20835,56845,1044,180,169,159,158,155,5214,17915,396,165,158,156,155,159,891,3672,186,159,156,155,155,155,934,3403,189,168,167,165,165,161,178,203,33650,30509,19177,15350,389,182,181,185,22091,14902,7686,5802,257,188,3104,10589,27410,35437,34325,32595,31705,14231,1772,4572,23276,21635,32179,31735,30571,16190
20944,57240,1058,177,166,158,157,166,5216,17948,400,162,158,160,155,154,896,3681,189,156,157,157,152,159,935,3413,187,165,167,163,164,160,180,202,33720,30578,19215,15387,392,183,179,185,22141,14953,7705,5826,258,189,3106,10625,27403,35449,34337,32612,31704,14231,1774,4591,23289,21665,32222,31803,30569,16195
21014,57357,1051,176,165,161,160,156,5214,17944,395,165,157,156,157,156,897,3689,188,157,153,157,155,159,937,3421,189,166,168,165,166,161,177,202,33706,30549,19228,15397,393,182,179,185,22154,14961,7711,5828,258,189,3108,10626,27394,35439,34358,32631,31703,14232,1777,4600,23291,21670,32233,31823,30570,16199
21035,57451,1063,177,166,160,162,155,5212,17939,402,159,158,155,155,158,895,3690,186,162,157,159,158,153,937,3419,187,166,169,165,162,161,175,203,33739,30629,19251,15431,393,181,183,186,22179,14997,7727,5852,259,190,3110,10644,27401,35459,34374,32683,31710,14245,1775,4606,23303,21695,32260,31880,30578,16213
21079,57700,1056,177,165,158,157,159,5211,17959,398,162,158,157,156,155,896,3699,185,158,157,157,154,155,934,3427,193,168,166,165,167,164,179,203,33835,30771,19293,15491,393,185,183,185,22230,15064,7750,5884,260,189,3117,10691,27409,35509,34411,32757,31726,14260,1781,4621,23323,21737,32301,31971,30591,16223
21166,58034,1071,177,166,162,162,147,5212,17991,404,159,157,157,155,156,900,3717,191,160,156,155,159,154,937,3436,188,165,169,167,162,160,176,203,33928,30918,19346,15555,398,181,179,187,22292,15142,7781,5925,260,189,3125,10752,27432,35583,34469,32855,31758,14278,1782,4639,23342,21783,32351,32069,30606,16249
21253,58374,1067,177,166,161,160,157,5215,18032,401,161,161,155,157,151,901,3732,185,158,159,155,155,157,937,3447,190,165,169,165,165,161,177,205,34031,31078,19393,15615,393,182,179,186,22359,15219,7820,5966,259,198,3132,10808,27459,35667,34520,32951,31783,14300,1784,4661,23368,21833,32405,32181,30628,16272
