 ECG Channel 
-1860.939188
-1840.085011
-1852.959615
-1869.03052
-1859.352214
-1850.478572
-1872.87502
-1907.497872
-1924.798122
-1932.263605
-1968.585189
-2022.341135
-2051.688975
-2059.959121
-2087.094139
-2135.396258
-2163.872381
-2163.335939
-2172.880134
-2207.525338
-2228.893605
-2218.410637
-2216.957774
-2241.25412
-2260.163696
-2248.898417
-2236.649661
-2252.072364
-2270.713719
-2259.649606
-2243.265777
-2254.732222
-2276.636931
-2270.445498
-2248.04905
-2251.580626
-2273.038301
-2269.998463
-2248.42903
-2247.825533
-2270.624312
-2275.496993
-2254.419298
-2246.1268
-2265.975149
-2273.93237
-2252.966434
-2241.723507
-2258.800239
-2275.161716
-2265.148135
-2250.016004
-2261.437745
-2277.240429
-2268.41149
-2252.340585
-2261.683614
-2284.504746
-2277.888629
-2256.453306
-2261.281283
-2283.767138
-2284.415339
-2262.756498
-2259.82842
-2281.196687
-2286.516403
-2268.590303
-2263.047071
-2284.974132
-2295.278286
-2272.792431
-2259.359033
-2279.453251
-2296.932315
-2281.688426
-2266.869219
-2281.129632
-2299.525118
-2288.66217
-2268.277379
-2274.960551
-2293.378388
-2288.438653
-2263.650568
-2265.550466
-2285.510574
-2277.843926
-2255.22396
-2250.708908
-2256.49801
-2239.488332
-2211.66041
-2211.123968
-2241.164713
-2264.611693
-2251.424164
-2241.164713
-2258.107335
-2274.17824
-2268.277379
-2261.415394
-2283.253048
-2304.777778
-2298.541641
-2280.0791
-2287.835155
-2309.248127
-2306.3424
-2285.532926
-2288.28219
-2310.1869
-2311.572708
-2289.355074
-2285.376464
-2306.85649
-2310.902156
-2285.063539
-2256.877989
-2238.4378
-2145.007508
-1967.355843
-1796.76733
0
-2692.513489
-2699.353123
-2701.007152
-2704.114044
-2711.244251
-2714.976992
-2716.452207
-2716.832187
-2718.597975
-2721.369591
-2722.531882
-2722.867158
-2727.091638
-2731.025545
-2728.209225
-2723.001268
-2723.962393
-2729.751495
-2727.337507
-2725.549367
-2725.638774
-2730.980841
-2733.484236
-2730.690268
-2732.701925
-2740.502684
-2743.073135
-2740.681498
-2741.463809
-2745.889455
-2749.041051
-2745.57653
-2745.308309
-2749.778658
-2752.639681
-2751.879722
-2750.739783
-2756.193609
-2761.245103
-2762.720318
-2757.937045
-2759.814591
-2764.329644
-2765.804859
-2764.374347
-2765.514286
-2770.677539
-2770.521077
-2764.128478
-2766.497763
-2773.471507
-2777.248952
-2772.599789
-2770.856353
-2773.695025
-2776.824269
-2775.438461
-2771.191629
-2774.164411
-2777.003083
-2772.130403
-2765.447231
-2765.402527
-2769.001158
-2770.789298
-2761.580379
-2758.071155
-2760.753365
-2749.28692
-2723.224786
-2706.080998
-2708.249117
-2716.563966
-2723.53771
-2733.104257
-2739.608614
-2742.134362
-2741.910844
-2741.173237
-2748.146981
-2756.774754
-2761.133344
-2764.977844
-2772.175106
-2774.320874
-2767.950626
-2759.591074
-2759.725184
-2766.676577
-2766.229542
-2761.066289
-2758.406431
-2759.568722
-2754.271359
-2750.963301
-2749.242216
-2745.263606
-2721.973088
-2679.482422
-2588.421415
-2439.759963
-2286.449347
-2168.85682
-2139.151351
-2188.168727
-2331.175188
-2464.995082
-2518.639269
-2610.281421
-2839.945595
-2925.150445
-2855.345947
-2772.063347
-2731.137303
-2676.50964
-2626.598194
-2615.176453
-2615.444674
-2612.382485
-2616.025819
-2626.352325
-2645.150142
-2652.056831
-2647.586482
-2646.379488
-2645.910102
-2645.552474
-2639.361041
-2630.487398
-2629.548625
-2627.402857
-2619.959726
-2613.276555
-2609.521462
-2607.621563
-2596.758616
-2583.593438
-2576.463232
-2571.255275
-2562.493391
-2548.724717
-2536.766533
-2529.792789
-2517.186405
-2497.89685
-2481.714187
-2470.73948
-2456.993158
-2435.803704
-2419.308116
-2406.791139
-2395.01177
-2380.863116
-2364.188715
-2354.443354
-2349.794191
-2343.848627
-2340.249996
-2344.049793
-2351.224703
-2357.125563
-2367.787345
-2389.490889
-2414.346029
-2439.715259
-2468.928989
-2502.12133
-2534.106676
-2565.019138
-2590.187203
-2615.243508
-2641.283291
-2659.946997
-2673.469803
-2690.211259
-2708.942021
-2721.503701
-2724.901167
-2726.823417
-2735.562949
-2739.496856
-2736.658184
-2735.920577
-2744.995385
-2748.728126
-2746.425896
-2744.257777
-2746.828228
-2751.812667
-2747.610539
-2739.876835
-2739.966242
-2745.44242
-2747.834056
-2746.045917
-2745.375364
-2749.130458
-2751.365632
-2749.309271
-2743.900149
-2749.510437
-2752.594978
-2750.024527
-2747.789353
-2748.504609
-2750.918597
-2750.225693
-2751.633853
-2755.433649
-2759.144039
-2758.406431
-2752.214998
-2757.512362
-2765.268417
-2763.189705
-2761.625083
-2765.894266
-2775.17024
-2772.666844
-2769.895228
-2769.559952
-2772.800955
-2776.913676
-2774.991426
-2774.387929
-2777.673635
-2778.63476
-2777.450118
-2777.114842
-2783.798013
-2788.335417
-2789.676522
-2786.636685
-2789.698874
-2795.242106
-2791.799938
-2788.894211
-2787.508403
-2791.598772
-2793.49867
-2789.855336
-2792.47049
-2798.192537
-2797.276115
-2790.68235
-2790.972923
-2795.040941
-2796.516156
-2791.822289
-2788.178955
-2787.240182
-2787.73192
-2787.173127
-2785.005007
-2788.1119
-2784.535621
-2778.321836
-2771.549257
-2759.456963
-2746.112972
-2734.288899
-2730.846731
-2735.205321
-2747.767001
-2753.712565
-2750.404507
-2749.845713
-2757.087679
-2759.680481
-2761.356862
-2767.548295
-2777.316007
-2782.367502
-2784.647379
-2782.948647
-2785.452042
-2787.508403
-2784.289752
-2780.065272
-2783.976827
-2788.24601
-2782.434557
-2776.891324
-2779.864106
-2784.222696
-2781.562839
-2760.507495
-2731.249062
-2687.998436
-2572.886953
-2411.485006
-2262.242408
-2193.622553
-2199.255192
-2273.507687
-2426.550082
-2546.087211
-2583.682845
-2714.641716
-2920.993021
-2954.766507
-2876.624808
-2802.998162
-2756.730051
-2710.439588
-2684.757434
-2681.672893
-2687.864326
-2698.03437
-2702.504719
-2698.950791
-2694.994532
-2692.580544
-2692.982875
-2687.193774
-2678.05191
-2674.028596
-2674.989721
-2669.044157
-2658.605892
-2654.269654
-2652.973253
-2650.447506
-2639.048116
-2627.291099
-2623.737171
-2621.077314
-2606.749845
-2594.679903
-2588.309656
-2582.408796
-2569.087156
-2554.066784
-2540.856903
-2533.078496
-2517.946365
-2497.986257
-2485.335169
-2475.008664
-2458.289559
-2438.105933
-2425.320736
-2417.43057
-2405.271221
-2390.496718
-2382.561848
-2380.885468
-2381.488965
-2379.231439
-2379.969046
-2392.933058
-2410.725046
-2428.718201
-2448.879474
-2481.580076
-2517.655792
-2548.054164
-2575.993845
-2607.643915
-2634.778933
-2654.739041
-2670.385262
-2687.66316
-2708.897318
-2721.079018
-2729.796199
-2739.072173
-2746.895283
-2753.086716
-2753.623158
-2757.065327
-2762.116821
-2764.061423
-2762.765022
-2764.776679
-2769.850525
-2769.492897
-2768.174144
-2766.318949
-2766.765984
-2768.397661
-2763.279112
-2759.501667
-2759.747536
-2764.463754
-2759.702833
-2758.853466
-2757.445306
-2759.591074
-2754.472524
-2746.314138
-2748.884588
-2758.249969
-2757.199437
-2749.331623
-2749.063402
-2753.734917
-2759.903998
-2756.215961
-2749.041051
-2750.158638
-2752.527923
-2752.818495
-2753.600806
-2757.780583
-2760.976882
-2761.088641
-2759.524019
-2763.212057
-2765.223714
-2767.056557
-2765.871914
-2768.062385
-2777.450118
-2776.220772
-2772.35392
-2773.426804
-2781.808708
-2784.312103
-2784.759138
-2782.702778
-2786.569629
-2791.308199
-2790.347074
-2785.452042
-2789.989446
-2796.516156
-2793.476319
-2791.039978
-2794.929182
-2801.746464
-2798.438406
-2790.615295
-2792.649304
-2796.270287
-2792.917525
-2790.011798
-2790.92822
-2795.376217
-2792.068159
-2785.563801
-2784.982656
-2791.487013
-2794.77272
-2793.990409
-2791.688179
-2791.755234
-2793.141042
-2788.916563
-2780.579362
-2782.702778
-2778.344188
-2768.911751
-2768.442365
-2765.313121
-2746.917635
-2730.846731
-2729.393867
-2743.028431
-2754.472524
-2762.36269
-2763.301464
-2762.921484
-2770.29756
-2771.370443
-2771.862182
-2781.629894
-2793.096339
-2797.276115
-2794.90683
-2794.370388
-2799.466586
-2804.808653
-2800.383008
-2794.325685
-2795.219755
-2797.969019
-2792.157566
-2789.050673
-2789.967095
-2795.219755
-2793.230449
-2779.01474
-2755.008966
-2715.826358
-2610.504938
-2456.590826
-2307.661153
-2237.476675
-2240.404754
-2296.507632
-2430.439285
-2550.982243
-2591.774177
-2683.215163
-2903.849233
-2981.856821
-2905.704427
-2820.521929
-2764.083775
-2716.519262
-2687.864326
-2690.278314
-2692.826413
-2696.447396
-2704.896355
-2697.833204
-2688.04314
-2690.323018
-2695.35216
-2690.792405
-2678.834221
-2673.201582
-2673.782727
-2668.842991
-2659.634073
-2654.940206
-2656.057794
-2646.893578
-2637.68466
-2628.431037
-2624.050096
-2620.205596
-2611.376656
-2603.285325
-2594.434034
-2585.761557
-2575.636217
-2562.694557
-2550.669319
-2543.717926
-2524.897757
-2507.619859
-2495.393454
-2483.144699
-2463.966902
-2446.331375
-2430.104009
-2419.375172
-2407.484044
-2393.491852
-2384.729968
-2383.679436
-2384.394692
-2380.080805
-2380.080805
-2389.870869
-2407.014657
-2420.202186
-2438.932948
-2467.990216
-2505.429388
-2533.145551
-2564.192124
-2592.377674
-2617.255165
-2643.004375
-2663.299759
-2685.718559
-2705.276335
-2717.927422
-2727.695135
-2737.127571
-2747.252911
-2755.679519
-2754.494876
-2756.685347
-2768.174144
-2772.085699
-2772.152754
-2770.252856
-2773.315045
-2777.561876
-2777.114842
-2771.951589
-2772.711548
-2776.377234
-2775.214943
-2771.526905
-2775.30435
-2778.970036
-2778.277132
-2774.544391
-2778.075967
-2778.590057
-2773.449156
-2766.788336
-2767.280074
-2775.192592
-2776.824269
-2771.258685
-2769.783469
-2777.293656
-2778.098318
-2776.220772
-2775.930199
-2779.685292
-2778.523001
-2775.617275
-2774.946722
-2777.830097
-2781.0711
-2782.635722
-2779.417071
-2781.696949
-2789.073025
-2786.614333
-2780.579362
-2784.423862
-2790.816461
-2792.694007
-2792.269324
-2792.09051
-2795.912659
-2798.728978
-2794.973885
-2792.559897
-2799.757159
-2798.75133
-2799.243069
-2796.627915
-2799.176013
-2799.466586
-2798.10313
-2796.292638
-2797.678446
-2799.108958
-2801.299429
-2796.739673
-2796.940839
-2803.378141
-2801.634705
-2797.387874
-2798.058426
-2803.422845
-2806.574441
-2797.946667
-2797.85726
-2804.227508
-2804.272211
-2797.454929
-2799.690103
-2799.13131
-2794.459795
-2792.112862
-2790.771757
-2793.386912
-2791.844641
-2778.746519
-2771.862182
-2771.035167
-2759.188743
-2741.642623
-2733.595995
-2741.173237
-2755.120725
-2764.508458
-2764.173182
-2763.681443
-2769.247028
-2771.146926
-2769.492897
-2777.673635
-2793.096339
-2799.399531
-2800.517118
-2804.763949
-2809.658982
-2810.307182
-2804.205156
-2801.724112
-2807.692028
-2809.904851
-2806.663848
-2801.858223
-2802.931106
-2808.921374
-2806.105054
-2796.940839
-2777.09249
-2748.459905
-2680.175326
-2539.448743
-2390.988456
-2267.986806
-2236.761419
-2257.727356
-2372.034177
-2532.765571
-2625.413552
-2674.855611
-2855.457706
-3011.763455
-2970.882114
-2872.959122
-2801.43354
-2746.381193
-2697.609687
-2680.48825
-2690.680646
-2702.884698
-2712.00421
-2708.785559
-2704.672838
-2703.28703
-2701.431835
-2695.642733
-2682.946942
-2673.983893
-2675.302646
-2674.833259
-2664.506753
-2654.60493
-2654.962558
-2657.756526
-2651.565093
-2646.02186
-2642.870264
-2630.867378
-2613.47772
-2599.641991
-2604.715837
-2612.226023
-2601.206613
-2569.824764
-2539.828722
-2526.171807
-2514.370086
-2501.294315
-2485.0893
-2470.135983
-2458.602483
-2442.196303
-2423.957279
-2409.36159
-2399.23625
-2385.892258
-2380.751357
-2379.656122
-2371.207162
-2373.442337
-2368.189677
-2373.799965
-2389.267372
-2402.857232
-2418.749323
-2441.995137
-2473.354634
-2503.685952
-2532.050315
-2567.880162
-2603.598249
-2621.166721
-2640.210407
-2667.300721
-2686.992608
-2702.974105
-2714.798178
-2723.850635
-2741.262643
-2746.98469
-2751.097411
-2754.986615
-2762.317987
-2768.196496
-2765.871914
-2766.318949
-2769.962283
-2775.706682
-2773.136231
-2771.146926
-2776.824269
-2779.14885
-2774.27617
-2768.665882
-2770.923408
-2777.695987
-2777.159545
-2770.319911
-2771.281036
-2774.477336
-2776.310179
-2768.978807
-2767.503591
-2773.560914
-2776.332531
-2770.476373
-2770.275208
-2773.739728
-2779.327664
-2779.931161
-2774.477336
-2774.65615
-2781.473432
-2779.171202
-2779.506478
-2784.826193
-2788.961266
-2786.569629
-2782.523964
-2784.110938
-2788.558935
-2788.581286
-2784.155641
-2786.480223
-2790.347074
-2790.972923
-2787.441348
-2791.196441
-2794.90683
-2795.42092
-2792.895173
-2793.319856
-2795.555031
-2794.77272
-2790.749406
-2787.441348
-2788.849507
-2794.839775
-2793.565726
-2790.011798
-2792.626952
-2795.555031
-2794.504499
-2792.135214
-2793.945705
-2796.560859
-2797.745502
-2797.052598
-2797.611391
-2798.170185
-2793.588077
-2789.028321
-2787.21783
-2787.575458
-2786.793147
-2779.975865
-2765.201362
-2765.916618
-2764.79903
-2748.057574
-2726.264623
-2722.084847
-2736.233501
-2744.16837
-2751.276225
-2759.859295
-2764.486106
-2762.519152
-2759.613426
-2766.877743
-2782.076929
-2790.078853
-2790.123557
-2793.744539
-2797.544336
-2799.041903
-2791.911696
-2789.765929
-2793.163394
-2794.504499
-2791.934048
-2791.352903
-2793.543374
-2796.739673
-2793.141042
-2787.329589
-2787.687217
-2764.933141
-2725.884643
-2648.882884
-2503.462434
-2349.727136
-2222.948041
-2180.278561
-2223.238614
-2371.654197
-2530.642155
-2610.52729
-2705.768073
-2931.118361
-3026.18033
-2946.451658
-2846.181732
-2789.251839
-2735.205321
-2680.287085
-2667.54659
-2679.236553
-2687.283181
-2686.679684
-2680.331788
-2678.901276
-2678.208372
-2669.781765
-2660.505791
-2659.611721
-2656.482477
-2650.581616
-2645.060735
-2638.265805
-2638.176398
-2632.722572
-2621.256128
-2611.93545
-2609.588517
-2602.905345
-2593.294095
-2583.660493
-2578.698406
-2572.954008
-2558.738298
-2543.293243
-2536.20774
-2526.283565
-2511.576117
-2493.806481
-2481.736539
-2468.884286
-2449.840599
-2428.874663
-2414.658954
-2403.393674
-2388.239192
-2372.190639
-2364.054604
-2362.445278
-2356.946749
-2349.771839
-2346.776706
-2354.39865
-2363.786383
-2368.949636
-2384.797023
-2409.830977
-2437.234215
-2462.178762
-2490.34196
-2524.29426
-2556.927807
-2583.213458
-2604.782892
-2629.883901
-2655.409593
-2669.558247
-2679.884753
-2696.24623
-2712.697114
-2717.726257
-2718.106236
-2729.729143
-2740.614443
-2741.687327
-2741.799085
-2741.396754
-2745.978862
-2750.337452
-2746.671766
-2746.939987
-2750.292748
-2751.85737
-2747.431725
-2744.503646
-2749.353975
-2750.426859
-2746.314138
-2741.59792
-2744.414239
-2746.649414
-2743.207245
-2738.602786
-2740.457981
-2743.050783
-2740.301518
-2736.591129
-2736.769943
-2740.078001
-2739.832132
-2737.619309
-2740.122705
-2744.078963
-2744.995385
-2743.095487
-2743.766039
-2748.214036
-2749.868065
-2743.833094
-2746.671766
-2752.036184
-2754.740745
-2753.287882
-2752.058536
-2757.512362
-2762.385042
-2764.329644
-2763.25676
-2763.703795
-2768.107089
-2768.241199
-2765.111955
-2764.776679
-2769.91758
-2771.415147
-2765.760155
-2768.37531
-2775.058481
-2775.125536
-2771.191629
-2769.559952
-2771.750423
-2771.906885
-2768.352958
-2762.697966
-2767.503591
-2764.553161
-2752.438516
-2748.236388
-2743.788391
-2726.86812
-2707.77973
-2699.95662
-2709.836091
-2728.388039
-2738.312213
-2735.83117
-2737.395792
-2745.777696
-2746.202379
-2746.202379
-2756.283016
-2769.291731
-2774.611446
-2774.209115
-2775.438461
-2777.137193
-2778.344188
-2774.723205
-2771.929237
-2772.510382
-2773.002121
-2772.443327
-2770.05169
-2772.957417
-2776.734862
-2770.588132
-2753.77962
-2724.744704
-2686.076186
-2592.109453
-2433.769695
-2285.510574
-2174.556515
-2148.762601
-2219.192948
-2384.349988
-2526.842359
-2594.165813
-2742.201417
-2946.004623
-2972.983178
-2903.69277
-2818.174996
-2771.236333
-2720.07319
-2675.637922
-2658.047099
-2658.561189
-2669.155916
-2674.185058
-2668.418308
-2662.271579
-2661.399861
-2662.182172
-2656.52718
-2647.385317
-2645.686584
-2647.765296
-2640.791552
-2628.654555
-2623.223081
-2620.227947
-2615.802302
-2607.040418
-2598.457348
-2594.702255
-2590.522479
-2577.916095
-2565.153249
-2559.632368
-2551.228112
-2537.973528
-2522.595527
-2510.860862
-2500.109673
-2484.195231
-2465.687986
-2451.919312
-2438.798838
-2425.387791
-2408.646334
-2393.715369
-2384.439395
-2375.141069
-2360.970063
-2353.929264
-2355.784459
-2357.125563
-2354.331595
-2361.126526
-2375.029311
-2389.177965
-2401.29261
-2420.805683
-2451.561684
-2481.62478
-2506.949306
-2535.939519
-2567.813107
-2595.395159
-2615.534081
-2633.236663
-2653.219122
-2675.973198
-2690.546535
-2697.207355
-2706.572736
-2720.609632
-2729.103295
-2731.293765
-2734.355954
-2742.089658
-2745.978862
-2744.660109
-2743.766039
-2746.783524
-2749.778658
-2746.4706
-2740.681498
-2741.173237
-2744.749516
-2744.615405
-2741.35205
-2742.6261
-2746.269434
-2744.011908
-2739.407449
-2741.061478
-2745.867103
-2742.290824
-2735.048859
-2736.769943
-2742.357879
-2742.961376
-2737.909882
-2739.966242
-2744.973033
-2743.989556
-2741.441457
-2741.754382
-2748.035222
-2755.031318
-2752.483219
-2747.074097
-2748.750478
-2751.365632
-2750.940949
-2751.455039
-2755.299539
-2760.95453
-2760.574551
-2757.825286
-2761.580379
-2767.950626
-2767.905923
-2765.000196
-2763.547333
-2765.782507
-2765.938969
-2760.239275
-2758.495838
-2762.653263
-2764.039071
-2758.294673
-2752.930254
-2755.657167
-2761.312158
-2759.79224
-2756.126554
-2750.18099
-2747.722298
-2746.895283
-2736.47937
-2720.162597
-2705.499852
-2702.795291
-2707.712675
-2720.609632
-2733.819513
-2734.55712
-2730.511454
-2730.623213
-2738.043992
-2749.555141
-2753.198475
-2758.89817
-2766.229542
-2770.878705
-2770.386967
-2768.308254
-2771.236333
-2773.091528
-2768.50942
-2763.882609
-2764.620216
-2766.765984
-2763.927312
-2761.088641
-2763.748498
-2766.676577
-2751.700908
-2716.832187
-2675.526163
-2578.318426
-2416.514148
-2264.343472
-2162.799497
-2159.133811
-2249.546617
-2413.273145
-2536.565368
-2596.155118
-2758.294673
-2947.658652
-2949.17857
-2871.036872
-2796.069121
-2751.544446
-2690.770053
-2652.995605
-2648.234683
-2654.113192
-2659.991701
-2661.735137
-2662.897427
-2657.063622
-2650.738078
-2646.647709
-2646.088916
-2643.294948
-2637.259977
-2628.5875
-2625.25709
-2625.77118
-2615.154101
-2607.755674
-2605.878127
-2599.865508
-2593.294095
-2583.794604
-2577.022025
-2572.283455
-2561.420508
-2547.808295
-2541.236882
-2535.783057
-2521.902623
-2506.815196
-2494.253516
-2481.468318
-2463.162239
-2444.543236
-2429.388753
-2419.665744
-2402.901936
-2382.494793
-2373.151764
-2369.575485
-2360.612435
-2351.023537
-2345.256787
-2350.375336
-2349.369508
-2357.997281
-2371.587142
-2380.818412
-2399.705636
-2423.107913
-2450.399393
-2486.542164
-2519.265118
-2547.093039
-2567.902513
-2593.674075
-2623.960689
-2643.45141
-2654.917855
-2672.687491
-2690.948867
-2702.52707
-2707.153881
-2711.668934
-2720.006135
-2729.952661
-2731.852559
-2732.701925
-2740.726202
-2743.631928
-2742.067306
-2739.362745
-2742.782562
-2745.934158
-2743.810742
-2738.043992
-2741.106181
-2744.302481
-2739.183931
-2733.260719
-2733.618347
-2739.183931
-2738.379268
-2732.12078
-2731.919614
-2737.552254
-2736.85935
-2731.0926
-2727.829245
-2731.003193
-2733.305422
-2732.009021
-2731.517283
-2734.959452
-2736.322908
-2733.461885
-2731.785504
-2736.658184
-2742.6261
-2741.419106
-2737.038164
-2738.40162
-2743.833094
-2745.308309
-2743.698984
-2746.180027
-2753.444344
-2751.767963
-2747.454077
-2749.443382
-2753.913731
-2755.210132
-2751.276225
-2751.030356
-2755.478353
-2754.047841
-2750.113934
-2749.353975
-2752.483219
-2753.064365
-2746.917635
-2744.347184
-2747.275263
-2751.678556
-2745.643585
-2735.026507
-2734.802989
-2736.144094
-2718.217995
-2692.558192
-2689.272486
-2703.42114
-2714.217033
-2720.833149
-2727.158693
-2735.942928
-2739.787428
-2734.668879
-2739.496856
-2754.763097
-2764.419051
-2763.077946
-2762.87678
-2770.364615
-2773.963246
-2772.48803
-2769.336435
-2772.376272
-2777.763042
-2773.493859
-2768.37531
-2770.230504
-2773.24799
-2771.32574
-2766.654225
-2762.250932
-2745.218902
-2708.003248
-2624.899462
-2470.180687
-2313.830234
-2189.219259
-2146.840351
-2188.749872
-2343.513351
-2504.580021
-2571.054109
-2674.162707
-2909.258355
-2986.863612
-2908.923079
-2812.20708
-2760.239275
-2710.841919
-2661.064584
-2646.580654
-2658.471782
-2670.385262
-2672.866305
-2665.691395
-2659.3435
-2657.980044
-2655.11902
-2644.47959
-2639.115171
-2640.210407
-2635.136561
-2625.860587
-2618.909194
-2615.064694
-2610.706104
-2601.787758
-2596.110415
-2592.645895
-2588.019084
-2575.92679
-2564.259179
-2559.073574
-2556.056089
-2544.880217
-2529.524568
-2517.678144
-2509.676219
-2495.996952
-2477.377948
-2462.558742
-2452.612216
-2438.374154
-2417.542329
-2399.012732
-2388.105081
-2375.722215
-2361.618264
-2350.196522
-2347.067278
-2346.329671
-2342.261653
-2340.920549
-2349.838895
-2363.87579
-2376.370415
-2389.647351
-2414.927174
-2443.224483
-2472.594675
-2500.959039
-2532.698516
-2564.437993
-2592.467081
-2613.768293
-2635.538892
-2660.88577
-2679.281256
-2687.909029
-2697.1403
-2710.931326
-2720.743742
-2723.940042
-2727.046934
-2736.211149
-2742.6261
-2741.910844
-2739.854484
-2743.229597
-2747.856408
-2746.939987
-2742.939024
-2746.336489
-2751.320928
-2748.929292
-2741.419106
-2739.832132
-2744.727164
-2741.799085
-2738.155751
-2737.328736
-2740.167408
-2740.726202
-2735.808818
-2731.785504
-2735.205321
-2739.832132
-2737.485199
-2732.63487
-2735.160617
-2739.183931
-2735.562949
-2732.858388
-2737.932234
-2741.866141
-2740.905016
-2738.513379
-2744.257777
-2747.744649
-2746.98469
-2744.593053
-2746.247083
-2751.85737
-2749.331623
-2745.598882
-2746.537655
-2753.354937
-2757.042975
-2753.310234
-2749.957472
-2753.690213
-2754.360766
-2753.243179
-2753.176123
-2757.914693
-2759.859295
-2752.662033
-2747.856408
-2751.477391
-2753.198475
-2748.504609
-2739.586263
-2732.076077
-2736.211149
-2729.662088
-2708.070303
-2688.110195
-2687.104367
-2698.995495
-2706.997419
-2719.715562
-2729.952661
-2730.869082
-2728.857425
-2727.829245
-2737.015812
-2749.689251
-2760.663958
-2763.457926
-2766.162487
-2772.286865
-2771.392795
-2768.218847
-2770.968112
-2773.605618
-2770.923408
-2769.716414
-2771.415147
-2773.829135
-2773.672673
-2772.286865
-2772.86801
-2771.884533
-2752.37146
-2716.318097
-2639.22693
-2493.873536
-2331.577519
-2194.74014
-2150.215465
-2189.822756
-2331.555168
-2491.347789
-2572.08229
-2664.149125
-2893.500375
-2995.446681
-2923.518768
-2826.333383
-2769.269379
-2714.798178
-2664.819677
-2655.834276
-2668.977102
-2675.727329
-2673.626265
-2672.195753
-2673.626265
-2670.385262
-2662.517448
-2659.656424
-2659.924645
-2655.968387
-2648.547607
-2642.669099
-2641.551511
-2636.365907
-2626.687601
-2620.540872
-2616.942241
-2613.008334
-2605.095816
-2596.333932
-2588.48847
-2580.263028
-2569.847115
-2556.614883
-2544.053202
-2533.503179
-2521.85792
-2506.546975
-2492.018341
-2478.272018
-2459.317739
-2436.13898
-2415.418913
-2400.152671
-2385.668741
-2367.630883
-2352.074069
-2345.502656
-2338.908892
-2329.811732
-2325.94488
-2331.756333
-2339.199464
-2345.323842
-2356.276197
-2377.622113
-2403.661895
-2426.863006
-2451.807553
-2483.457623
-2518.683972
-2549.127048
-2572.015234
-2597.362113
-2621.881976
-2640.858607
-2654.336709
-2668.150087
-2684.980951
-2695.486271
-2699.688399
-2704.583431
-2715.781655
-2721.838978
-2721.838978
-2721.838978
-2726.041106
-2730.734972
-2730.511454
-2729.237405
-2734.668879
-2740.905016
-2739.407449
-2733.730106
-2734.914748
-2737.172274
-2735.697059
-2733.01485
-2734.914748
-2738.759248
-2738.178103
-2736.099391
-2735.07121
-2740.860312
-2744.481295
-2739.899187
-2739.541559
-2743.408411
-2746.783524
-2745.665937
-2743.833094
-2746.001213
-2750.113934
-2748.482257
-2744.883626
-2747.789353
-2756.238312
-2758.317025
-2754.316062
-2755.031318
-2762.206228
-2765.827211
-2763.279112
-2762.809725
-2768.777641
-2768.799993
-2763.994368
-2763.882609
-2769.291731
-2771.929237
-2769.671711
-2766.453059
-2770.141097
-2773.046824
-2769.559952
-2763.301464
-2763.882609
-2767.123612
-2762.630911
-2756.819458
-2747.901112
-2744.414239
-2747.230559
-2740.234463
-2722.50953
-2707.466806
-2705.589259
-2711.356009
-2722.464826
-2737.239329
-2742.961376
-2740.368574
-2741.553216
-2749.219865
-2759.255798
-2764.106126
-2767.950626
-2773.024472
-2774.65615
-2772.018644
-2772.644493
-2778.008911
-2781.562839
-2780.221734
-2775.349054
-2775.438461
-2778.50065
-2778.031263
-2773.426804
-2774.231467
-2779.707644
-2768.621179
-2739.586263
-2702.683533
-2616.919889
-2461.910541
-2307.571746
-2191.901468
-2166.666349
-2230.771152
-2384.104119
-2521.746161
-2587.907325
-2725.750533
-2944.350594
-2978.347597
-2905.391503
-2823.159435
-2771.191629
-2716.385152
-2672.329864
-2667.166611
-2674.855611
-2680.510602
-2682.030521
-2682.008169
-2679.393015
-2672.374567
-2666.876038
-2665.512582
-2661.422212
-2652.213294
-2646.91593
-2646.513599
-2643.943148
-2634.443657
-2624.541834
-2621.300831
-2616.003468
-2604.604078
-2592.869412
-2587.616752
-2583.325217
-2571.881124
-2559.453554
-2553.776211
-2544.92492
-2529.122237
-2512.693705
-2497.360408
-2485.424576
-2469.644245
-2447.247797
-2430.104009
-2421.208015
-2408.914555
-2391.659008
-2377.756223
-2369.575485
-2363.965197
-2356.365604
-2347.670775
-2347.804886
-2352.990491
-2355.471534
-2360.612435
-2376.30336
-2399.638581
-2423.107913
-2446.487838
-2478.29437
-2513.341905
-2543.762629
-2570.16004
-2598.502052
-2628.252224
-2648.637014
-2662.003358
-2673.536858
-2691.440605
-2707.936193
-2714.753475
-2720.520225
-2729.572681
-2737.596957
-2740.078001
-2739.16158
-2743.453114
-2749.80101
-2751.85737
-2750.82919
-2754.360766
-2756.819458
-2753.667862
-2749.28692
-2751.700908
-2755.366594
-2754.472524
-2747.789353
-2746.247083
-2751.253873
-2751.20917
-2747.230559
-2746.872931
-2751.253873
-2757.042975
-2753.421992
-2749.823362
-2753.444344
-2755.411298
-2754.047841
-2750.248045
-2753.734917
-2756.774754
-2756.126554
-2753.667862
-2757.49001
-2760.686309
-2759.188743
-2756.685347
-2761.356862
-2768.263551
-2770.029339
-2767.458888
-2769.02351
-2775.438461
-2774.231467
-2766.855391
-2765.424879
-2772.130403
-2773.985597
-2770.521077
-2770.185801
-2772.935065
-2774.544391
-2773.493859
-2770.029339
-2772.040996
-2773.270342
-2770.610484
-2762.36269
-2757.311196
-2760.127516
-2756.707699
-2741.374402
-2717.547443
-2712.89828
-2717.614498
-2721.056667
-2733.305422
-2743.631928
-2749.845713
-2748.661071
-2747.655242
-2758.160562
-2769.895228
-2775.483164
-2776.891324
-2783.082757
-2788.357769
-2785.720263
-2781.540487
-2785.094414
-2789.453005
-2788.447176
-2786.927257
-2787.128423
-2790.145909
-2790.436481
-2786.055539
-2783.88742
-2781.182859
-2760.149868
-2725.281146
-2655.744869
-2520.06978
-2365.708633
-2231.620518
-2184.972427
-2218.053009
-2341.971081
-2484.888135
-2554.893798
-2639.919834
-2854.921264
-2959.1698
-2914.06398
-2834.670584
-2787.553106
-2742.134362
-2688.579582
-2671.793422
-2678.789518
-2682.321093
-2678.767166
-2678.364835
-2681.136451
-2679.169497
-2671.793422
-2664.663215
-2666.250189
-2663.791497
-2655.409593
-2648.32409
-2645.88775
-2643.294948
-2635.538892
-2626.41938
-2624.385372
-2618.998601
-2605.118168
-2593.271743
-2587.236772
-2582.162926
-2568.997749
-2553.396231
-2543.963795
-2534.93369
-2521.880272
-2502.747178
-2487.659751
-2479.009626
-2461.083527
-2438.687079
-2423.666707
-2413.139035
-2401.1585
-2384.797023
-2370.313093
-2364.613398
-2358.265502
-2349.481267
-2345.055621
-2350.196522
-2360.724194
-2367.675587
-2375.945732
-2395.168232
-2422.415009
-2448.968881
-2476.305065
-2508.893908
-2544.589644
-2572.372862
-2593.428206
-2618.97625
-2645.239549
-2662.584503
-2673.670968
-2686.322056
-2701.454187
-2712.406541
-2715.781655
-2719.648507
-2729.125646
-2735.026507
-2733.797161
-2734.467713
-2740.681498
-2745.151847
-2744.92833
-2741.419106
-2743.207245
-2746.738821
-2749.085754
-2749.175161
-2751.566798
-2754.986615
-2752.37146
-2746.492952
-2745.129495
-2748.549312
-2749.778658
-2744.727164
-2745.598882
-2750.538617
-2753.556103
-2749.219865
-2748.839885
-2753.243179
-2754.718394
-2751.790315
-2752.997309
-2756.260664
-2761.245103
-2761.8486
-2758.451135
-2757.132382
-2758.741708
-2758.51819
-2756.551237
-2760.507495
-2766.341301
-2766.698929
-2764.15083
-2766.095432
-2771.83983
-2774.499687
-2769.269379
-2769.783469
-2774.164411
-2775.393757
-2770.632836
-2768.151792
-2769.962283
-2772.979769
-2769.336435
-2765.782507
-2766.251894
-2768.844696
-2763.413222
-2761.870952
-2759.456963
-2755.94774
-2756.886513
-2749.197513
-2732.098428
-2717.033352
-2711.557175
-2712.495948
-2723.180082
-2737.842827
-2741.642623
-2740.860312
-2742.782562
-2746.202379
-2754.383117
-2761.915655
-2768.978807
-2774.119708
-2778.858278
-2775.505516
-2773.650321
-2778.344188
-2781.294618
-2778.835926
-2775.214943
-2776.444289
-2780.244086
-2780.087624
-2779.059443
-2782.233391
-2785.899077
-2780.668769
-2756.171257
-2728.343335
-2665.132602
-2518.482807
-2349.302453
-2215.594317
-2179.429195
-2208.307649
-2331.644575
-2489.961981
-2574.317464
-2651.051003
-2866.857096
-2988.741158
-2939.187341
-2851.657909
-2791.911696
-2736.211149
-2688.154899
-2678.94598
-2687.685512
-2691.395902
-2693.944
-2695.173346
-2690.881811
-2683.237515
-2679.616532
-2677.694282
-2671.301683
-2662.763317
-2656.638939
-2653.19677
-2648.033517
-2642.289119
-2634.331898
-2629.325107
-2624.139503
-2616.048171
-2605.498148
-2599.932563
-2595.886898
-2584.26399
-2571.523496
-2560.593493
-2550.959891
-2536.565368
-2518.348696
-2506.61403
-2496.175766
-2479.18844
-2456.926102
-2440.765791
-2432.741515
-2418.659916
-2397.9622
-2381.377206
-2373.822316
-2365.060433
-2352.051717
-2347.201389
-2352.811677
-2356.253845
-2356.432659
-2362.33352
-2376.616284
-2400.800872
-2421.051552
-2444.923215
-2478.048501
-2514.213623
-2544.723754
-2571.210572
-2597.429168
-2626.911119
-2650.603968
-2666.294893
-2680.220029
-2696.715617
-2710.104312
-2715.021695
-2721.257832
-2732.031373
-2737.239329
-2738.669841
-2739.563911
-2744.794219
-2747.990519
-2746.805876
-2748.504609
-2752.818495
-2753.64551
-2752.10324
-2750.270397
-2752.37146
-2755.925388
-2756.707699
-2751.231522
-2751.790315
-2755.299539
-2755.299539
-2749.555141
-2750.3151
-2753.489048
-2751.969129
-2744.213074
-2742.737859
-2749.28692
-2753.354937
-2748.884588
-2747.163504
-2751.298577
-2754.696042
-2752.639681
-2750.3151
-2752.393812
-2753.936083
-2752.974958
-2752.058536
-2756.08185
-2760.887475
-2760.373385
-2757.400603
-2758.853466
-2763.63674
-2764.642568
-2760.44044
-2762.295635
-2767.145964
-2770.364615
-2768.107089
-2766.363653
-2769.805821
-2772.711548
-2769.336435
-2765.447231
-2769.381138
-2774.365577
-2775.214943
-2772.242161
-2773.560914
-2774.902019
-2774.410281
-2772.018644
-2772.018644
-2775.81844
-2772.532734
-2765.871914
-2764.642568
-2765.424879
-2765.603693
-2754.249007
-2749.443382
-2753.399641
-2746.09062
-2725.258794
-2709.612573
-2714.597012
-2723.224786
-2727.136341
-2732.366649
-2739.407449
-2745.800048
-2746.180027
-2745.218902
-2754.494876
-2766.408356
-2773.270342
-2775.81844
-2781.786356
-2788.402473
-2788.067196
-2782.032225
-2781.428728
-2786.368464
-2785.317932
-2780.221734
-2778.075967
-2783.619199
-2786.100243
-2782.434557
-2780.579362
-2780.199382
-2759.613426
-2720.989611
-2630.666212
-2477.601466
-2319.731095
-2197.31059
-2163.157125
-2213.694419
-2361.975892
-2521.030905
-2592.71295
-2683.617495
-2919.942489
-3010.958792
-2926.133922
-2830.423752
-2778.008911
-2726.197568
-2676.263771
-2669.133564
-2684.869192
-2694.413387
-2691.574716
-2686.903201
-2688.981913
-2687.551402
-2680.331788
-2671.860477
-2670.273503
-2670.944055
-2664.015015
-2651.900369
-2648.502904
-2648.011166
-2638.601081
-2626.866415
-2620.65263
-2619.669154
-2612.650706
-2600.379598
-2591.081272
-2588.019084
-2579.100737
-2560.6829
-2544.835513
-2533.39142
-2522.729638
-2504.736484
-2487.726806
-2476.975617
-2463.855143
-2445.146733
-2426.818302
-2411.037971
-2397.001075
-2380.907819
-2364.054604
-2356.007976
-2353.214008
-2343.75922
-2336.114923
-2340.987604
-2349.570674
-2357.170267
-2363.607569
-2381.108985
-2409.987439
-2436.697774
-2460.23416
-2490.029036
-2526.372972
-2557.441897
-2581.537078
-2607.778026
-2634.957747
-2657.309491
-2670.631131
-2679.884753
-2696.939134
-2712.741818
-2716.474559
-2720.050838
-2729.237405
-2738.513379
-2739.183931
-2732.813684
-2732.031373
-2738.558082
-2740.726202
-2737.149923
-2734.646527
-2738.066344
-2739.899187
-2737.596957
-2735.5853
-2738.446324
-2740.279167
-2735.741763
-2731.360821
-2733.305422
-2736.211149
-2731.696097
-2726.555196
-2729.617385
-2734.802989
-2732.187835
-2725.817588
-2727.784542
-2733.595995
-2733.730106
-2729.147998
-2726.309326
-2727.069286
-2729.617385
-2727.76219
-2727.292803
-2734.311251
-2739.16158
-2736.255853
-2736.814646
-2741.396754
-2741.530864
-2739.385097
-2739.116876
-2745.06244
-2749.130458
-2747.655242
-2742.983728
-2744.794219
-2751.611501
-2748.839885
-2741.977899
-2741.642623
-2748.482257
-2750.560969
-2746.492952
-2746.336489
-2750.538617
-2751.812667
-2748.951644
-2747.610539
-2752.75144
-2755.746574
-2752.259702
-2752.639681
-2753.533751
-2756.707699
-2752.550274
-2743.251949
-2745.911806
-2751.499742
-2748.571664
-2746.627062
-2741.463809
-2739.876835
-2734.825341
-2717.882719
-2701.275373
-2697.229707
-2702.236498
-2706.013942
-2715.200509
-2726.532844
-2730.466751
-2729.572681
-2730.846731
-2741.307347
-2751.231522
-2756.864161
-2760.418088
-2768.420013
-2773.605618
-2770.454022
-2766.20719
-2768.218847
-2772.242161
-2771.884533
-2767.861219
-2768.934103
-2773.292693
-2772.935065
-2768.911751
-2770.252856
-2774.589094
-2762.563856
-2725.772885
-2675.526163
-2569.91417
-2408.445169
-2254.843981
-2155.803401
-2151.087183
-2235.017983
-2397.984552
-2529.837493
-2597.339761
-2759.859295
-2970.680949
-2977.431175
-2890.907573
-2814.665772
-2766.497763
-2706.036294
-2668.999454
-2665.691395
-2670.564076
-2669.580599
-2671.011111
-2673.156878
-2667.971273
-2659.075279
-2652.101535
-2651.207465
-2649.553436
-2642.445581
-2635.51654
-2631.850854
-2629.772142
-2621.814921
-2615.578784
-2611.443712
-2607.263935
-2596.468043
-2586.029778
-2581.470022
-2576.172659
-2566.96374
-2551.809257
-2542.086249
-2535.492484
-2522.103789
-2504.267097
-2492.733597
-2481.803594
-2463.788088
-2441.413992
-2425.566605
-2413.943698
-2401.605535
-2385.467575
-2368.904933
-2361.640616
-2354.018671
-2343.24513
-2334.997336
-2333.812694
-2342.440467
-2346.57554
-2351.582331
-2366.870924
-2387.747453
-2407.595802
-2430.260471
-2459.541256
-2494.611143
-2524.718943
-2548.165923
-2575.792679
-2606.906308
-2629.638032
-2644.837218
-2661.377509
-2677.224896
-2686.411463
-2691.798233
-2696.670913
-2705.812777
-2713.300611
-2713.568832
-2716.251041
-2723.113027
-2729.17035
-2731.047896
-2730.489103
-2733.081905
-2737.060516
-2733.14896
-2725.012925
-2725.705829
-2732.143132
-2731.785504
-2727.471617
-2725.929347
-2731.7408
-2732.456056
-2725.214091
-2721.816626
-2726.108161
-2726.465789
-2721.213129
-2716.385152
-2717.949774
-2723.560062
-2720.676687
-2715.915765
-2718.374457
-2722.822454
-2717.212166
-2713.702943
-2715.021695
-2720.162597
-2720.386114
-2717.279222
-2716.22869
-2719.849672
-2720.631983
-2718.955603
-2720.430818
-2727.426914
-2728.902129
-2726.86812
-2725.996402
-2729.505626
-2731.696097
-2731.249062
-2732.098428
-2733.305422
-2734.445361
-2731.159655
-2727.046934
-2729.840902
-2733.059553
-2730.220882
-2725.97405
-2729.729143
-2736.85935
-2735.697059
-2730.869082
-2732.232539
-2736.322908
-2732.344297
-2726.443437
-2722.174254
-2719.067361
-2721.056667
-2709.254945
-2692.692303
-2677.940151
-2673.134526
-2673.514506
-2681.047044
-2697.52028
-2705.879832
-2704.516376
-2705.812777
-2710.998381
-2718.553271
-2724.007097
-2729.796199
-2735.339431
-2738.625138
-2738.669841
-2736.278204
-2738.334565
-2744.190722
-2742.134362
-2732.366649
-2731.98667
-2738.155751
-2737.440495
-2733.595995
-2735.5853
-2739.4298
-2731.785504
-2704.583431
-2672.106346
-2605.520499
-2470.158335
-2309.136368
-2175.249419
-2132.892863
-2169.035634
-2292.864298
-2440.385811
-2518.952193
-2600.670171
-2811.04479
-2924.748114
-2886.996017
-2805.92624
-2754.360766
-2702.839995
-2647.742945
-2632.499055
-2637.751715
-2645.731288
-2648.32409
-2652.012128
-2651.721555
-2644.792514
-2638.958709
-2639.048116
-2637.81877
-2630.107418
-2623.84893
-2619.691505
-2616.495206
-2607.57686
-2598.457348
-2595.037531
-2593.137633
-2585.649799
-2573.065766
-2566.561409
-2562.269874
-2552.770382
-2539.314632
-2527.155283
-2521.634402
-2510.614992
-2492.532431
-2476.930914
-2467.498477
-2454.512114
-2433.70264
-2413.340201
-2399.996209
-2388.261543
-2372.548267
-2355.29272
-2344.027441
-2337.590139
-2327.241281
-2317.227699
-2317.942955
-2323.083856
-2328.112999
-2335.17615
-2350.509447
-2373.419985
-2395.816433
-2417.162349
-2445.191436
-2479.70253
-2507.441045
-2530.508045
-2557.620711
-2587.348531
-2613.164796
-2631.090895
-2647.519427
-2666.51841
-2681.359968
-2687.886678
-2691.328846
-2699.95662
-2708.092655
-2708.606745
-2706.885661
-2712.563004
-2718.620326
-2718.262698
-2714.976992
-2715.021695
-2717.860367
-2717.614498
-2713.54648
-2715.267565
-2717.927422
-2719.670858
-2713.859405
-2710.886623
-2715.155806
-2718.933251
-2713.747646
-2710.305477
-2714.172329
-2715.625193
-2712.406541
-2705.544556
-2706.975067
-2710.618402
-2709.612573
-2705.879832
-2707.712675
-2713.769998
-2714.149977
-2709.791387
-2709.769036
-2714.798178
-2712.674762
-2708.785559
-2709.232594
-2713.479425
-2717.033352
-2713.837053
-2713.233556
-2718.262698
-2723.805931
-2719.670858
-2717.368629
-2723.895338
-2726.86812
-2724.320021
-2722.956565
-2726.711658
-2732.523111
-2730.846731
-2724.834111
-2727.024582
-2732.210187
-2730.824379
-2726.219919
-2725.549367
-2730.176178
-2731.807856
-2728.455094
-2727.091638
-2727.046934
-2724.655297
-2720.497873
-2719.000306
-2723.850635
-2717.100408
-2706.908012
-2703.465844
-2694.636905
-2678.811869
-2664.73027
-2663.098593
-2673.000416
-2686.903201
-2695.128643
-2694.636905
-2697.922611
-2703.04116
-2702.191794
-2706.438626
-2718.329754
-2729.773847
-2736.904053
-2737.462847
-2736.658184
-2740.279167
-2741.128533
-2737.708716
-2736.613481
-2739.608614
-2742.693155
-2739.720373
-2736.322908
-2738.200454
-2743.386059
-2740.502684
-2726.041106
-2699.509585
-2663.791497
-2561.19699
-2399.817395
-2244.606882
-2153.300006
-2141.05125
-2198.830509
-2352.610511
-2496.309876
-2550.244635
-2664.484401
-2888.672398
-2937.555663
-2857.245845
-2769.068214
-2716.429855
-2666.987797
-2630.308584
-2624.295965
-2632.432
-2642.17736
-2645.731288
-2641.618567
-2634.913043
-2633.370773
-2634.711878
-2630.12977
-2621.770218
-2616.182282
-2615.578784
-2610.862566
-2598.569107
-2592.377674
-2592.221211
-2587.057958
-2575.54681
-2566.539057
-2563.476868
-2557.35249
-2545.81899
-2534.531359
-2527.62467
-2519.376876
-2505.71996
-2489.783167
-2478.272018
-2468.280788
-2451.539332
-2434.529654
-2419.196358
-2405.047703
-2387.32277
-2367.474421
-2352.498752
-2344.541531
-2332.158665
-2317.36181
-2309.449292
-2308.242298
-2307.661153
-2307.459987
-2313.472606
-2328.51533
-2346.128505
-2361.864133
-2384.797023
-2416.245927
-2450.511152
-2481.401262
-2508.491577
-2541.035717
-2569.355377
-2591.774177
-2612.538947
-2633.437828
-2654.60493
-2668.015977
-2676.800212
-2684.422157
-2695.463919
-2700.381303
-2699.777806
-2704.203451
-2713.993515
-2717.77096
-2714.373495
-2715.044047
-2721.190777
-2723.627117
-2719.424989
-2717.569794
-2720.833149
-2723.358896
-2719.089713
-2715.446379
-2718.061533
-2722.822454
-2720.900204
-2716.407504
-2717.100408
-2720.006135
-2719.112065
-2714.909937
-2711.601879
-2717.323925
-2718.66503
-2711.892451
-2711.914803
-2717.949774
-2719.246175
-2714.708771
-2712.406541
-2716.116931
-2716.87689
-2712.607707
-2709.903146
-2717.100408
-2723.425951
-2723.783579
-2719.983783
-2722.531882
-2727.806893
-2726.555196
-2724.43178
-2723.649469
-2728.388039
-2729.393867
-2729.438571
-2729.840902
-2731.204358
-2735.205321
-2735.652356
-2734.333603
-2739.228635
-2740.681498
-2734.825341
-2732.791332
-2738.803952
-2743.631928
-2739.966242
-2736.389963
-2737.932234
-2742.916673
-2742.536693
-2740.681498
-2742.737859
-2745.241254
-2743.743687
-2737.932234
-2736.300556
-2740.547388
-2736.501722
-2735.026507
-2729.013888
-2726.264623
-2726.979879
-2714.507605
-2695.285105
-2684.086881
-2683.841012
-2689.07132
-2695.35216
-2708.897318
-2713.501777
-2713.099445
-2710.21607
-2714.641716
-2727.270451
-2734.802989
-2740.480332
-2747.632891
-2757.378251
-2758.987577
-2755.634815
-2754.897208
-2759.188743
-2760.574551
-2758.562894
-2759.434612
-2762.273283
-2762.563856
-2755.254836
-2754.293711
-2761.066289
-2758.451135
-2730.243233
-2690.904163
-2608.47093
-2460.435326
-2296.507632
-2169.214448
-2143.040555
-2188.146375
-2323.888519
-2477.288541
-2556.950159
-2650.983948
-2882.212744
-2977.386472
-2902.463424
-2812.251784
-2751.231522
-2693.586373
-2648.145276
-2643.183189
-2651.498038
-2654.448468
-2656.124849
-2656.281311
-2651.542741
-2642.959671
-2638.466971
-2637.707011
-2637.192921
-2629.213349
-2619.713857
-2617.635145
-2617.791607
-2609.275592
-2598.233831
-2596.378636
-2593.785834
-2585.403929
-2573.825726
-2565.063842
-2559.252388
-2548.903531
-2536.118333
-2524.987164
-2518.303993
-2508.40217
-2490.409015
-2475.053367
-2462.737556
-2447.53837
-2428.494683
-2407.506395
-2394.005942
-2379.522011
-2360.880656
-2344.608586
-2337.970118
-2330.929319
-2321.072199
-2311.192728
-2311.438598
-2316.154816
-2318.613508
-2320.535758
-2332.449237
-2351.001185
-2369.888409
-2393.715369
-2425.857177
-2461.955245
-2493.717074
-2519.42158
-2545.327252
-2571.590551
-2597.272706
-2615.578784
-2632.811979
-2653.330881
-2671.279332
-2675.570867
-2678.633056
-2689.205431
-2696.805024
-2698.68257
-2700.113082
-2704.359913
-2710.327829
-2712.13832
-2710.059608
-2709.925498
-2714.105274
-2716.474559
-2712.361838
-2709.791387
-2716.340448
-2718.955603
-2715.424027
-2714.574661
-2716.988649
-2719.17912
-2714.373495
-2710.46194
-2713.345315
-2714.909937
-2713.948812
-2709.94785
-2712.205376
-2714.798178
-2711.646582
-2707.936193
-2708.383227
-2710.327829
-2708.651448
-2705.611611
-2707.600916
-2714.418198
-2716.161634
-2713.099445
-2713.322963
-2718.441512
-2715.871062
-2712.00421
-2713.658239
-2718.776789
-2723.805931
-2723.872986
-2722.934213
-2727.002231
-2731.249062
-2729.438571
-2722.64364
-2723.470655
-2729.550329
-2727.829245
-2725.303498
-2725.057629
-2725.504664
-2725.884643
-2722.956565
-2722.353068
-2726.935175
-2729.505626
-2724.968222
-2723.649469
-2729.952661
-2729.483274
-2722.464826
-2718.374457
-2721.034315
-2721.794274
-2718.977954
-2720.855501
-2719.402637
-2712.563004
-2709.344352
-2700.649524
-2685.025654
-2668.507715
-2659.455259
-2663.277407
-2676.152012
-2693.385207
-2695.978009
-2692.625248
-2694.860422
-2699.509585
-2704.918707
-2709.322001
-2715.580489
-2726.018754
-2730.779675
-2730.354992
-2730.57851
-2735.562949
-2738.178103
-2735.093562
-2731.807856
-2732.545463
-2735.250024
-2733.14896
-2731.204358
-2734.847693
-2739.385097
-2734.490065
-2710.797216
-2680.845878
-2620.876148
-2486.430405
-2320.982792
-2185.307704
-2122.253433
-2140.715973
-2255.715699
-2422.280898
-2528.116408
-2604.402912
-2807.312048
-2953.872437
-2918.780198
-2826.109865
-2757.959397
-2707.019771
-2649.285215
-2625.681773
-2624.452427
-2629.593328
-2633.616642
-2634.689526
-2630.554453
-2624.944165
-2623.33484
-2624.944165
-2619.915023
-2612.538947
-2606.1687
-2601.050151
-2591.885935
-2582.140575
-2573.803374
-2571.121165
-2568.528362
-2558.537133
-2551.563388
-2549.127048
-2545.170789
-2532.564406
-2521.47794
-2511.956097
-2504.825891
-2488.710283
-2470.404204
-2460.301216
-2450.958187
-2434.641413
-2412.624945
-2399.526823
-2389.043854
-2371.073052
-2351.381165
-2336.316089
-2324.559072
-2312.824406
-2301.380313
-2294.317161
-2296.664095
-2298.876917
-2296.775853
-2298.184013
-2308.555223
-2326.123694
-2343.669813
-2362.266465
-2391.54725
-2428.941718
-2461.575265
-2488.375007
-2517.432275
-2546.154266
-2571.32233
-2589.89663
-2606.593383
-2625.413552
-2640.63509
-2647.29591
-2653.375584
-2664.417346
-2676.196715
-2676.375529
-2676.487288
-2685.942076
-2688.065492
-2684.288047
-2684.310399
-2691.306495
-2695.486271
-2693.161689
-2692.02175
-2695.374512
-2698.660219
-2696.201527
-2692.826413
-2694.301628
-2696.693265
-2694.860422
-2689.339541
-2691.418253
-2698.056721
-2700.068378
-2693.698131
-2689.4513
-2694.480442
-2696.76032
-2688.780748
-2685.405634
-2689.719521
-2693.318152
-2688.959561
-2684.243343
-2686.366759
-2687.730216
-2684.265695
-2684.019826
-2688.333713
-2693.340503
-2691.105329
-2689.764224
-2694.70396
-2702.057684
-2702.191794
-2697.162652
-2695.978009
-2702.549422
-2705.85748
-2701.565945
-2700.381303
-2703.868175
-2704.203451
-2697.833204
-2696.469748
-2703.957582
-2710.886623
-2709.836091
-2704.628134
-2707.198585
-2710.707809
-2703.488195
-2701.007152
-2705.20928
-2700.671876
-2694.011056
-2687.551402
-2678.186021
-2661.153991
-2651.162762
-2651.855666
-2661.377509
-2680.220029
-2686.746739
-2681.024692
-2683.751605
-2687.350236
-2693.094634
-2700.671876
-2708.249117
-2714.574661
-2720.96726
-2721.302536
-2719.469693
-2722.464826
-2725.236443
-2723.090675
-2716.74278
-2719.201472
-2723.828283
-2725.191739
-2720.609632
-2723.291841
-2727.76219
-2719.916728
-2690.904163
-2657.756526
-2594.277572
-2455.719108
-2296.35117
-2168.298026
-2124.600366
-2155.758697
-2273.038301
-2416.961183
-2493.67237
-2569.087156
-2774.075004
-2893.05334
-2859.659834
-2781.875763
-2729.527978
-2684.019826
-2633.661346
-2613.924755
-2613.947107
-2620.496168
-2626.128808
-2627.112285
-2620.451465
-2610.661401
-2606.951011
-2607.867433
-2603.419435
-2595.126938
-2589.650761
-2589.986037
-2587.952028
-2578.676054
-2570.249447
-2568.818935
-2564.460345
-2554.849095
-2543.874388
-2536.163036
-2532.765571
-2523.511949
-2509.720923
-2502.791882
-2495.192289
-2482.407091
-2465.464469
-2451.874608
-2441.324585
-2426.639489
-2404.578317
-2386.696921
-2374.850497
-2359.338386
-2338.908892
-2324.737886
-2319.395819
-2309.404589
-2298.943972
-2290.405606
-2291.187917
-2295.770025
-2297.424054
-2299.927449
-2315.327801
-2336.986642
-2357.058508
-2380.706654
-2412.580241
-2447.985404
-2479.501364
-2505.049408
-2532.251481
-2560.928769
-2582.699368
-2597.742092
-2614.908232
-2633.437828
-2648.368794
-2653.286177
-2660.841067
-2672.083994
-2682.522259
-2682.902239
-2682.343445
-2688.333713
-2693.787538
-2694.592201
-2693.474614
-2696.357989
-2697.162652
-2693.116986
-2689.317189
-2690.300666
-2695.73214
-2692.91582
-2688.758396
-2689.250134
-2692.334675
-2691.284143
-2687.037311
-2686.255
-2690.390073
-2691.619419
-2687.193774
-2686.545573
-2690.568887
-2692.133509
-2688.445471
-2685.875021
-2686.478518
-2688.445471
-2688.825451
-2683.483384
-2687.439643
-2692.133509
-2692.468785
-2691.619419
-2692.088806
-2697.1403
-2696.290934
-2692.804062
-2694.860422
-2699.375474
-2702.839995
-2697.27441
-2697.453224
-2705.72337
-2708.919669
-2703.644658
-2700.649524
-2704.516376
-2708.897318
-2707.690323
-2706.483329
-2707.846786
-2709.120835
-2706.013942
-2700.269544
-2703.331733
-2700.761283
-2692.02175
-2688.356064
-2685.22682
-2673.916837
-2652.325052
-2643.741982
-2650.849837
-2668.217143
-2681.739948
-2680.667064
-2682.231686
-2685.696207
-2689.116024
-2693.653428
-2701.431835
-2715.289916
-2721.973088
-2718.508568
-2714.597012
-2718.374457
-2721.391943
-2718.061533
-2713.904108
-2716.094579
-2719.939079
-2718.463864
-2715.021695
-2716.608669
-2720.430818
-2719.246175
-2711.020733
-2690.010093
-2659.321148
-2578.430185
-2425.521901
-2265.304597
-2149.969596
-2124.309793
-2160.027881
-2290.9644
-2441.101067
-2508.849205
-2594.791662
-2812.810577
-2905.458558
-2846.67347
-2759.188743
-2706.259812
-2657.667119
-2615.019991
-2604.738188
-2612.650706
-2620.205596
-2624.944165
-2622.239604
-2615.064694
-2611.331953
-2611.04138
-2607.57686
-2600.960744
-2596.356284
-2596.602153
-2592.422377
-2581.715892
-2572.931656
-2572.08229
-2571.009406
-2559.341795
-2547.473019
-2543.38265
-2539.336984
-2530.016307
-2517.856958
-2511.084379
-2505.228222
-2489.805518
-2471.611198
-2459.988291
-2451.941663
-2436.831884
-2412.759055
-2395.90584
-2384.528802
-2369.977816
-2352.275235
-2336.606662
-2327.35304
-2317.518272
-2302.475548
-2292.081987
-2288.66217
-2289.913868
-2289.288019
-2292.014932
-2306.007124
-2320.915737
-2336.517255
-2354.331595
-2381.55602
-2416.357686
-2446.979576
-2474.539277
-2505.675257
-2537.437086
-2562.806316
-2580.486546
-2600.960744
-2622.44077
-2637.81877
-2647.474724
-2654.515523
-2665.311416
-2673.782727
-2674.050948
-2672.732195
-2679.907105
-2686.523221
-2684.869192
-2684.265695
-2688.825451
-2693.899297
-2693.072282
-2689.339541
-2691.015922
-2694.793367
-2694.122814
-2688.713692
-2687.14907
-2691.217088
-2692.669951
-2689.496003
-2688.445471
-2690.591239
-2691.842936
-2691.328846
-2690.792405
-2695.86625
-2696.045064
-2692.513489
-2690.881811
-2691.954695
-2693.742835
-2688.668989
-2684.980951
-2687.66316
-2691.217088
-2688.624285
-2686.858497
-2690.702998
-2696.983838
-2697.341466
-2694.145166
-2693.944
-2698.079073
-2699.397826
-2698.436701
-2700.962448
-2706.550384
-2706.796254
-2704.69519
-2704.561079
-2709.813739
-2712.540652
-2709.165538
-2705.879832
-2709.389056
-2712.361838
-2708.226765
-2704.96341
-2707.712675
-2712.361838
-2711.601879
-2707.064474
-2705.946887
-2709.277297
-2705.768073
-2704.203451
-2696.425044
-2692.982875
-2695.821547
-2684.019826
-2662.316282
-2649.978119
-2653.129715
-2659.477611
-2672.28516
-2684.869192
-2687.976085
-2686.679684
-2685.182117
-2690.792405
-2701.275373
-2709.724332
-2714.976992
-2722.822454
-2729.349164
-2727.292803
-2723.872986
-2726.465789
-2729.393867
-2727.806893
-2724.387076
-2724.43178
-2731.629042
-2734.914748
-2730.243233
-2729.349164
-2733.439533
-2726.689306
-2698.257887
-2657.912988
-2565.354415
-2406.455863
-2243.310481
-2132.311718
-2119.057133
-2179.093919
-2328.112999
-2473.086414
-2539.940481
-2653.509695
-2880.201087
-2938.203864
-2860.017462
-2776.667807
-2720.676687
-2661.176343
-2622.150197
-2622.776046
-2631.202654
-2634.935395
-2635.583596
-2635.561244
-2634.823636
-2626.061753
-2618.97625
-2619.937375
-2617.411627
-2610.124959
-2600.759578
-2597.630334
-2597.831499
-2591.595363
-2582.229982
-2576.887915
-2574.183354
-2566.695519
-2554.312653
-2548.12122
-2545.036679
-2534.106676
-2521.187368
-2513.408961
-2504.714132
-2491.683065
-2472.460565
-2456.076736
-2446.845466
-2432.026259
-2410.523881
-2390.831994
-2377.800927
-2365.105136
-2348.229569
-2331.733982
-2322.703877
-2317.49592
-2308.39876
-2300.799167
-2301.08974
-2306.834138
-2310.745694
-2315.774836
-2330.124656
-2354.845685
-2380.974875
-2403.907764
-2431.936852
-2467.476126
-2501.137853
-2527.401153
-2552.904493
-2584.845136
-2610.884918
-2626.553491
-2642.020898
-2660.483439
-2674.810907
-2682.097576
-2684.355102
-2691.038274
-2697.162652
-2699.040198
-2697.319114
-2704.494024
-2713.702943
-2713.233556
-2710.417236
-2711.11014
-2715.938117
-2715.424027
-2710.238422
-2710.059608
-2713.233556
-2712.920632
-2707.600916
-2705.566908
-2709.858443
-2710.819568
-2708.15971
-2706.639791
-2707.377399
-2708.718504
-2706.036294
-2700.761283
-2702.974105
-2707.556213
-2706.639791
-2703.331733
-2706.706847
-2712.808873
-2709.254945
-2704.31521
-2704.96341
-2711.132492
-2712.719466
-2710.439588
-2711.467768
-2716.139283
-2719.335582
-2716.988649
-2716.698076
-2723.872986
-2729.326812
-2729.706792
-2725.348201
-2727.784542
-2731.696097
-2729.237405
-2724.632946
-2725.214091
-2730.287937
-2730.734972
-2727.091638
-2727.985707
-2730.734972
-2731.807856
-2727.225748
-2727.672783
-2734.087734
-2735.361783
-2729.68444
-2729.326812
-2732.366649
-2731.696097
-2729.773847
-2727.516321
-2728.343335
-2721.079018
-2711.400713
-2710.618402
-2705.075169
-2689.786576
-2672.66514
-2667.703052
-2679.169497
-2692.334675
-2697.989666
-2697.632038
-2702.549422
-2710.238422
-2713.03239
-2717.480387
-2727.739838
-2739.563911
-2741.955548
-2739.787428
-2739.630966
-2744.324832
-2745.330661
-2741.463809
-2738.178103
-2742.223768
-2745.420068
-2743.475466
-2738.491027
-2742.670803
-2745.732992
-2743.095487
-2731.293765
-2706.572736
-2672.553381
-2579.972455
-2416.648259
-2260.521324
-2151.981253
-2128.198997
-2180.546782
-2335.55613
-2492.912411
-2561.532266
-2669.111212
-2894.662666
-2961.09205
-2883.464442
-2788.357769
-2732.679574
-2682.65637
-2640.478628
-2630.420343
-2636.187093
-2645.351308
-2651.609796
-2646.446544
-2637.639956
-2633.415476
-2633.102552
-2626.195863
-2616.428151
-2615.847005
-2614.640011
-2610.840215
-2600.491357
-2592.578839
-2591.662418
-2587.549697
-2575.323293
-2565.265008
-2562.180467
-2557.128973
-2545.394307
-2535.201911
-2526.752952
-2519.332173
-2505.541146
-2488.330303
-2477.288541
-2469.040748
-2452.455753
-2433.412067
-2419.174006
-2407.461692
-2388.753282
-2368.279084
-2352.051717
-2342.194598
-2330.81756
-2316.735961
-2309.449292
-2306.85649
-2306.051827
-2304.196632
-2307.012952
-2319.909909
-2334.393839
-2346.888464
-2364.434584
-2398.990381
-2432.987384
-2459.943588
-2486.050425
-2517.208757
-2549.417621
-2571.5682
-2591.505956
-2612.82952
-2633.527235
-2645.172494
-2651.922721
-2661.042233
-2675.660274
-2681.851707
-2681.628189
-2687.082015
-2692.848765
-2697.028541
-2696.76032
-2697.564983
-2702.795291
-2703.890527
-2700.068378
-2696.827376
-2700.113082
-2703.130567
-2701.409483
-2698.101425
-2697.699094
-2699.911916
-2698.928439
-2693.005227
-2692.357027
-2695.128643
-2692.669951
-2687.484346
-2689.719521
-2696.425044
-2697.27441
-2694.525146
-2693.631076
-2697.542631
-2698.54846
-2695.59803
-2693.385207
-2695.799195
-2701.476538
-2700.157785
-2697.877908
-2700.962448
-2702.951753
-2701.029503
-2697.699094
-2701.945925
-2707.824434
-2705.298687
-2703.443492
-2708.986724
-2713.300611
-2714.95464
-2710.774864
-2707.422102
-2710.97603
-2711.467768
-2706.572736
-2704.762245
-2711.244251
-2715.222861
-2708.651448
-2706.975067
-2710.953678
-2713.747646
-2709.925498
-2706.550384
-2705.745722
-2697.922611
-2693.273448
-2689.384245
-2680.398843
-2664.529105
-2650.693375
-2647.765296
-2658.270616
-2677.515468
-2683.103404
-2679.348311
-2680.287085
-2686.769091
-2695.083939
-2702.460015
-2710.841919
-2718.307402
-2720.453169
-2715.692248
-2715.647544
-2721.883681
-2724.901167
-2718.776789
-2716.027524
-2719.223823
-2723.828283
-2721.168425
-2714.194681
-2716.049876
-2722.442475
-2718.732085
-2694.145166
-2660.706956
-2599.150252
-2461.88819
-2299.525118
-2170.868477
-2128.087238
-2154.417593
-2262.577684
-2409.026314
-2489.760815
-2559.073574
-2760.060461
-2893.768596
-2863.638444
-2782.903943
-2726.801065
-2681.270561
-2635.561244
-2618.797436
-2616.741075
-2618.328049
-2625.212386
-2625.704125
-2621.166721
-2613.902404
-2611.309601
-2613.72359
-2610.594345
-2603.888822
-2599.999619
-2597.518575
-2589.874278
-2578.698406
-2570.919999
-2570.428261
-2568.617769
-2561.241694
-2553.440935
-2550.110525
-2543.51676
-2528.071705
-2516.493501
-2511.106731
-2502.993048
-2485.826908
-2470.73948
-2460.278864
-2452.947492
-2437.524788
-2415.843596
-2400.577354
-2389.468538
-2370.827183
-2352.007014
-2338.305394
-2331.376354
-2323.866168
-2312.153853
-2306.923545
-2310.678638
-2315.104284
-2316.892423
-2320.871034
-2334.170322
-2352.834028
-2370.223686
-2394.162404
-2426.751247
-2461.709376
-2490.85605
-2514.973583
-2540.879254
-2570.29415
-2591.707121
-2609.141482
-2626.128808
-2644.501942
-2655.387241
-2662.226875
-2669.312378
-2679.728291
-2685.405634
-2686.769091
-2687.305532
-2693.80989
-2698.839033
-2698.839033
-2698.68257
-2701.633001
-2704.471672
-2700.940096
-2696.469748
-2699.174309
-2703.711713
-2700.9848
-2696.469748
-2696.872079
-2700.493062
-2702.549422
-2696.76032
-2695.419216
-2698.03437
-2698.235535
-2695.754492
-2696.313285
-2701.454187
-2702.191794
-2696.62621
-2695.285105
-2700.09073
-2702.348256
-2698.593163
-2694.100463
-2698.146128
-2702.214146
-2699.151957
-2697.095596
-2700.560117
-2706.192756
-2706.148053
-2700.873041
-2700.9848
-2706.259812
-2707.667972
-2703.398788
-2703.823472
-2709.210242
-2710.730161
-2706.416274
-2703.108216
-2705.991591
-2708.852614
-2706.818605
-2705.075169
-2707.578565
-2707.64562
-2704.270506
-2701.945925
-2707.377399
-2706.61744
-2697.833204
-2696.24623
-2695.173346
-2681.717596
-2658.695299
-2650.536913
-2661.064584
-2676.867268
-2684.869192
-2684.511564
-2687.394939
-2694.905125
-2701.744759
-2703.756416
-2708.427931
-2721.950736
-2727.605728
-2727.538672
-2729.036239
-2730.220882
-2726.711658
-2722.218957
-2719.849672
-2726.823417
-2731.025545
-2727.873949
-2718.061533
-2723.068324
-2732.523111
-2732.344297
-2720.408466
-2703.197623
-2676.464936
-2580.687711
-2412.736703
-2256.252141
-2151.780087
-2128.2437
-2172.231933
-2314.389028
-2460.278864
-2517.678144
-2617.344572
-2836.972813
-2902.083445
-2838.738601
-2764.15083
-2719.022658
-2668.865343
-2630.062715
-2625.547662
-2629.950956
-2636.745886
-2640.992718
-2635.717706
-2629.325107
-2632.767276
-2640.590386
-2637.707011
-2625.078276
-2614.774122
-2617.590441
-2617.076351
-2604.693485
-2595.395159
-2591.371845
-2586.521517
-2579.570124
-2572.931656
-2569.981226
-2565.823801
-2552.144534
-2539.336984
-2536.364202
-2534.263138
-2519.354525
-2502.590716
-2486.475108
-2468.504306
-2446.756059
-2432.875625
-2422.705582
-2411.507358
-2395.637619
-2372.056529
-2356.522066
-2349.213046
-2340.764086
-2336.047868
-2330.750505
-2319.038191
-2311.349191
-2303.816653
-2308.242298
-2328.582386
-2349.369508
-2367.295607
-2383.701787
-2409.607459
-2450.064117
-2480.797765
-2502.456606
-2534.397249
-2565.287359
-2591.103624
-2608.694447
-2627.335802
-2654.627282
-2679.169497
-2680.711768
-2673.17923
-2672.754547
-2674.140355
-2680.175326
-2680.555306
-2696.380341
-2709.657277
-2704.538727
-2697.766149
-2696.536803
-2703.957582
-2698.950791
-2696.514451
-2700.403655
-2703.04116
-2702.504719
-2698.436701
-2703.890527
-2715.066399
-2721.906033
-2716.340448
-2700.180137
-2693.027579
-2697.27441
-2694.346332
-2693.385207
-2702.057684
-2709.925498
-2711.914803
-2708.919669
-2707.869137
-2700.716579
-2694.860422
-2693.854593
-2700.515413
-2708.562041
-2707.936193
-2707.824434
-2707.980896
-2715.46873
-2715.044047
-2718.396809
-2730.310289
-2737.462847
-2725.079981
-2716.005172
-2718.910899
-2730.779675
-2738.111048
-2734.42301
-2722.733047
-2719.246175
-2730.891434
-2734.981803
-2727.270451
-2724.498835
-2726.801065
-2727.493969
-2725.862292
-2724.968222
-2727.002231
-2743.00608
-2745.777696
-2734.914748
-2714.641716
-2700.9848
-2705.365742
-2714.194681
-2710.908975
-2692.468785
-2682.27639
-2702.057684
-2726.48814
-2733.975975
-2710.283126
-2684.399806
-2673.514506
-2686.746739
-2699.95662
-2708.852614
-2723.649469
-2733.730106
-2730.913786
-2747.208208
-2776.600751
-2773.002121
-2756.327719
-2742.983728
-2746.045917
-2743.788391
-2759.501667
-2789.609467
-2827.115694
-2857.134087
-2819.560804
-2766.095432
-2709.456111
-2660.75166
-2597.697389
-2466.403242
-2304.93424
-2156.183381
-2093.419682
-2114.452674
-2270.33374
-2492.532431
-2602.435959
-2662.830372
-2849.623901
-2966.098841
-2906.576145
-2824.254671
-2793.386912
-2764.553161
-2707.310344
-2664.08207
-2659.030576
-2664.484401
-2695.128643
-2703.309381
-2687.752567
-2673.268637
-2706.393922
-2755.545408
-2782.702778
-2771.906885
-2746.98469
-2719.626155
-2721.458998
-2736.613481
-2746.582359
-2730.869082
-2672.508678
-2609.275592
-2591.908287
-2609.588517
-2614.505901
-2574.65274
-2547.428316
-2541.527455
-2527.736429
-2505.764664
-2485.692797
-2477.534411
-2461.217637
-2441.01166
-2423.420837
-2398.677456
-2376.370415
-2364.434584
-2353.549284
-2356.387956
-2358.310206
-2353.482229
-2362.132354
-2357.08086
-2358.10904
-2352.319938
-2333.879749
-2327.330688
-2342.999261
-2346.463781
-2365.507467
-2414.457788
-2457.596655
-2474.092242
-2473.242876
-2496.958077
-2543.807333
-2579.01133
-2599.954915
-2618.305697
-2640.836256
-2667.166611
-2675.906143
-2690.47948
-2726.465789
-2752.304405
-2731.830207
-2716.943946
-2756.506533
-2763.592036
-2727.784542
-2703.197623
-2697.050893
-2717.502739
-2730.600861
-2710.931326
-2700.291896
-2701.834166
-2710.797216
-2730.757324
-2764.463754
-2765.626045
-2722.464826
-2734.601824
-2768.442365
-2769.962283
-2724.632946
-2725.124684
-2729.282108
-2721.838978
-2692.535841
-2688.624285
-2703.734065
-2714.552309
-2721.682515
-2717.145111
-2709.880794
-2719.290879
-2734.355954
-2740.18976
-2733.573643
-2710.506643
-2697.810852
-2696.76032
-2694.368684
-2696.76032
-2691.462957
-2694.972181
-2697.1403
-2700.269544
-2706.818605
-2710.618402
-2708.092655
-2691.172384
-2678.074262
-2682.298742
-2688.55723
-2697.699094
-2722.576585
-2731.584338
-2715.356972
-2701.923573
-2694.18987
-2688.601934
-2689.406596
-2675.637922
-2670.094689
-2677.493117
-2693.072282
-2698.190832
-2698.593163
-2679.929457
-2641.819732
-2617.948069
-2618.708029
-2635.471837
-2645.239549
-2642.512636
-2648.346442
-2657.488305
-2671.63696
-2677.202544
-2681.091747
-2700.649524
-2715.424027
-2721.168425
-2721.973088
-2714.239384
-2706.170405
-2696.916782
-2681.449375
-2684.064529
-2690.881811
-2689.607762
-2688.356064
-2697.386169
-2713.814701
-2701.677704
-2675.928494
-2655.342538
-2617.590441
-2529.613975
-2376.839802
-2228.848902
-2115.659668
-2097.867679
-2158.418555
-2314.009048
-2467.766698
-2534.129028
-2652.950901
-2874.501392
-2924.390486
-2839.632671
-2741.575568
-2672.575733
-2615.467026
-2595.886898
-2608.962668
-2604.581726
-2590.634238
-2596.892726
-2607.018066
-2587.907325
-2577.022025
-2578.810165
-2580.441842
-2576.105604
-2562.761612
-2563.141592
-2568.863639
-2564.460345
-2557.955987
-2549.372917
-2544.343775
-2546.780115
-2541.125124
-2536.58772
-2519.980373
-2501.22726
-2490.386664
-2484.016417
-2470.180687
-2455.115611
-2434.194378
-2424.851349
-2422.996154
-2409.026314
-2382.561848
-2368.301436
-2362.445278
-2355.449182
-2345.077973
-2326.503673
-2312.980868
-2302.140272
-2287.790452
-2269.193801
-2261.862428
-2264.634045
-2278.67094
-2277.77687
-2277.195725
-2286.449347
-2311.393894
-2341.546397
-2369.150802
-2403.72895
-2439.715259
-2471.387681
-2494.18646
-2517.924013
-2540.476923
-2557.576008
-2578.921924
-2598.949087
-2621.501997
-2633.97427
-2643.563168
-2652.615625
-2646.804171
-2643.518465
-2647.273558
-2660.684605
-2675.883791
-2677.604875
-2667.300721
-2658.561189
-2665.914913
-2672.039291
-2668.217143
-2664.305587
-2676.755509
-2681.874058
-2668.530067
-2661.668081
-2664.506753
-2660.23757
-2650.268692
-2648.637014
-2652.839142
-2648.592311
-2644.591349
-2647.675889
-2661.623378
-2677.582524
-2667.144259
-2656.728346
-2657.756526
-2663.165648
-2649.173456
-2643.317299
-2648.122924
-2656.638939
-2659.075279
-2665.199657
-2661.422212
-2640.478628
-2636.902349
-2642.222064
-2650.425154
-2672.218105
-2691.530012
-2682.902239
-2677.15784
-2680.376492
-2677.291951
-2669.871172
-2676.263771
-2673.849782
-2661.288102
-2657.42125
-2658.203561
-2667.837163
-2674.855611
-2669.84882
-2668.261846
-2669.178268
-2659.790535
-2658.471782
-2658.672948
-2659.835238
-2652.012128
-2627.939299
-2620.205596
-2639.584558
-2660.595198
-2666.808983
-2664.484401
-2659.388204
-2661.489268
-2662.562151
-2664.104422
-2675.570867
-2690.144204
-2698.861384
-2700.068378
-2702.214146
-2709.94785
-2712.00421
-2698.391998
-2684.690378
-2686.523221
-2696.425044
-2699.755454
-2696.134471
-2695.463919
-2696.201527
-2694.905125
-2668.172439
-2631.090895
-2563.610979
-2422.437361
-2254.911036
-2132.110552
-2111.234023
-2163.000663
-2299.458063
-2441.637509
-2495.929896
-2561.956949
-2759.121687
-2859.458668
-2825.975755
-2765.156658
-2727.538672
-2671.055814
-2604.671133
-2588.332008
-2597.898555
-2612.807168
-2625.860587
-2632.677869
-2631.53793
-2614.37179
-2607.263935
-2612.047209
-2614.014162
-2614.170625
-2592.623543
-2593.115281
-2604.045284
-2598.032665
-2598.412645
-2609.476758
-2605.520499
-2591.125976
-2587.683807
-2600.960744
-2614.23768
-2588.600229
-2541.192179
-2519.443932
-2512.023152
-2506.725789
-2495.147585
-2481.781242
-2461.172934
-2432.383887
-2406.388808
-2397.917497
-2385.7805
-2365.730985
-2355.15861
-2353.035194
-2338.059525
-2320.423999
-2308.599926
-2294.786548
-2287.723397
-2289.533888
-2294.272458
-2304.04017
-2329.342345
-2353.88456
-2361.148877
-2380.974875
-2415.173044
-2456.188495
-2488.732635
-2517.834606
-2538.12999
-2560.481734
-2588.175546
-2610.639049
-2627.089933
-2645.127791
-2657.242436
-2665.579637
-2685.338579
-2717.502739
-2715.938117
-2677.806041
-2668.664177
-2677.493117
-2686.903201
-2693.787538
-2704.091692
-2713.457073
-2719.536748
-2710.283126
-2698.235535
-2699.397826
-2707.869137
-2713.121797
-2714.44055
-2718.374457
-2728.768018
-2729.215053
-2703.175271
-2689.496003
-2686.299704
-2699.509585
-2712.250079
-2714.261736
-2715.826358
-2716.921594
-2709.254945
-2699.777806
-2697.721445
-2700.60482
-2701.610649
-2705.186928
-2709.903146
-2715.200509
-2715.133454
-2712.697114
-2712.585355
-2725.191739
-2740.994423
-2739.183931
-2734.221844
-2731.405524
-2734.534768
-2730.891434
-2730.57851
-2736.99346
-2746.582359
-2746.09062
-2745.017737
-2750.784487
-2753.444344
-2745.44242
-2739.630966
-2741.35205
-2749.242216
-2751.544446
-2743.475466
-2732.63487
-2733.819513
-2735.741763
-2720.900204
-2694.078111
-2680.108271
-2685.718559
-2691.440605
-2706.416274
-2717.994478
-2714.82053
-2713.658239
-2718.217995
-2725.415257
-2742.648452
-2747.923463
-2748.728126
-2757.400603
-2763.860257
-2756.59594
-2752.192647
-2754.986615
-2755.791277
-2755.835981
-2751.075059
-2751.20917
-2751.902074
-2751.253873
-2743.922501
-2746.492952
-2754.986615
-2741.843789
-2720.810797
-2681.605838
-2551.049298
-2371.922418
-2203.099692
-2123.996869
-2109.490586
-2176.322302
-2334.14797
-2453.685099
-2509.407998
-2689.361893
-2905.704427
-2902.932811
-2807.244993
-2735.250024
-2687.864326
-2638.265805
-2621.770218
-2631.67204
-2641.305642
-2647.184151
-2646.357137
-2642.400878
-2638.71284
-2631.716744
-2634.086029
-2628.878072
-2621.92668
-2615.467026
-2609.812034
-2606.951011
-2600.357246
-2588.577877
-2581.984112
-2575.122127
-2565.488525
-2555.676109
-2547.070688
-2541.952138
-2537.370031
-2520.807388
-2503.909469
-2493.940591
-2486.899792
-2473.846373
-2452.41105
-2436.295442
-2423.398486
-2408.33341
-2389.401482
-2371.229514
-2358.086688
-2341.993432
-2319.976964
-2299.234545
-2287.879859
-2281.286094
-2279.408548
-2273.865315
-2272.233638
-2282.38133
-2283.655379
-2289.086853
-2307.661153
-2335.377316
-2369.486078
-2399.549174
-2429.276994
-2464.369233
-2496.10871
-2526.864711
-2556.078441
-2585.493336
-2608.694447
-2634.980099
-2651.006299
-2659.276445
-2672.463974
-2680.35414
-2677.694282
-2693.653428
-2705.008114
-2705.522204
-2705.34339
-2713.300611
-2716.206338
-2715.7146
-2707.198585
-2710.998381
-2717.994478
-2724.185911
-2715.379323
-2709.456111
-2713.658239
-2713.457073
-2717.100408
-2738.379268
-2768.084737
-2766.900094
-2729.68444
-2683.282218
-2681.985817
-2697.833204
-2690.725349
-2687.640809
-2691.999399
-2701.521242
-2704.605783
-2701.342428
-2700.023675
-2708.830262
-2712.652411
-2702.638829
-2703.577602
-2711.467768
-2708.897318
-2697.475576
-2701.521242
-2711.177195
-2711.691286
-2712.026562
-2716.027524
-2722.017792
-2712.853576
-2715.044047
-2711.579527
-2710.350181
-2709.433759
-2712.428893
-2714.284088
-2712.048913
-2712.026562
-2717.77096
-2721.369591
-2705.030466
-2704.605783
-2705.298687
-2702.616477
-2716.3628
-2703.689361
-2696.648562
-2687.752567
-2686.478518
-2690.613591
-2684.980951
-2646.580654
-2631.940261
-2649.419326
-2656.035442
-2653.397936
-2664.864381
-2671.234628
-2685.09271
-2677.873096
-2673.805079
-2689.719521
-2704.404617
-2712.339486
-2722.017792
-2725.303498
-2727.941004
-2722.062495
-2722.397771
-2721.61546
-2722.576585
-2726.085809
-2717.726257
-2710.886623
-2715.960469
-2719.067361
-2714.597012
-2707.042123
-2706.61744
-2694.033407
-2659.72348
-2562.269874
-2396.688151
-2213.672067
-2067.737528
-2008.147777
-2025.626841
-2167.225142
-2346.463781
-2427.958241
-2558.157153
-2829.417924
-2910.621811
-2823.852339
-2727.851597
-2673.626265
-2616.249337
-2577.692578
-2584.398101
-2601.184261
-2604.24645
-2588.644932
-2584.465156
-2587.84027
-2591.729473
-2598.278534
-2587.259124
-2573.401043
-2569.489487
-2553.88797
-2548.456496
-2553.530342
-2552.323348
-2540.074592
-2529.16694
-2530.820969
-2523.087266
-2506.435216
-2499.148548
-2493.962943
-2483.189402
-2473.17582
-2450.712317
-2431.735686
-2437.189512
-2428.315869
-2393.4695
-2375.677511
-2354.108078
-2347.424906
-2330.862264
-2307.88467
-2289.064501
-2273.395929
-2264.18701
-2241.6341
-2225.987879
-2221.763399
-2216.376628
-2211.436893
-2208.017076
-2217.829492
-2223.0598
-2232.447533
-2256.833286
-2282.023702
-2312.466778
-2353.281063
-2384.394692
-2416.357686
-2456.188495
-2486.385701
-2510.726751
-2538.12999
-2568.595418
-2579.078386
-2591.193031
-2607.19688
-2617.679848
-2630.889729
-2633.236663
-2637.550549
-2655.610759
-2656.884808
-2639.472799
-2626.620546
-2637.483494
-2645.351308
-2642.378526
-2644.010203
-2659.119983
-2658.091802
-2647.631186
-2639.271634
-2651.609796
-2671.569904
-2674.363872
-2677.202544
-2669.111212
-2655.63311
-2653.263826
-2660.058756
-2666.540762
-2654.023785
-2614.572956
-2605.408741
-2623.401895
-2625.972346
-2638.131695
-2655.923683
-2669.491192
-2646.871227
-2617.56809
-2616.897537
-2614.394142
-2621.323183
-2633.437828
-2654.739041
-2656.571884
-2651.341576
-2654.001433
-2667.703052
-2672.352215
-2652.526218
-2624.631241
-2629.325107
-2648.771125
-2649.329919
-2626.173511
-2602.659476
-2599.865508
-2620.317354
-2628.252224
-2622.932508
-2617.299869
-2627.626375
-2633.102552
-2631.113247
-2631.314413
-2643.317299
-2687.52905
-2685.360931
-2657.42125
-2640.657442
-2617.098703
-2593.718778
-2575.300941
-2582.989941
-2599.530232
-2594.612848
-2581.69354
-2573.892781
-2583.191107
-2604.134691
-2608.716799
-2596.669209
-2614.930584
-2630.330936
-2637.058811
-2664.909084
-2719.000306
-2739.653318
-2700.9848
-2633.773104
-2610.706104
-2646.871227
-2664.171477
-2648.435849
-2625.681773
-2626.508787
-2640.076296
-2648.033517
-2636.79059
-2631.15795
-2555.989034
-2450.399393
-2319.753447
-2197.489404
-2092.23504
-2028.800789
-2070.84442
-2234.414486
-2373.48704
-2419.933965
-2584.554563
-2795.733845
-2813.190557
-2722.017792
-2626.262918
-2587.504993
-2549.194103
-2562.202819
-2601.251316
-2590.947162
-2532.586757
-2506.211699
-2558.425374
-2628.5875
-2657.264788
-2620.831444
-2549.842304
-2473.578152
-2453.95332
-2475.120422
-2478.942571
-2478.786108
-2478.450832
-2475.433347
-2472.482916
-2469.666597
-2470.046576
-2475.813326
-2470.851239
-2465.419765
-2464.548047
-2446.465486
-2407.506395
-2367.988511
-2348.207217
-2371.94477
-2370.044872
-2338.439505
-2310.410417
-2299.055731
-2299.525118
-2301.246202
-2267.316254
-2227.820722
-2234.682707
-2237.499027
-2225.205568
-2200.819814
-2186.045311
-2174.422404
-2169.974407
-2181.507907
-2204.060817
-2217.829492
-2242.751687
-2281.420205
-2328.671793
-2367.854401
-2395.39175
-2421.990326
-2433.501474
-2460.502381
-2486.899792
-2504.244745
-2504.580021
-2514.034809
-2523.869577
-2532.385592
-2554.133839
-2569.355377
-2573.199877
-2565.846153
-2575.680921
-2591.550659
-2590.880107
-2587.5944
-2587.169717
-2590.41072
-2589.069615
-2589.76252
-2591.908287
-2591.215383
-2587.549697
-2584.778081
-2586.43211
-2589.650761
-2589.561354
-2587.817918
-2585.627447
-2585.381578
-2586.074482
-2581.961761
-2579.793642
-2580.79947
-2585.895668
-2589.89663
-2591.148328
-2585.627447
-2582.297037
-2587.393235
-2587.549697
-2586.834441
-2591.707121
-2592.891764
-2591.796528
-2593.204688
-2598.077369
-2604.984058
-2604.38056
-2602.726531
-2605.006409
-2618.640973
-2617.277517
-2617.724552
-2621.814921
-2618.372752
-2610.057904
-2605.431092
-2604.291153
-2615.690543
-2616.29404
-2603.039456
-2599.440825
-2604.179395
-2596.311581
-2594.791662
-2594.903421
-2598.85968
-2585.91802
-2559.587665
-2553.709156
-2564.929731
-2578.184316
-2591.148328
-2595.573973
-2599.284363
-2604.38056
-2614.103569
-2628.855721
-2646.133619
-2644.34548
-2629.816846
-2624.094799
-2621.189072
-2628.676907
-2631.873206
-2631.694392
-2631.940261
-2633.46018
-2631.560282
-2630.196825
-2632.230834
-2637.707011
-2642.378526
-2639.09282
-2629.436866
-2612.583651
-2579.234848
-2480.507193
-2325.609604
-2169.929703
-2066.552885
-2042.703574
-2088.90463
-2234.794466
-2377.622113
-2436.183683
-2551.07165
-2761.043937
-2807.267345
-2742.581396
-2668.686529
-2615.847005
-2565.890856
-2522.126141
-2519.131007
-2534.218435
-2544.254368
-2547.294205
-2545.841342
-2549.127048
-2549.685842
-2548.277682
-2544.768458
-2539.448743
-2537.10181
-2538.107638
-2537.012403
-2524.204853
-2516.247632
-2514.750065
-2509.832681
-2499.707341
-2489.403187
-2480.551896
-2473.689911
-2460.547085
-2453.81921
-2449.102992
-2439.670556
-2427.690021
-2412.088503
-2400.756168
-2387.300418
-2371.721252
-2362.065299
-2349.369508
-2333.164493
-2305.873013
-2282.783661
-2262.711795
-2251.066536
-2244.763344
-2239.667146
-2243.422239
-2237.320213
-2227.105466
-2220.891681
-2234.45919
-2256.833286
-2270.289036
-2288.28219
-2314.657249
-2350.196522
-2384.305285
-2415.955355
-2448.812419
-2482.496498
-2510.32442
-2528.965775
-2550.199932
-2573.11047
-2590.92481
-2603.777063
-2616.897537
-2627.69343
-2635.404782
-2638.019936
-2636.321203
-2637.014107
-2640.188055
-2637.125866
-2636.969404
-2643.183189
-2652.16859
-2650.469858
-2647.072392
-2648.391145
-2652.794439
-2651.363927
-2646.290081
-2646.088916
-2647.765296
-2651.676852
-2650.715727
-2649.285215
-2646.379488
-2644.412535
-2642.534988
-2647.854703
-2651.073355
-2647.765296
-2643.719631
-2641.52916
-2647.251206
-2646.982985
-2641.707974
-2639.182227
-2643.831389
-2648.458201
-2648.525256
-2643.9655
-2643.116134
-2649.21816
-2654.269654
-2651.095706
-2650.313395
-2652.995605
-2660.438736
-2658.583541
-2653.755564
-2656.52718
-2662.070413
-2664.372643
-2665.736099
-2667.859515
-2673.939189
-2670.049986
-2662.852724
-2658.717651
-2660.394032
-2661.64573
-2659.812887
-2660.997529
-2657.711823
-2656.258959
-2649.531084
-2640.7692
-2626.553491
-2612.360133
-2610.415531
-2620.250299
-2637.327032
-2644.166666
-2641.193884
-2644.770163
-2650.76043
-2653.621453
-2660.349329
-2671.793422
-2684.84684
-2693.362855
-2694.368684
-2691.731178
-2691.954695
-2696.11212
-2697.609687
-2695.799195
-2694.234573
-2697.497928
-2693.139338
-2683.393977
-2685.025654
-2688.132547
-2685.696207
-2668.775936
-2638.399916
-2597.250354
-2478.80846
-2309.963382
-2155.579884
-2080.813298
-2077.147612
-2153.031785
-2317.853548
-2443.246835
-2492.979466
-2656.147201
-2858.765764
-2856.910569
-2766.654225
-2693.854593
-2644.34548
-2592.444729
-2572.998711
-2576.887915
-2589.315485
-2601.877165
-2602.45831
-2598.591459
-2591.215383
-2584.621618
-2579.883049
-2576.485583
-2570.428261
-2566.114374
-2562.426336
-2558.805353
-2553.105659
-2548.389441
-2549.261159
-2544.544941
-2531.424467
-2515.733542
-2507.955135
-2503.238917
-2492.577135
-2480.909524
-2470.627722
-2464.97273
-2455.517942
-2438.9553
-2420.358648
-2406.657029
-2394.788253
-2378.493831
-2357.907874
-2337.903063
-2323.665002
-2306.387103
-2285.33176
-2271.138402
-2264.857562
-2259.202571
-2253.793449
-2248.540789
-2246.037393
-2245.657414
-2249.546617
-2258.621425
-2280.168507
-2306.677676
-2332.203368
-2362.489982
-2396.352875
-2426.259509
-2456.546123
-2487.90562
-2522.148493
-2553.686804
-2573.11047
-2588.957857
-2604.089988
-2618.037476
-2624.743
-2631.962613
-2639.919834
-2646.312433
-2651.162762
-2649.911064
-2654.247302
-2659.835238
-2659.164686
-2659.164686
-2658.248265
-2665.758451
-2668.686529
-2666.540762
-2660.259922
-2660.930474
-2664.372643
-2661.221047
-2661.153991
-2664.73027
-2667.211314
-2661.891599
-2662.606855
-2665.803154
-2665.601989
-2661.064584
-2656.460125
-2659.499962
-2663.411518
-2659.254093
-2658.024747
-2660.952826
-2664.238532
-2663.545628
-2662.830372
-2666.049023
-2670.675834
-2672.441622
-2669.625303
-2669.871172
-2678.923628
-2682.343445
-2673.425099
-2667.256018
-2668.552419
-2672.754547
-2675.012073
-2674.162707
-2677.627227
-2682.589314
-2681.359968
-2678.320131
-2678.275428
-2680.801175
-2676.755509
-2673.760375
-2679.281256
-2681.337617
-2683.282218
-2676.375529
-2666.786631
-2664.372643
-2656.705994
-2638.735192
-2618.21629
-2618.462159
-2631.761447
-2639.897482
-2649.754602
-2655.431945
-2659.052927
-2659.589369
-2661.64573
-2678.454242
-2695.575678
-2699.308419
-2688.154899
-2680.532954
-2682.768128
-2686.076186
-2690.077149
-2693.876945
-2698.928439
-2698.995495
-2692.222916
-2687.01496
-2687.998436
-2692.491137
-2695.575678
-2698.280239
-2693.273448
-2673.246285
-2639.830427
-2561.867542
-2416.849424
-2258.733184
-2126.880244
-2079.516897
-2107.121302
-2238.281338
-2393.916535
-2475.142774
-2572.149345
-2794.39274
-2890.885221
-2837.509255
-2752.907902
-2700.649524
-2652.883846
-2598.85968
-2578.765461
-2587.750863
-2597.160947
-2598.703217
-2596.780967
-2597.116243
-2598.055017
-2593.60702
-2589.069615
-2585.940371
-2582.609961
-2575.837383
-2568.908342
-2566.561409
-2561.241694
-2548.836475
-2537.548845
-2534.151379
-2532.765571
-2523.757818
-2510.659696
-2502.590716
-2497.271001
-2493.918239
-2478.562591
-2459.831829
-2447.471314
-2439.044707
-2425.454846
-2408.892203
-2394.408273
-2378.359721
-2360.388918
-2347.447258
-2337.008993
-2315.171339
-2293.713664
-2278.67094
-2276.346359
-2272.747728
-2269.372615
-2268.322083
-2269.238504
-2275.5864
-2285.354112
-2299.346304
-2318.01001
-2342.239301
-2370.380148
-2398.878622
-2432.629756
-2463.184591
-2489.269076
-2517.879309
-2544.321423
-2575.479755
-2593.316447
-2600.580764
-2614.528252
-2633.393125
-2646.468895
-2653.129715
-2657.398898
-2663.188
-2669.290026
-2671.413442
-2675.347349
-2681.427024
-2687.126718
-2686.769091
-2683.505736
-2686.344407
-2690.032445
-2681.963465
-2673.268637
-2671.838125
-2680.152974
-2684.958599
-2683.841012
-2682.343445
-2686.210297
-2686.970256
-2683.505736
-2677.761337
-2677.694282
-2684.802137
-2683.461032
-2681.449375
-2681.114099
-2680.957637
-2682.343445
-2679.661236
-2675.302646
-2678.878925
-2677.984855
-2676.12966
-2675.839087
-2678.364835
-2681.00234
-2681.270561
-2685.629152
-2690.457128
-2691.909992
-2689.630114
-2690.904163
-2696.983838
-2701.342428
-2699.509585
-2698.704922
-2703.711713
-2706.796254
-2705.969239
-2702.750588
-2703.644658
-2705.298687
-2701.208317
-2696.313285
-2701.610649
-2703.242326
-2700.649524
-2694.368684
-2691.150032
-2694.234573
-2690.34537
-2668.708881
-2644.792514
-2642.17736
-2651.118058
-2659.790535
-2668.798288
-2681.941114
-2687.327884
-2682.946942
-2683.058701
-2696.045064
-2709.098483
-2714.462902
-2713.300611
-2715.602841
-2721.906033
-2719.514396
-2716.653373
-2721.011963
-2724.409428
-2719.804969
-2715.46873
-2716.429855
-2720.319059
-2722.286012
-2720.117893
-2721.011963
-2715.602841
-2687.01496
-2646.960634
-2561.688729
-2412.401427
-2254.531056
-2131.350593
-2099.54406
-2146.795648
-2291.6126
-2426.505378
-2470.962998
-2581.760595
-2808.273173
-2880.178735
-2823.919394
-2747.565835
-2706.908012
-2660.170515
-2615.847005
-2605.721665
-2617.389276
-2628.408686
-2626.821712
-2623.379543
-2624.452427
-2623.871282
-2616.182282
-2612.382485
-2612.673058
-2610.192014
-2601.653648
-2593.875241
-2596.289229
-2592.19886
-2586.521517
-2576.776156
-2570.964702
-2567.611941
-2561.57697
-2550.512856
-2541.482752
-2537.012403
-2529.502217
-2514.235975
-2503.864766
-2494.208812
-2479.858992
-2461.374099
-2446.309024
-2433.233253
-2419.755151
-2396.28582
-2378.493831
-2368.10027
-2354.39865
-2336.025517
-2323.150912
-2319.373467
-2314.16551
-2305.582441
-2303.079045
-2306.163586
-2311.148025
-2317.451217
-2328.716496
-2354.175133
-2383.545325
-2415.12834
-2443.537407
-2477.377948
-2514.705362
-2542.600339
-2567.880162
-2595.864546
-2622.507825
-2642.579692
-2656.705994
-2676.152012
-2688.289009
-2696.067416
-2702.549422
-2704.494024
-2705.34339
-2712.607707
-2713.971164
-2711.356009
-2714.753475
-2719.290879
-2721.458998
-2719.760265
-2723.02362
-2727.784542
-2724.878815
-2719.335582
-2719.045009
-2723.582414
-2724.968222
-2718.955603
-2718.352105
-2719.916728
-2722.12955
-2718.597975
-2715.312268
-2717.435684
-2721.347239
-2721.727219
-2719.112065
-2722.353068
-2724.163559
-2720.162597
-2720.676687
-2723.515358
-2728.231576
-2729.036239
-2728.745667
-2732.567815
-2734.802989
-2731.360821
-2730.19853
-2731.114952
-2734.467713
-2740.18976
-2741.575568
-2740.70385
-2743.900149
-2747.744649
-2747.454077
-2748.638719
-2750.896245
-2752.61733
-2751.298577
-2751.320928
-2751.320928
-2755.254836
-2755.120725
-2748.437553
-2747.208208
-2755.120725
-2751.455039
-2746.157676
-2740.413277
-2735.652356
-2735.361783
-2727.002231
-2709.500815
-2689.764224
-2683.393977
-2689.205431
-2701.521242
-2719.000306
-2725.661126
-2726.532844
-2725.370553
-2729.68444
-2740.502684
-2748.057574
-2756.998272
-2763.189705
-2766.341301
-2765.626045
-2763.212057
-2767.883571
-2774.834964
-2773.873839
-2770.118746
-2768.755289
-2772.085699
-2774.857315
-2770.252856
-2771.817478
-2773.046824
-2768.397661
-2745.397716
-2711.020733
-2626.441732
-2472.52762
-2301.179147
-2177.886924
-2150.193113
-2182.156108
-2317.74179
-2472.505268
-2542.890911
-2646.848875
-2876.960084
-2955.884094
-2882.257448
-2797.656095
-2741.039126
-2688.534878
-2652.794439
-2655.588407
-2667.747756
-2672.28516
-2676.040253
-2675.168535
-2672.687491
-2665.825506
-2661.668081
-2658.382375
-2653.532047
-2645.820695
-2635.874168
-2634.264843
-2633.281366
-2624.944165
-2614.662363
-2615.310563
-2613.433017
-2603.710008
-2591.550659
-2583.302865
-2579.212496
-2566.82963
-2552.703327
-2541.616862
-2532.989089
-2521.85792
-2505.317629
-2487.950324
-2475.031015
-2459.273035
-2437.569492
-2419.330468
-2402.946639
-2388.373302
-2372.771784
-2357.393784
-2342.753392
-2335.511426
-2328.180054
-2322.61447
-2322.703877
-2326.526025
-2330.012897
-2338.12658
-2355.829162
-2380.572543
-2406.746436
-2435.021393
-2464.346881
-2499.752045
-2531.871501
-2560.794659
-2591.885935
-2620.674982
-2644.926625
-2663.724442
-2680.220029
-2697.542631
-2711.288954
-2718.016829
-2724.990574
-2731.517283
-2740.390925
-2745.040088
-2747.454077
-2753.913731
-2760.172219
-2760.082812
-2755.679519
-2756.97592
-2761.669786
-2755.992443
-2748.437553
-2749.957472
-2755.366594
-2754.874856
-2748.77283
-2747.185856
-2750.918597
-2752.527923
-2748.325795
-2745.688289
-2746.761173
-2748.25874
-2745.934158
-2743.967205
-2747.521132
-2753.511399
-2752.080888
-2747.565835
-2749.689251
-2753.600806
-2747.431725
-2742.022603
-2744.838923
-2750.471562
-2752.930254
-2752.773792
-2751.499742
-2754.807801
-2753.757269
-2749.130458
-2751.410335
-2758.89817
-2761.245103
-2758.674652
-2755.94774
-2761.245103
-2764.530809
-2761.110993
-2757.735879
-2760.663958
-2764.597865
-2760.127516
-2759.188743
-2758.473487
-2757.825286
-2760.842772
-2753.757269
-2753.243179
-2749.398678
-2737.596957
-2731.293765
-2726.465789
-2714.149977
-2693.541669
-2685.584448
-2693.854593
-2709.657277
-2726.73401
-2728.343335
-2731.293765
-2740.18976
-2743.698984
-2749.532789
-2756.841809
-2769.783469
-2777.47247
-2774.79026
-2771.795126
-2773.985597
-2781.384025
-2780.869935
-2777.807746
-2779.841754
-2783.418034
-2784.893249
-2776.980731
-2778.679464
-2779.640589
-2778.858278
-2772.823307
-2754.986615
-2731.629042
-2664.171477
-2512.872519
-2339.91472
-2195.611858
-2137.698488
-2153.09884
-2274.714681
-2446.241968
-2544.142609
-2625.100628
-2848.148685
-2979.912219
-2925.575128
-2826.42279
-2761.133344
-2708.003248
-2663.366814
-2647.787648
-2652.123887
-2661.958654
-2665.289064
-2664.506753
-2657.93534
-2650.514561
-2650.827485
-2646.737116
-2634.622471
-2628.162817
-2626.777008
-2620.272651
-2609.700276
-2602.681828
-2596.468043
-2594.724607
-2588.644932
-2577.84904
-2573.266932
-2569.377729
-2558.447726
-2544.321423
-2537.370031
-2532.899682
-2521.053257
-2504.021228
-2489.425539
-2479.680178
-2465.196248
-2447.247797
-2429.366401
-2416.692962
-2401.985514
-2381.55602
-2362.579389
-2345.927339
-2333.231548
-2320.200481
-2308.77874
-2304.04017
-2303.861356
-2302.743769
-2303.704894
-2312.466778
-2327.062467
-2346.57554
-2367.407366
-2392.530726
-2427.511207
-2459.161277
-2486.162184
-2516.493501
-2546.601301
-2570.852944
-2589.918982
-2609.186186
-2629.705087
-2647.407669
-2654.694337
-2661.556323
-2672.307512
-2679.437718
-2680.823526
-2680.935285
-2684.802137
-2692.468785
-2694.771015
-2691.798233
-2695.039236
-2701.945925
-2701.722408
-2698.257887
-2702.124739
-2703.331733
-2704.918707
-2701.722408
-2702.482367
-2705.678666
-2707.444454
-2703.577602
-2700.671876
-2706.304515
-2712.630059
-2715.602841
-2726.778713
-2786.70374
-2826.266328
-2800.695932
-2765.871914
-2747.454077
-2743.922501
-2739.452152
-2735.026507
-2733.730106
-2736.658184
-2733.931271
-2729.907957
-2732.746629
-2737.75342
-2737.127571
-2732.858388
-2731.964318
-2735.45119
-2736.948757
-2733.864216
-2732.63487
-2738.803952
-2742.693155
-2741.642623
-2740.279167
-2742.782562
-2743.073135
-2742.11201
-2740.949719
-2742.894321
-2744.257777
-2741.150885
-2733.350126
-2726.689306
-2723.135379
-2704.538727
-2673.69332
-2645.083087
-2638.71284
-2644.300776
-2653.800267
-2659.544666
-2662.182172
-2666.093727
-2666.093727
-2668.261846
-2679.32596
-2678.253076
-2643.943148
-2634.264843
-2668.82064
-2701.342428
-2716.273393
-2725.191739
-2733.819513
-2740.860312
-2742.290824
-2740.614443
-2740.614443
-2746.336489
-2752.773792
-2754.785449
-2755.321891
-2742.603748
-2713.859405
-2672.888657
-2567.366072
-2414.010753
-2261.348338
-2150.014299
-2120.532348
-2183.296047
-2340.093534
-2462.558742
-2509.29624
-2655.476648
-2869.561657
-2894.908535
-2824.969926
-2756.171257
-2719.626155
-2666.205486
-2627.581671
-2622.664287
-2636.656479
-2645.172494
-2642.244416
-2637.081163
-2638.645785
-2637.908177
-2631.15795
-2625.234738
-2622.999564
-2623.200729
-2615.847005
-2606.123997
-2606.079293
-2607.867433
-2611.711933
-2623.960689
-2612.941279
-2594.344627
-2574.89861
-2559.341795
-2547.718888
-2538.2641
-2525.814179
-2512.023152
-2499.997914
-2486.318646
-2472.125289
-2452.008718
-2431.132189
-2413.608422
-2394.162404
-2374.671683
-2358.131392
-2347.134334
-2341.568749
-2334.840874
-2336.316089
-2346.106153
-2353.258711
-2356.432659
-2360.92536
-2369.463726
-2382.941828
-2397.023427
-2419.643393
-2448.275977
-2482.541201
-2516.717019
-2542.801504
-2564.370938
-2586.9462
-2599.552584
-2595.328104
-2589.449595
-2582.028816
-2584.845136
-2600.379598
-2631.113247
-2655.744869
-2671.569904
-2676.040253
-2679.571829
-2687.931381
-2698.391998
-2702.415312
-2704.181099
-2699.487233
-2710.372533
-2715.893414
-2714.842882
-2714.999344
-2712.89828
-2707.690323
-2705.164576
-2709.94785
-2716.496911
-2718.620326
-2710.149015
-2707.533861
-2709.523166
-2699.755454
-2685.875021
-2666.831334
-2671.100518
-2690.591239
-2701.11891
-2702.460015
-2720.609632
-2744.03426
-2761.960359
-2769.850525
-2768.688234
-2754.696042
-2747.565835
-2736.702888
-2728.365687
-2736.121742
-2744.056612
-2717.435684
-2668.775936
-2650.536913
-2688.110195
-2722.286012
-2722.375419
-2701.387131
-2679.393015
-2686.456166
-2720.855501
-2752.349109
-2740.860312
-2727.2481
-2732.679574
-2734.870045
-2742.916673
-2748.325795
-2735.607652
-2714.597012
-2703.756416
-2698.436701
-2703.577602
-2715.044047
-2726.756361
-2718.039181
-2701.722408
-2703.175271
-2713.702943
-2747.521132
-2766.609522
-2768.352958
-2761.781545
-2764.530809
-2776.71251
-2781.920467
-2792.649304
-2803.4899
-2798.952496
-2787.016664
-2783.954475
-2776.243124
-2757.154734
-2751.924426
-2754.137248
-2747.565835
-2719.939079
-2679.638884
-2644.34548
-2544.656699
-2382.517145
-2226.814893
-2120.755866
-2104.617906
-2186.805271
-2355.896217
-2492.241859
-2534.821932
-2663.903256
-2850.450915
-2865.605398
-2806.976772
-2753.086716
-2709.970201
-2650.022823
-2616.048171
-2637.707011
-2646.334785
-2647.072392
-2625.860587
-2616.271688
-2599.016142
-2602.905345
-2622.038439
-2626.084104
-2615.556433
-2604.782892
-2602.726531
-2594.344627
-2600.871337
-2597.496223
-2592.489432
-2596.378636
-2610.773159
-2625.324145
-2568.014272
-2491.951286
-2490.990161
-2519.689801
-2527.736429
-2498.27683
-2459.943588
-2435.62489
-2411.999096
-2402.656067
-2399.862099
-2399.549174
-2376.616284
-2371.94477
-2379.007921
-2345.16738
-2287.097548
-2218.83532
-2208.888794
-2284.415339
-2384.528802
-2396.084654
-2347.022575
-2332.873921
-2312.198557
-2320.446351
-2348.922473
-2396.55404
-2417.654087
-2385.02054
-2323.709705
-2305.44833
-2386.652218
-2503.417731
-2570.875296
-2563.946255
-2574.049243
-2621.993735
-2683.639846
-2712.652411
-2741.486161
-2718.15094
-2659.030576
-2654.98491
-2705.008114
-2742.916673
-2771.146926
-2856.508238
-2917.282631
-2822.220662
-2666.250189
-2615.668191
-2639.942186
-2634.577767
-2647.787648
-2662.740965
-2704.136396
-2724.409428
-2725.795236
-2721.190777
-2723.090675
-2707.332695
-2691.641771
-2697.319114
-2725.97405
-2718.776789
-2706.908012
-2703.28703
-2707.198585
-2716.720428
-2715.535786
-2727.941004
-2740.502684
-2734.825341
-2742.469638
-2795.107996
-2796.739673
-2702.147091
-2614.908232
-2624.005392
-2658.583541
-2697.028541
-2701.342428
-2712.719466
-2752.997309
-2744.54835
-2669.558247
-2652.839142
-2682.65637
-2696.201527
-2703.868175
-2706.550384
-2704.248155
-2708.852614
-2707.220937
-2707.109178
-2704.896355
-2685.293875
-2677.9178
-2690.077149
-2670.832297
-2650.201637
-2640.478628
-2654.962558
-2683.058701
-2724.744704
-2719.536748
-2679.616532
-2668.015977
-2679.996512
-2686.813794
-2700.314248
-2727.069286
-2734.266547
-2732.523111
-2727.561024
-2732.143132
-2749.756306
-2756.439478
-2734.668879
-2717.614498
-2722.330716
-2732.098428
-2739.67567
-2738.200454
-2738.26751
-2738.91571
-2739.832132
-2714.30644
-2692.066454
-2637.103514
-2489.000856
-2314.344324
-2166.465183
-2112.709238
-2118.565395
-2221.830454
-2381.913648
-2467.699643
-2541.862731
-2775.483164
-2934.091143
-2880.603418
-2774.454984
-2698.436701
-2641.372698
-2622.843101
-2659.365852
-2667.792459
-2630.174474
-2581.939409
-2561.956949
-2575.524458
-2585.940371
-2568.595418
-2560.861714
-2571.836421
-2573.870429
-2556.8384
-2540.074592
-2534.196083
-2531.580929
-2483.368216
-2465.442117
-2487.838565
-2528.563443
-2566.427298
-2569.534191
-2531.536225
-2494.05235
-2475.008664
-2479.993103
-2505.272926
-2505.20587
-2481.580076
-2461.463506
-2435.289614
-2394.140052
-2332.158665
-2324.02263
-2337.947767
-2337.590139
-2290.338551
-2229.273585
-2216.331925
-2259.224923
-2304.598964
-2310.455121
-2293.91483
-2291.791414
-2287.097548
-2322.636822
-2360.075994
-2377.465651
-2341.680508
-2313.785531
-2349.302453
-2446.756059
-2513.431312
-2507.597507
-2471.275922
-2482.407091
-2524.495426
-2588.242601
-2647.43002
-2625.570014
-2606.30281
-2692.625248
-2786.32376
-2776.801917
-2688.55723
-2652.436811
-2710.819568
-2775.281999
-2784.2674
-2761.401565
-2733.685402
-2724.409428
-2720.989611
-2722.218957
-2708.047951
-2716.943946
-2735.384135
-2757.735879
-2746.694117
-2723.291841
-2706.483329
-2700.627172
-2720.341411
-2747.521132
-2766.989501
-2769.40349
-2724.677649
-2681.337617
-2715.356972
-2780.355845
-2803.422845
-2784.088586
-2767.414185
-2763.323815
-2772.532734
-2784.826193
-2765.715452
-2776.041958
-2774.700853
-2755.835981
-2735.227672
-2736.278204
-2752.393812
-2760.842772
-2753.399641
-2730.690268
-2717.368629
-2743.609577
-2827.607432
-2856.821162
-2845.555883
-2803.333438
-2759.903998
-2746.716469
-2772.599789
-2791.799938
-2777.494821
-2763.033243
-2755.388946
-2737.75342
-2726.48814
-2725.079981
-2742.916673
-2764.553161
-2782.054577
-2766.07308
-2744.704812
-2746.09062
-2769.91758
-2808.36258
-2814.039923
-2780.4229
-2722.598937
-2687.417291
-2687.14907
-2719.581451
-2777.561876
-2813.905813
-2802.349961
-2767.168315
-2764.15083
-2766.453059
-2773.695025
-2785.608504
-2789.318894
-2786.547278
-2775.930199
-2749.398678
-2698.280239
-2631.694392
-2510.860862
-2365.596874
-2208.531166
-2109.870566
-2146.080392
-2320.401647
-2505.831719
-2598.837328
-2644.390183
-2800.53947
-2930.403105
-2906.151462
-2818.823197
-2758.495838
-2711.266602
-2673.067471
-2655.744869
-2633.929567
-2619.155064
-2623.401895
-2638.243453
-2633.281366
-2618.886843
-2629.459218
-2640.590386
-2629.727439
-2623.938337
-2616.405799
-2589.360188
-2572.417566
-2597.339761
-2590.7907
-2585.627447
-2557.777173
-2523.489597
-2523.623708
-2550.468153
-2544.611996
-2533.525531
-2490.677236
-2438.105933
-2468.213733
-2505.027056
-2490.431367
-2498.209774
-2467.766698
-2421.565643
-2403.08075
-2383.09829
-2334.997336
-2318.971135
-2313.830234
-2303.101397
-2329.92349
-2365.395709
-2309.136368
-2254.173428
-2215.3708
-2210.520471
-2283.185993
-2326.213101
-2364.76986
-2382.293628
-2394.609439
-2415.217747
-2432.67446
-2425.186625
-2436.340146
-2490.677236
-2546.869522
-2570.919999
-2590.030741
-2595.775139
-2606.816901
-2637.595253
-2664.953788
-2676.040253
-2681.516431
-2698.54846
-2693.899297
-2678.700111
-2658.896465
-2611.533119
-2609.63322
-2723.738876
-2778.433595
-2750.069231
-2666.51841
-2650.939244
-2645.060735
-2645.351308
-2680.220029
-2707.422102
-2725.415257
-2716.005172
-2709.679629
-2706.148053
-2700.448358
-2697.65439
-2686.523221
-2670.653483
-2681.494079
-2716.318097
-2719.246175
-2680.287085
-2640.500979
-2662.606855
-2692.178213
-2698.995495
-2701.811815
-2700.783634
-2687.640809
-2687.484346
-2710.908975
-2721.593108
-2710.350181
-2703.80112
-2706.528033
-2710.327829
-2712.13832
-2708.025599
-2707.13153
-2708.115006
-2706.37157
-2711.780693
-2709.120835
-2704.471672
-2716.720428
-2716.608669
-2692.513489
-2661.042233
-2650.402802
-2663.70209
-2680.979989
-2702.370608
-2712.697114
-2718.262698
-2720.72139
-2719.380286
-2724.767056
-2730.667917
-2732.813684
-2735.920577
-2747.454077
-2754.740745
-2754.003138
-2751.075059
-2752.304405
-2745.889455
-2741.106181
-2744.794219
-2754.360766
-2758.495838
-2754.606635
-2750.248045
-2746.068269
-2740.860312
-2714.149977
-2672.28516
-2601.877165
-2468.549009
-2320.915737
-2194.36016
-2151.154238
-2196.036541
-2325.609604
-2464.749213
-2530.083362
-2612.874223
-2804.473377
-2888.985323
-2853.647215
-2787.150775
-2746.939987
-2700.917745
-2645.999509
-2627.201692
-2633.214311
-2639.271634
-2635.404782
-2634.689526
-2634.555415
-2629.99566
-2625.949994
-2630.532101
-2635.315375
-2631.53793
-2620.160892
-2611.130787
-2606.191052
-2603.531194
-2598.412645
-2592.802357
-2586.454461
-2577.46906
-2567.030795
-2554.379708
-2540.655737
-2532.519702
-2527.848187
-2521.902623
-2516.98524
-2513.431312
-2508.53628
-2483.412919
-2448.678309
-2426.259509
-2411.28384
-2394.229459
-2382.159517
-2371.162459
-2350.017709
-2328.403572
-2318.278231
-2311.326839
-2310.410417
-2308.890499
-2313.718476
-2321.921566
-2328.00124
-2329.744676
-2341.546397
-2375.163421
-2414.860119
-2433.83675
-2448.432439
-2479.613123
-2511.106731
-2542.645042
-2565.063842
-2586.677979
-2613.164796
-2622.887805
-2623.603061
-2634.331898
-2654.381413
-2688.42312
-2695.978009
-2684.466861
-2686.255
-2697.319114
-2699.621344
-2701.968277
-2707.735027
-2703.93523
-2705.075169
-2714.172329
-2711.735989
-2703.197623
-2699.889565
-2683.68455
-2687.976085
-2704.426969
-2703.219974
-2699.219012
-2703.80112
-2709.232594
-2712.920632
-2703.532899
-2694.055759
-2705.566908
-2711.467768
-2711.445416
-2711.8701
-2713.300611
-2706.930364
-2697.363817
-2692.625248
-2696.022713
-2704.628134
-2703.957582
-2699.889565
-2697.363817
-2696.805024
-2695.642733
-2705.276335
-2717.502739
-2720.184948
-2718.28505
-2713.971164
-2709.880794
-2712.406541
-2715.222861
-2706.438626
-2702.661181
-2699.241364
-2686.255
-2667.881866
-2661.26575
-2676.107308
-2689.317189
-2696.916782
-2696.380341
-2697.743797
-2701.029503
-2703.644658
-2713.613536
-2725.281146
-2742.447286
-2747.387021
-2744.704812
-2747.074097
-2747.36467
-2743.207245
-2741.73203
-2747.051745
-2746.738821
-2743.073135
-2741.128533
-2742.290824
-2745.040088
-2749.28692
-2740.301518
-2718.441512
-2690.99357
-2649.665195
-2531.558577
-2371.497735
-2228.044239
-2158.239741
-2167.292198
-2239.33187
-2400.175023
-2536.252443
-2567.947217
-2707.287992
-2893.030988
-2890.684055
-2806.328572
-2738.356917
-2698.347294
-2653.286177
-2632.543758
-2629.839197
-2640.389221
-2653.152067
-2652.727384
-2649.709898
-2642.445581
-2634.48836
-2634.086029
-2633.504883
-2627.201692
-2621.323183
-2615.042343
-2607.129825
-2602.972401
-2601.541889
-2590.075444
-2584.487508
-2575.345644
-2572.685787
-2568.573066
-2559.520609
-2545.550769
-2535.559539
-2528.831664
-2517.387571
-2503.864766
-2489.961981
-2480.171917
-2466.515001
-2448.588902
-2429.075829
-2408.936907
-2400.555003
-2385.467575
-2366.647406
-2352.565807
-2334.729115
-2322.10038
-2317.898252
-2319.731095
-2318.613508
-2310.589231
-2314.657249
-2348.408383
-2361.707671
-2370.938941
-2391.03316
-2422.526768
-2451.204056
-2484.485803
-2515.085341
-2548.054164
-2581.760595
-2596.17747
-2616.80813
-2643.607872
-2664.953788
-2676.822564
-2679.594181
-2683.081053
-2695.35216
-2705.879832
-2703.242326
-2697.587335
-2714.351143
-2733.797161
-2735.808818
-2729.282108
-2724.096504
-2717.994478
-2719.223823
-2720.676687
-2728.097466
-2732.701925
-2725.035277
-2713.859405
-2714.909937
-2723.940042
-2730.690268
-2731.584338
-2730.33264
-2723.649469
-2726.510492
-2731.561986
-2726.443437
-2729.215053
-2729.259757
-2725.929347
-2724.923518
-2722.218957
-2719.670858
-2715.669896
-2719.670858
-2726.041106
-2726.577547
-2726.823417
-2728.611556
-2729.013888
-2730.556158
-2738.826303
-2746.336489
-2748.728126
-2744.213074
-2737.865178
-2731.249062
-2729.483274
-2733.394829
-2731.383172
-2721.526053
-2715.871062
-2720.050838
-2727.315155
-2719.872024
-2701.789463
-2691.909992
-2683.729253
-2690.926515
-2700.671876
-2701.342428
-2705.432797
-2715.267565
-2718.307402
-2724.320021
-2734.110085
-2748.728126
-2753.824324
-2755.143077
-2770.543429
-2773.695025
-2757.065327
-2754.316062
-2766.296597
-2770.699891
-2766.229542
-2757.601769
-2759.054632
-2765.983673
-2768.241199
-2762.250932
-2752.840847
-2739.720373
-2710.797216
-2658.047099
-2541.326289
-2380.684302
-2229.430047
-2156.742174
-2158.798535
-2252.765268
-2421.319773
-2539.292281
-2583.548735
-2757.646472
-2945.602291
-2931.297175
-2834.402363
-2771.348092
-2721.302536
-2663.210352
-2647.050041
-2655.901331
-2666.473707
-2669.379433
-2670.005282
-2665.736099
-2663.523276
-2662.584503
-2659.879942
-2644.278424
-2635.963575
-2631.15795
-2625.972346
-2615.064694
-2610.169662
-2612.337781
-2603.86647
-2589.293133
-2584.666322
-2587.482642
-2583.727549
-2570.897647
-2559.27474
-2545.707231
-2536.811237
-2526.060048
-2512.626649
-2499.707341
-2490.386664
-2474.159297
-2452.746326
-2439.536445
-2429.388753
-2413.988401
-2397.068131
-2382.517145
-2363.093479
-2347.000223
-2335.533778
-2335.734944
-2337.299566
-2338.417153
-2334.036211
-2324.492016
-2335.354964
-2352.699918
-2375.744566
-2403.21486
-2431.02043
-2457.775469
-2489.604353
-2520.338001
-2550.959891
-2577.513764
-2604.671133
-2630.219177
-2656.460125
-2667.345425
-2676.911971
-2692.245268
-2708.115006
-2711.311306
-2719.581451
-2716.519262
-2717.882719
-2718.732085
-2716.653373
-2714.015867
-2717.994478
-2735.808818
-2746.515303
-2742.894321
-2742.961376
-2738.245158
-2734.110085
-2731.22671
-2734.802989
-2741.128533
-2729.326812
-2720.2073
-2726.935175
-2733.685402
-2731.874911
-2730.891434
-2730.779675
-2730.71262
-2734.04303
-2742.11201
-2743.631928
-2735.942928
-2735.004155
-2733.774809
-2728.924481
-2728.723315
-2736.322908
-2736.322908
-2735.942928
-2738.826303
-2742.290824
-2741.799085
-2746.939987
-2753.958434
-2757.266493
-2754.450173
-2749.108106
-2753.310234
-2759.144039
-2752.416164
-2739.630966
-2739.005117
-2745.598882
-2739.854484
-2730.802027
-2733.216015
-2727.784542
-2704.739893
-2685.360931
-2689.093672
-2702.504719
-2716.072227
-2725.124684
-2723.180082
-2726.890472
-2730.176178
-2736.099391
-2743.028431
-2749.219865
-2757.62412
-2756.260664
-2750.739783
-2757.601769
-2765.111955
-2762.139173
-2767.034205
-2765.0449
-2762.250932
-2761.289807
-2761.021586
-2757.422955
-2757.177086
-2754.584283
-2750.605673
-2737.060516
-2708.919669
-2669.826468
-2558.157153
-2383.99236
-2233.408658
-2140.179532
-2134.345726
-2214.610841
-2385.579334
-2521.768513
-2571.523496
-2723.135379
-2926.715067
-2937.913291
-2853.088421
-2766.944798
-2710.08196
-2659.991701
-2631.984965
-2633.884863
-2638.489322
-2645.060735
-2655.476648
-2651.14041
-2641.283291
-2636.254148
-2636.857645
-2635.985927
-2635.605947
-2626.240567
-2621.591404
-2609.901441
-2602.368903
-2605.028761
-2602.882994
-2595.551621
-2586.856793
-2582.051168
-2571.210572
-2558.581836
-2549.484676
-2536.319499
-2529.122237
-2519.890966
-2508.446873
-2498.321533
-2483.278809
-2465.531524
-2449.237102
-2424.001983
-2413.675477
-2411.194433
-2393.849479
-2371.922418
-2350.129467
-2333.678583
-2333.544473
-2334.907929
-2324.335554
-2316.110112
-2320.602813
-2324.380258
-2331.443409
-2337.277214
-2359.65131
-2382.830069
-2403.550137
-2434.21673
-2473.287579
-2509.877385
-2529.41281
-2548.881179
-2579.167793
-2604.447616
-2622.150197
-2636.432962
-2650.156933
-2662.182172
-2669.871172
-2682.052872
-2697.632038
-2693.80989
-2691.977047
-2701.834166
-2704.44932
-2701.945925
-2698.056721
-2695.039236
-2701.096559
-2699.219012
-2698.459053
-2700.738931
-2701.11891
-2701.454187
-2698.079073
-2699.911916
-2706.215108
-2700.60482
-2692.357027
-2701.677704
-2711.423065
-2703.599954
-2703.197623
-2702.303553
-2698.056721
-2697.162652
-2702.124739
-2702.325905
-2703.264678
-2702.90705
-2700.403655
-2697.967314
-2697.855556
-2699.554288
-2705.119873
-2706.729198
-2711.288954
-2717.681553
-2714.976992
-2714.038219
-2721.458998
-2727.739838
-2714.641716
-2717.480387
-2716.474559
-2719.335582
-2720.810797
-2719.201472
-2715.781655
-2711.780693
-2708.15971
-2708.204413
-2711.177195
-2707.399751
-2687.260829
-2666.786631
-2664.573808
-2670.206448
-2683.729253
-2690.054797
-2695.978009
-2701.185966
-2709.925498
-2716.541614
-2715.893414
-2727.337507
-2736.501722
-2741.776734
-2745.665937
-2741.977899
-2740.413277
-2739.228635
-2734.311251
-2730.556158
-2728.477446
-2731.941966
-2736.926405
-2730.556158
-2728.388039
-2737.395792
-2739.072173
-2719.246175
-2688.132547
-2635.069506
-2505.027056
-2350.665909
-2206.206585
-2143.979328
-2162.352462
-2256.430955
-2403.170157
-2494.968771
-2546.355432
-2723.649469
-2877.630636
-2870.232209
-2797.611391
-2730.444399
-2694.458091
-2651.341576
-2627.246395
-2628.989831
-2632.94609
-2639.875131
-2642.982023
-2638.377564
-2628.431037
-2622.105494
-2627.224043
-2631.314413
-2622.373715
-2617.746904
-2620.920851
-2611.644877
-2586.856793
-2578.452537
-2576.798508
-2574.183354
-2569.020101
-2565.332063
-2557.844228
-2552.703327
-2548.590606
-2531.692687
-2522.617879
-2511.978449
-2494.521736
-2473.980483
-2462.804611
-2456.948454
-2453.707451
-2433.009736
-2398.811567
-2388.418006
-2377.19743
-2360.433621
-2349.101287
-2339.512389
-2323.597947
-2314.0314
-2314.053752
-2315.081932
-2314.947821
-2322.525063
-2335.131447
-2350.978834
-2370.491906
-2389.870869
-2413.72018
-2444.431477
-2477.981446
-2515.219452
-2542.645042
-2564.169772
-2589.024912
-2620.585575
-2633.259014
-2643.384355
-2650.603968
-2661.623378
-2674.363872
-2683.997474
-2694.078111
-2701.185966
-2707.153881
-2710.484291
-2712.719466
-2713.03239
-2714.127626
-2705.544556
-2702.616477
-2713.881757
-2720.363762
-2719.067361
-2700.113082
-2699.95662
-2706.058646
-2701.789463
-2697.319114
-2696.872079
-2695.709788
-2706.23746
-2712.652411
-2714.351143
-2714.217033
-2712.808873
-2709.076131
-2700.47071
-2709.254945
-2711.534823
-2708.718504
-2712.495948
-2714.06057
-2712.563004
-2712.942983
-2713.188852
-2714.909937
-2717.055704
-2713.591184
-2712.831225
-2713.03239
-2724.230614
-2724.767056
-2726.197568
-2726.309326
-2724.744704
-2723.180082
-2724.342373
-2720.944908
-2717.435684
-2709.389056
-2709.143187
-2711.780693
-2712.026562
-2709.590222
-2705.410445
-2699.554288
-2670.2288
-2665.892561
-2674.945018
-2684.913896
-2698.973143
-2703.398788
-2702.616477
-2704.31521
-2704.270506
-2710.864271
-2719.089713
-2721.190777
-2723.738876
-2734.870045
-2739.318042
-2737.194626
-2744.883626
-2749.912769
-2744.190722
-2743.698984
-2742.335527
-2740.234463
-2739.005117
-2737.731068
-2737.216978
-2739.116876
-2727.203396
-2701.945925
-2660.952826
-2566.31554
-2413.20609
-2253.525228
-2146.080392
-2132.892863
-2196.260058
-2341.747563
-2470.113632
-2512.358429
-2627.201692
-2843.566578
-2895.601439
-2834.268252
-2755.18778
-2702.080035
-2655.253131
-2614.058866
-2617.18811
-2629.056886
-2635.673003
-2635.00245
-2629.347459
-2627.82754
-2622.306659
-2616.070523
-2624.407723
-2624.161854
-2613.321258
-2602.368903
-2594.568145
-2592.042398
-2590.880107
-2588.466118
-2580.397139
-2574.988016
-2563.409813
-2552.412755
-2548.925882
-2547.182446
-2528.965775
-2512.649001
-2499.506175
-2495.885193
-2487.950324
-2476.148603
-2459.183628
-2440.519922
-2424.672535
-2404.064227
-2388.708578
-2382.181869
-2366.334482
-2346.329671
-2332.538644
-2324.380258
-2324.715534
-2321.832159
-2314.657249
-2314.590194
-2321.452179
-2314.970173
-2319.529929
-2346.352022
-2376.638636
-2408.623983
-2432.897977
-2463.072832
-2495.415806
-2523.623708
-2551.518685
-2571.098813
-2598.189127
-2629.839197
-2646.40184
-2655.11902
-2670.251151
-2681.561134
-2680.287085
-2681.829355
-2691.88764
-2696.268582
-2694.413387
-2704.583431
-2713.434722
-2719.514396
-2722.978917
-2711.803044
-2709.769036
-2713.188852
-2711.043085
-2698.257887
-2698.526108
-2710.014905
-2716.318097
-2716.116931
-2716.496911
-2717.346277
-2714.529957
-2712.272431
-2709.143187
-2710.394884
-2711.445416
-2707.757379
-2710.283126
-2717.189815
-2717.949774
-2709.724332
-2710.774864
-2713.948812
-2712.473597
-2711.780693
-2715.558137
-2720.810797
-2723.247137
-2724.722353
-2723.805931
-2720.386114
-2722.286012
-2727.806893
-2729.326812
-2727.829245
-2724.141207
-2725.281146
-2733.618347
-2734.378306
-2735.540597
-2736.322908
-2734.132437
-2736.948757
-2745.844751
-2739.943891
-2728.253928
-2726.152864
-2730.958489
-2742.067306
-2731.472579
-2708.383227
-2712.183024
-2711.423065
-2686.880849
-2662.696262
-2670.497021
-2681.047044
-2685.427986
-2694.525146
-2706.282163
-2712.585355
-2713.769998
-2719.737914
-2717.145111
-2730.131475
-2747.096449
-2746.60471
-2746.425896
-2753.824324
-2759.456963
-2761.043937
-2755.366594
-2752.550274
-2752.885551
-2750.650376
-2754.986615
-2757.177086
-2756.059498
-2760.194571
-2753.533751
-2738.893359
-2729.125646
-2695.642733
-2575.16683
-2410.188605
-2254.464001
-2161.436041
-2152.852971
-2216.197814
-2370.201334
-2500.802577
-2549.059993
-2677.716634
-2888.784157
-2919.562509
-2837.129275
-2756.774754
-2708.092655
-2668.105384
-2628.095761
-2629.302756
-2644.971328
-2647.586482
-2648.055869
-2644.278424
-2641.506808
-2638.355212
-2631.716744
-2628.34163
-2627.559319
-2622.977212
-2612.941279
-2606.481624
-2605.922831
-2603.084159
-2592.645895
-2576.619694
-2566.114374
-2566.31554
-2566.248484
-2559.811182
-2538.2641
-2524.473074
-2525.32244
-2514.951231
-2497.583925
-2485.60339
-2474.762794
-2465.062137
-2448.141867
-2433.948509
-2424.270204
-2407.998134
-2388.842689
-2371.385976
-2361.640616
-2349.39186
-2332.672755
-2321.876862
-2319.79815
-2323.776761
-2327.688316
-2327.509502
-2325.967232
-2342.663985
-2362.288816
-2373.531744
-2399.213898
-2431.668631
-2467.431422
-2502.657771
-2533.436124
-2555.743165
-2582.744072
-2612.717761
-2636.254148
-2648.32409
-2653.19677
-2663.791497
-2679.638884
-2690.0995
-2691.75353
-2699.844861
-2704.739893
-2708.897318
-2717.927422
-2714.529957
-2714.619364
-2715.155806
-2718.776789
-2718.821492
-2715.558137
-2711.892451
-2714.373495
-2723.358896
-2724.744704
-2722.598937
-2722.084847
-2723.291841
-2723.850635
-2716.318097
-2715.580489
-2717.435684
-2706.997419
-2706.036294
-2715.804007
-2719.290879
-2715.356972
-2717.614498
-2716.318097
-2718.933251
-2718.776789
-2713.255908
-2715.580489
-2721.146073
-2722.12955
-2724.297669
-2726.555196
-2728.65626
-2732.836036
-2726.577547
-2728.991536
-2727.270451
-2727.270451
-2730.153826
-2735.339431
-2741.284995
-2741.284995
-2734.132437
-2730.71262
-2735.942928
-2741.508513
-2747.632891
-2742.581396
-2739.094524
-2736.613481
-2742.715507
-2747.543484
-2745.867103
-2740.972071
-2736.747591
-2736.255853
-2733.260719
-2734.691231
-2727.113989
-2723.425951
-2722.50953
-2721.324887
-2726.577547
-2723.761228
-2709.120835
-2689.227782
-2679.393015
-2684.735082
-2697.341466
-2709.500815
-2708.606745
-2705.365742
-2714.015867
-2726.756361
-2736.47937
-2746.582359
-2746.962338
-2747.722298
-2754.874856
-2755.05367
-2752.863199
-2756.774754
-2764.419051
-2766.654225
-2764.553161
-2757.400603
-2755.500705
-2754.092545
-2754.830152
-2757.668824
-2757.400603
-2749.510437
-2723.716524
-2688.244306
-2589.270781
-2428.338221
-2269.640835
-2162.218352
-2155.713994
-2208.084131
-2354.935092
-2498.232126
-2556.301958
-2677.940151
-2906.844366
-2960.332091
-2878.994093
-2793.833946
-2744.905978
-2686.322056
-2642.736154
-2641.238587
-2653.554398
-2662.182172
-2663.858552
-2656.90716
-2655.63311
-2652.146238
-2651.78861
-2645.485418
-2638.243453
-2630.085067
-2623.737171
-2620.563223
-2617.925718
-2612.293078
-2606.526328
-2604.961706
-2599.418473
-2581.604133
-2564.952083
-2567.053147
-2570.115336
-2551.138705
-2525.791827
-2523.042562
-2518.3934
-2511.419655
-2496.287524
-2483.077643
-2465.665634
-2441.570454
-2423.890224
-2416.692962
-2401.270259
-2388.86504
-2372.212991
-2355.650348
-2347.067278
-2339.825313
-2326.45897
-2320.960441
-2320.848682
-2320.200481
-2328.358868
-2341.568749
-2362.065299
-2383.85825
-2402.56666
-2429.388753
-2468.727823
-2496.980428
-2523.377839
-2547.562426
-2581.090043
-2613.500072
-2634.622471
-2650.067526
-2664.864381
-2681.114099
-2696.425044
-2703.354085
-2703.756416
-2711.825396
-2715.915765
-2719.961431
-2723.582414
-2724.252966
-2726.756361
-2727.829245
-2735.205321
-2742.491989
-2738.826303
-2729.796199
-2725.549367
-2720.743742
-2727.628079
-2729.349164
-2730.958489
-2729.483274
-2726.331678
-2721.369591
-2721.391943
-2725.772885
-2721.056667
-2720.117893
-2722.286012
-2727.829245
-2732.947795
-2728.499797
-2723.716524
-2723.001268
-2730.243233
-2726.48814
-2726.912824
-2727.829245
-2715.401675
-2718.441512
-2727.181044
-2724.543539
-2723.202434
-2723.358896
-2717.949774
-2698.794329
-2683.751605
-2685.629152
-2691.552364
-2692.871117
-2698.68257
-2714.462902
-2723.649469
-2728.991536
-2735.898225
-2738.826303
-2742.357879
-2743.989556
-2734.490065
-2741.441457
-2761.2004
-2755.545408
-2740.681498
-2740.18976
-2746.872931
-2747.319966
-2740.681498
-2741.977899
-2746.60471
-2747.49878
-2749.465734
-2740.905016
-2732.50076
-2730.466751
-2726.443437
-2703.085864
-2688.668989
-2698.03437
-2701.834166
-2713.255908
-2721.48135
-2719.782617
-2725.303498
-2728.65626
-2725.035277
-2730.802027
-2744.861274
-2756.305368
-2766.475411
-2764.441402
-2761.33451
-2768.688234
-2773.337397
-2769.805821
-2763.994368
-2759.591074
-2760.663958
-2764.977844
-2761.155696
-2759.903998
-2760.529847
-2758.048804
-2735.115914
-2706.058646
-2647.541779
-2515.800597
-2356.767935
-2215.236689
-2151.713032
-2175.830564
-2276.10049
-2426.795951
-2522.796693
-2590.097796
-2785.742615
-2930.291346
-2899.535346
-2823.829988
-2771.281036
-2726.756361
-2673.738023
-2653.621453
-2643.697279
-2649.084049
-2658.784706
-2654.716689
-2650.76043
-2647.742945
-2640.925663
-2636.79059
-2630.532101
-2637.259977
-2633.236663
-2623.066619
-2621.5467
-2618.909194
-2613.053037
-2605.118168
-2598.636162
-2589.404892
-2577.647874
-2574.00454
-2578.184316
-2571.523496
-2557.553656
-2537.23592
-2528.00465
-2524.785998
-2512.492539
-2493.404149
-2475.656864
-2467.163201
-2458.222503
-2438.329451
-2416.983535
-2411.28384
-2400.599706
-2377.912686
-2362.266465
-2358.846648
-2355.516238
-2349.056584
-2338.171284
-2331.823389
-2345.03327
-2367.474421
-2376.906857
-2380.706654
-2401.583183
-2427.846483
-2456.38966
-2490.029036
-2526.283565
-2551.518685
-2566.82963
-2590.343665
-2626.173511
-2648.502904
-2662.271579
-2675.123832
-2682.365797
-2691.328846
-2700.627172
-2708.427931
-2711.244251
-2709.545518
-2720.453169
-2723.627117
-2723.515358
-2728.879777
-2732.63487
-2726.778713
-2724.387076
-2734.467713
-2738.625138
-2734.780638
-2727.717486
-2730.958489
-2738.625138
-2734.355954
-2730.109123
-2727.225748
-2722.084847
-2720.810797
-2725.772885
-2726.443437
-2725.527015
-2728.522149
-2728.455094
-2729.572681
-2729.907957
-2725.683478
-2728.544501
-2734.802989
-2740.525036
-2735.361783
-2730.131475
-2734.646527
-2747.543484
-2760.239275
-2752.662033
-2737.105219
-2740.614443
-2750.851542
-2752.013833
-2759.971054
-2756.148905
-2747.36467
-2741.575568
-2736.658184
-2745.017737
-2751.477391
-2753.64551
-2752.907902
-2756.260664
-2758.562894
-2753.310234
-2754.67369
-2752.863199
-2755.321891
-2767.213019
-2766.497763
-2765.313121
-2769.559952
-2766.341301
-2761.379213
-2757.154734
-2755.94774
-2752.460867
-2739.16158
-2741.374402
-2746.358841
-2737.149923
-2718.553271
-2710.663105
-2722.062495
-2729.058591
-2728.678611
-2736.747591
-2736.300556
-2742.089658
-2744.615405
-2746.202379
-2755.813629
-2764.910789
-2765.000196
-2767.727109
-2777.450118
-2779.774699
-2776.891324
-2772.085699
-2770.968112
-2775.550219
-2779.193554
-2777.539525
-2777.494821
-2779.059443
-2781.182859
-2780.802879
-2769.850525
-2747.208208
-2714.038219
-2624.206558
-2455.696756
-2304.93424
-2204.083169
-2184.100709
-2229.34064
-2380.885468
-2531.044487
-2585.269819
-2692.692303
-2907.358457
-2967.395242
-2899.043608
-2809.591926
-2769.738766
-2725.102332
-2675.928494
-2659.812887
-2674.185058
-2686.255
-2685.517393
-2676.777861
-2675.548515
-2676.263771
-2671.77107
-2665.177305
-2664.886733
-2660.617549
-2659.187038
-2655.946035
-2643.607872
-2635.561244
-2632.387296
-2623.759523
-2615.467026
-2607.241584
-2595.01518
-2588.086139
-2582.989941
-2581.000636
-2575.300941
-2572.149345
-2558.179505
-2529.949251
-2520.338001
-2511.710228
-2491.191327
-2473.734614
-2460.99412
-2450.935835
-2432.093314
-2414.882471
-2401.426721
-2393.111872
-2375.252828
-2363.22759
-2365.909799
-2360.54538
-2346.128505
-2347.827238
-2364.009901
-2380.639598
-2393.447148
-2415.977706
-2440.095239
-2458.803649
-2485.648094
-2520.360353
-2552.546865
-2577.267894
-2605.542851
-2635.583596
-2658.941169
-2680.465899
-2699.308419
-2710.953678
-2722.084847
-2736.501722
-2748.169333
-2746.381193
-2746.98469
-2750.18099
-2755.992443
-2766.117783
-2771.482202
-2769.805821
-2764.776679
-2765.111955
-2765.894266
-2767.749461
-2770.968112
-2768.8894
-2762.765022
-2759.389908
-2764.106126
-2764.888437
-2763.502629
-2758.51819
-2757.400603
-2755.813629
-2757.534713
-2755.388946
-2752.192647
-2755.031318
-2761.781545
-2768.621179
-2761.803897
-2762.474449
-2764.307292
-2762.519152
-2760.507495
-2760.485144
-2758.629949
-2762.765022
-2761.133344
-2761.915655
-2771.929237
-2774.097356
-2767.414185
-2766.229542
-2770.81165
-2773.404452
-2769.582304
-2768.710586
-2774.298522
-2777.673635
-2779.350016
-2785.16147
-2787.061368
-2781.518135
-2785.474394
-2787.240182
-2781.942818
-2783.88742
-2779.640589
-2771.638664
-2773.24799
-2780.646417
-2786.212002
-2778.724167
-2778.455946
-2785.273228
-2785.049711
-2780.355845
-2782.903943
-2779.886458
-2772.532734
-2766.341301
-2769.358786
-2773.426804
-2762.697966
-2761.088641
-2766.341301
-2752.483219
-2725.728181
-2714.775826
-2719.022658
-2736.702888
-2744.749516
-2739.519207
-2745.040088
-2754.874856
-2761.915655
-2767.99533
-2769.515248
-2782.523964
-2794.25863
-2797.879612
-2804.227508
-2808.027304
-2805.613316
-2795.28681
-2794.728016
-2801.880574
-2803.154624
-2797.790205
-2797.633743
-2801.880574
-2798.393702
-2797.298467
-2794.660961
-2762.809725
-2720.006135
-2621.144369
-2457.395489
-2296.820557
-2209.313477
-2202.04916
-2264.991673
-2425.007811
-2568.3719
-2624.117151
-2738.26751
-2958.342786
-3008.88008
-2923.071733
-2830.26729
-2774.387929
-2719.492044
-2680.600009
-2677.135489
-2688.870154
-2700.202489
-2703.734065
-2703.175271
-2700.560117
-2700.783634
-2690.077149
-2678.320131
-2674.967369
-2673.223933
-2674.20741
-2666.406651
-2654.113192
-2646.513599
-2645.37366
-2644.412535
-2635.136561
-2623.759523
-2614.215328
-2603.35238
-2577.84904
-2547.674185
-2541.572159
-2536.788885
-2532.273833
-2525.098923
-2508.491577
-2494.789957
-2487.145661
-2484.932838
-2465.687986
-2446.063154
-2433.009736
-2419.263413
-2402.209032
-2386.316942
-2370.424851
-2359.874828
-2349.637729
-2349.704784
-2346.441429
-2342.552226
-2359.673662
-2377.666816
-2390.65318
-2408.199299
-2427.93589
-2458.669538
-2496.265173
-2525.143626
-2547.338909
-2578.072557
-2616.718723
-2642.602043
-2660.952826
-2684.869192
-2700.783634
-2709.344352
-2717.346277
-2732.992498
-2748.437553
-2749.733955
-2752.527923
-2756.506533
-2759.345205
-2763.457926
-2764.351996
-2766.609522
-2771.705719
-2776.690158
-2777.673635
-2765.804859
-2767.235371
-2772.264513
-2768.934103
-2769.358786
-2775.080833
-2780.668769
-2781.294618
-2777.852449
-2771.638664
-2771.750423
-2767.034205
-2760.283978
-2766.654225
-2773.203286
-2768.464716
-2763.189705
-2761.2004
-2768.352958
-2775.371406
-2773.471507
-2770.543429
-2770.968112
-2774.075004
-2769.336435
-2764.754327
-2767.816516
-2784.423862
-2781.31697
-2778.210077
-2786.055539
-2787.754272
-2784.803842
-2782.591019
-2784.826193
-2786.457871
-2789.408301
-2791.621124
-2788.1119
-2787.910734
-2791.174089
-2792.09051
-2786.949609
-2788.134252
-2794.437444
-2793.744539
-2787.553106
-2791.084682
-2792.425787
-2786.502574
-2780.087624
-2783.999179
-2788.335417
-2789.095377
-2785.966132
-2785.116766
-2774.79026
-2771.057519
-2758.89817
-2742.089658
-2725.348201
-2723.671821
-2728.812722
-2737.261681
-2752.036184
-2755.970091
-2758.674652
-2766.676577
-2773.583266
-2782.255743
-2783.798013
-2780.177031
-2788.380121
-2796.627915
-2799.354827
-2796.918487
-2797.521984
-2799.958324
-2794.996237
-2794.482147
-2799.153662
-2800.986505
-2804.920412
-2808.295525
-2808.407284
-2812.251784
-2797.34317
-2766.765984
-2730.131475
-2648.301738
-2490.34196
-2324.961403
-2204.35139
-2178.803346
-2228.133646
-2382.673607
-2540.856903
-2612.784816
-2718.083884
-2934.515826
-2999.447644
-2935.812227
-2847.232264
-2794.77272
-2741.754382
-2694.771015
-2689.831279
-2692.334675
-2692.737006
-2696.156823
-2700.493062
-2696.849727
-2684.824489
-2679.258904
-2680.711768
-2676.487288
-2667.457183
-2662.070413
-2657.130677
-2653.129715
-2643.809038
-2637.103514
-2637.841122
-2638.265805
-2618.149235
-2601.94422
-2598.390293
-2597.406816
-2587.192069
-2575.815031
-2568.193086
-2560.124106
-2545.617824
-2529.323403
-2520.270946
-2506.323458
-2487.90562
-2463.899847
-2441.145771
-2427.153579
-2416.760017
-2400.599706
-2382.539497
-2372.704729
-2368.592008
-2355.493886
-2344.005089
-2356.119735
-2357.907874
-2362.311168
-2367.452069
-2368.413194
-2384.394692
-2417.743494
-2452.902788
-2481.647132
-2514.101865
-2543.203836
-2571.612903
-2603.017104
-2631.001488
-2651.900369
-2669.088861
-2683.192811
-2698.771977
-2717.994478
-2722.084847
-2721.749571
-2727.672783
-2739.541559
-2750.359803
-2756.059498
-2761.625083
-2763.39087
-2757.937045
-2759.769888
-2763.882609
-2759.948702
-2752.930254
-2748.571664
-2747.610539
-2756.573588
-2761.602731
-2751.767963
-2750.248045
-2751.365632
-2752.594978
-2745.330661
-2740.83796
-2739.653318
-2739.452152
-2748.459905
-2747.767001
-2740.905016
-2747.163504
-2761.178048
-2755.098373
-2745.710641
-2753.667862
-2752.796144
-2749.689251
-2753.958434
-2762.206228
-2759.524019
-2753.958434
-2760.507495
-2759.166391
-2755.634815
-2750.628024
-2747.521132
-2753.354937
-2759.524019
-2758.831115
-2760.909827
-2771.638664
-2768.263551
-2770.610484
-2772.555086
-2764.79903
-2760.775716
-2753.13142
-2755.031318
-2763.569684
-2763.189705
-2763.681443
-2763.614388
-2764.508458
-2763.882609
-2764.28494
-2745.665937
-2733.305422
-2736.099391
-2728.566853
-2706.304515
-2688.221954
-2693.362855
-2711.087788
-2726.622251
-2741.955548
-2749.555141
-2750.002176
-2745.174199
-2747.230559
-2754.472524
-2758.697004
-2763.077946
-2765.55899
-2773.359749
-2777.628932
-2773.337397
-2772.398624
-2774.589094
-2770.610484
-2770.476373
-2773.89619
-2774.209115
-2777.293656
-2781.384025
-2783.283923
-2778.008911
-2756.215961
-2718.217995
-2649.195808
-2505.183519
-2348.140162
-2216.935422
-2163.22418
-2197.869384
-2327.598909
-2484.57521
-2559.565313
-2628.542796
-2831.943671
-2943.747097
-2906.330276
-2832.077781
-2781.026397
-2732.657222
-2681.829355
-2657.533009
-2668.284198
-2682.27639
-2683.17046
-2672.329864
-2671.614608
-2673.358044
-2667.814811
-2663.947959
-2663.791497
