 EMG Channel 
682.8234414
679.8953628
681.8399646
681.191764
677.6825401
676.9449326
682.1081855
684.0974908
681.102357
684.9021536
686.0197408
686.5561827
685.9973891
683.9410286
684.4998222
682.9799036
682.8904966
683.2704763
681.8846681
683.3375315
679.9624181
680.7000256
686.4667757
686.0644443
685.5727059
683.8292699
682.9575518
684.4998222
683.6281042
682.6893309
684.6786362
688.8807641
690.8477176
687.2490868
683.2704763
684.5668774
687.0032176
686.8691071
682.1752408
681.6611507
685.9079821
686.5561827
685.8185751
684.5668774
685.4609472
691.0265316
689.7524821
691.1382903
690.7806624
688.4784327
688.8137089
684.7233396
686.2432583
685.5280024
683.0022553
683.0022553
686.7349966
688.5231362
683.9186768
681.5940954
685.2374298
685.9973891
685.4385955
683.6057524
684.6786362
689.1936885
691.4512147
688.2549153
688.5007845
688.8137089
690.6242002
687.0926246
684.0527873
684.2092495
685.8632786
688.1208048
688.3219705
688.4784327
688.2996188
685.1703745
683.7398629
685.5280024
689.506613
690.8253659
690.6465519
690.3559792
687.9196391
686.4667757
683.4492902
682.8904966
682.9575518
681.8623164
681.1694123
683.6728077
687.8525839
684.164546
680.5435634
682.4434617
684.5445257
682.5105169
679.3812727
681.5493919
685.9079821
686.0197408
684.2316013
687.6514182
688.8584124
688.456081
688.5678397
688.7466536
690.9147729
690.8030141
689.1936885
689.9312961
692.7699676
693.5969822
687.9196391
685.0362641
684.5221739
684.253953
680.6329704
675.9838076
674.9332756
0.0
106.975449
102.0133617
97.65477153
105.0531989
110.5964316
106.975449
110.7752455
108.1377397
102.7286175
129.2601382
139.5419406
125.3485829
127.8519783
135.3174609
120.5653096
131.7188301
132.0094028
137.3738214
142.7829436
153.3106152
158.7644409
151.053089
137.7090976
124.0521817
134.2222255
147.3426994
148.9073216
145.7110221
154.2493885
159.7032141
148.4155832
139.944272
135.9880133
140.3018999
144.6381384
138.6702226
152.0812693
151.7459931
146.0239465
147.5438651
148.2144175
139.5195889
135.1833505
137.0385453
143.6993651
143.006461
135.4962749
134.2445772
134.177522
144.9734145
148.6167489
140.4136587
142.4476674
142.8947023
136.7032691
135.5186266
141.7324116
143.4534959
131.1823882
128.2543097
135.6527371
146.6721471
148.4155832
140.0113273
119.6712398
127.1590742
134.1328185
140.8830453
152.9082838
147.0521268
149.4437634
148.1473622
137.6867458
124.7003823
116.072609
145.6439669
152.8635803
152.9529873
151.0083855
132.7470103
129.103676
134.1998737
133.8869493
136.2785859
144.3699174
134.3116324
129.8412835
130.3330219
121.839359
131.4729609
145.4428012
136.1444755
131.4282574
135.4515714
131.897644
140.033679
156.037528
147.9461965
131.4953126
127.0473155
122.0405247
121.6381933
133.9316528
128.8131033
144.7275453
158.8985513
144.6828419
136.882083
146.2921675
128.9025103
107.9142222
109.5458996
120.5653096
137.1950075
126.4438184
117.905452
147.2309407
148.2367692
122.10758
117.3243066
124.0074782
126.5779289
136.7256208
139.8995685
139.4525337
125.1921207
116.4749404
112.8539578
126.7120393
134.7810191
138.4467052
134.7363156
129.5954144
121.3699724
104.002667
101.7674925
106.4837106
116.2961264
133.8645975
140.8830453
141.5535976
132.948176
118.866577
121.9958212
129.6401178
124.3204027
112.4963298
111.5799083
130.4894841
124.4545131
142.134743
155.7469554
139.4078302
117.6372311
109.1435682
99.88994597
99.5546698
101.7674925
78.90165793
60.66263445
145.8004291
152.6847664
100.3816843
67.79284093
47.34099476
58.65097745
96.40307384
100.8287192
89.56344003
81.51681203
80.64509399
14.17100598
7.17490997
96.49248081
100.3816843
88.15528013
44.05528832
35.71808764
100.4934431
104.1367774
83.4614138
65.55766649
67.01052988
75.9735794
70.49740201
72.97844565
64.3059688
60.52852398
55.18645706
83.43906205
52.10191633
62.87545715
87.37296908
65.87059091
26.64327939
68.61985548
72.84433518
62.96486413
51.47606748
9.812415816
6.191433214
123.4710364
105.3661234
46.44692498
45.61991043
69.17864909
43.40708773
27.24677649
73.64899798
91.61980052
77.22527709
65.89294265
39.20495977
17.76963684
43.04945982
53.28655878
61.22142806
59.76856467
69.31275956
72.48670727
59.43328851
52.37013726
59.99208212
58.09218384
29.75017187
28.18554976
72.03967238
81.22623935
53.48772448
41.70835515
31.09127654
32.81236086
41.03780282
51.85604714
58.13688733
54.44884949
31.38184922
38.66851791
36.27688125
39.3167185
48.88326512
34.95812833
31.35949747
27.78321836
38.98144233
54.73942217
61.93668389
52.54895121
35.40516322
11.80172107
32.6335469
51.00668085
44.09999181
50.26907328
49.64322444
42.49066621
29.23608175
24.67632588
55.29821578
45.9551866
44.21175053
43.49649471
49.03972733
58.96390187
52.83952389
30.97951782
42.11068655
45.12817206
64.95416939
76.84529744
82.79086146
68.59750373
64.08245135
33.0358783
15.40035193
70.38564329
90.77043423
53.17480006
52.03486109
33.37115447
49.62087269
65.66942521
59.2768263
45.91048311
43.11651505
60.52852398
43.89882611
34.15346553
65.73648044
55.05234659
43.83177088
49.33030001
67.41286128
57.75690767
62.27196005
78.99106491
72.30789331
62.67429145
74.61012299
72.33024506
35.78514287
38.53440744
61.91433214
65.26709381
48.30211977
60.41676526
74.07368112
53.46537274
41.75305864
53.62183495
81.2485911
88.15528013
94.54787905
72.66552122
54.27003554
66.74230894
91.95507669
93.54205055
92.84914647
104.695571
100.672257
106.3048966
97.38655059
91.88802146
91.44098657
89.60814352
93.29618136
97.99004769
101.9910099
110.9764112
104.6508675
96.20190814
95.24078312
95.75487325
101.1192919
86.21067836
85.29425684
108.7859403
120.095923
106.8636902
101.5216233
108.3389054
108.4283124
87.59648652
81.60621901
93.16207089
101.7004373
98.9511727
106.7519315
109.3223821
97.1406814
76.91235267
73.1572596
98.19121339
113.9044897
121.1017515
119.1347979
111.4905013
109.3670856
92.55857379
93.00560868
84.33313183
62.11549784
83.4614138
119.0900945
115.7373328
105.924917
97.61006804
71.65969272
66.58584673
90.72573074
95.50900406
90.5022133
98.03475118
91.61980052
84.10961439
69.82684968
83.77433822
118.9112805
105.4555303
97.05127442
109.0541612
87.86470745
107.936574
80.42157655
84.668408
0.134110467
22.99994504
93.00560868
185.430072
101.2310506
65.62472172
150.5837024
122.3534491
89.45168131
3.218651202
110.6634868
49.59852095
23.55873866
55.32056753
97.96769595
105.1649577
177.0705196
46.29046277
47.51980871
7.77840707
49.3750035
73.11255611
5.342066925
39.18260803
33.10293354
53.53242797
89.38462608
104.695571
70.05036712
27.62675615
24.49751192
31.24773875
53.10774483
27.89497708
42.26714876
41.39543073
2.168119212
55.6111402
84.60135276
63.0989746
30.71129688
2.86102329
27.24677649
35.09223879
50.1796663
61.22142806
48.9726721
38.82498012
29.72782013
33.28174749
42.11068655
51.72193667
33.59467192
30.0183928
47.54216046
43.3400325
18.46254092
28.11849452
60.86380015
65.17768683
44.63643368
36.299233
24.09518052
40.18843653
50.53729421
54.58295996
53.64418669
51.81134365
59.29917804
35.96395683
25.01160205
66.89877115
88.57996328
76.08533813
56.57226522
53.48772448
46.06694532
62.42842226
92.42446332
73.40312879
74.25249508
54.51590473
53.44302099
35.38281147
31.85123585
75.23597184
97.61006804
74.29719857
50.42553549
25.90567182
61.13202109
88.91523944
88.57996328
67.18934383
14.95331704
25.54804391
44.39056449
75.1689166
84.62370451
100.0240564
79.61691375
67.05523337
95.01726568
95.01726568
69.64803572
87.93176269
68.39633803
11.93583154
6.437302403
39.56258769
84.80251846
78.74519572
18.99898279
29.48195094
135.2504057
118.5536526
84.84722195
72.93374216
45.86577962
97.81123374
104.4720536
58.29334954
124.6333271
137.8208563
128.5895859
64.5071345
6.102026236
102.952135
109.4788443
55.25351229
72.26318982
11.71231409
23.96107006
97.61006804
99.53231806
68.66455897
27.58205266
17.52376765
82.43323355
108.6071263
120.5206061
99.19704189
46.58103544
61.75786993
78.54403002
70.05036712
54.67236694
50.24672154
70.31858806
64.75300369
60.81909666
73.26901832
80.73450097
80.60039051
56.75107917
46.53633196
63.61306472
72.41965204
60.32735828
76.62177999
90.5022133
70.47505027
66.63055022
63.76952693
87.19415512
122.4652079
111.9822397
83.21554461
71.86085842
58.22629431
48.12330581
70.92208516
72.12907936
77.60525675
80.89096318
78.49932653
89.65284701
43.27297727
21.79295084
59.25447455
80.39922481
56.52756173
32.65589865
38.9143871
52.03486109
34.42168646
38.15442779
53.89005588
109.0988647
67.81519268
25.32452647
43.72001215
52.48189598
134.1328185
102.3262861
85.38366382
30.66659339
8.538366382
101.901603
79.50515503
21.7705991
33.66172715
121.749952
106.4613588
50.24672154
13.45575016
39.78610513
68.9327799
84.33313183
25.90567182
34.77931437
78.14169862
43.78706739
72.12907936
101.722789
95.64311452
78.81225095
78.85695444
62.0931461
40.9260441
54.49355298
93.18442263
84.04255915
70.67621597
54.22533205
53.84535239
66.54114324
49.44205874
36.299233
76.21944859
76.95705616
50.7831634
42.40125923
53.13009657
78.47697478
75.86182068
77.82877419
72.24083808
41.68600341
35.94160508
43.45179122
48.12330581
67.47991651
109.5906031
121.2358619
102.594507
95.06196917
75.23597184
75.86182068
105.9025652
115.983202
126.3544114
115.1561874
119.0900945
110.5517281
96.31366686
76.06298638
73.9619224
114.2621177
112.6974955
117.9278037
118.5536526
106.1931379
96.47012907
74.05132938
80.98037016
81.56151552
86.36714058
77.13587012
97.69947501
114.753856
96.1348529
96.51483256
114.4185799
113.5021583
90.703379
89.54108829
94.61493428
93.00560868
73.31372181
79.90748643
114.0833037
107.4895391
90.88219296
73.24666658
84.89192544
138.4243534
140.1007342
91.12806214
88.62466677
121.4817311
120.4088474
100.6499053
92.75973949
136.7479726
120.4535509
106.975449
101.4322163
99.39820759
153.0870978
147.8567896
101.5663268
106.0590274
147.5885686
105.9025652
76.19709685
144.7946006
152.1706763
127.5167021
109.0094577
92.5138703
136.5915104
145.4204494
86.05421615
57.17576232
124.8568445
168.196877
131.3835539
114.7985595
124.901548
102.6615623
109.0541612
118.1289694
119.8724055
106.975449
90.23399237
108.3165536
112.7869025
98.9511727
109.0988647
119.738295
112.5857368
82.54499227
82.88026844
119.4477224
130.4447806
112.6751438
111.2222804
146.8062576
107.8695187
70.27388457
95.35254185
88.80348072
88.75877723
135.0939435
105.5002338
47.69862267
72.17378285
115.4691119
137.150304
93.85497497
78.54403002
127.7849231
123.6498503
29.32548873
25.12336077
8.471311149
136.0774202
156.037528
99.30880061
62.18255307
34.15346553
63.74717519
81.27094284
219.4270753
178.3669208
96.42542558
70.45269852
94.81609998
85.89775394
12.9193083
85.33896033
122.6887253
46.04459358
87.82000396
135.8091993
99.19704189
70.92208516
18.1496165
59.03095711
182.367883
168.8450776
98.30297211
70.72091946
70.00566363
77.49349803
42.22244528
47.07277382
93.65380927
102.5721553
124.5662718
113.7480275
90.43515807
105.4108269
102.2815826
100.2028704
80.93566667
70.56445725
76.64413174
94.05614067
105.2096612
81.47210854
79.99689341
90.72573074
92.9162017
97.87828897
106.7295798
94.03378892
115.4244084
118.866577
75.07950963
98.43708258
131.115333
107.9142222
116.3408299
129.6177661
101.0969402
103.5332803
117.0560857
112.9657165
156.3728042
136.2562342
98.88411747
97.81123374
102.4603966
101.9463065
111.6693153
109.2106234
98.23591688
102.9074315
163.1453828
156.8645426
97.3418471
38.08737255
66.80936418
180.6244469
179.5292115
129.4613039
115.022077
105.8131583
102.594507
123.7169056
123.1804637
113.6139171
133.12699
112.6080886
107.5342426
131.6741266
148.5720454
123.1357602
106.0366757
102.6615623
125.6391556
144.2581587
138.2678912
118.7101148
119.3359636
121.6158416
119.8724055
114.3962281
83.01437891
115.2902979
130.847112
114.4185799
114.4409316
119.0230392
117.4807689
120.6770683
100.5381466
104.4720536
128.4331236
129.8189318
100.7840157
69.02218688
103.3321146
136.4350482
124.990955
109.0318095
115.9608502
125.8403213
85.56247777
76.04063464
95.75487325
104.4497018
109.6353066
131.0035743
136.3903447
138.4690569
131.7411818
113.3009926
131.7635336
124.119237
120.5653096
121.3699724
135.3174609
138.3796499
140.4807139
141.5535976
136.0774202
127.5837574
129.1260277
139.0502023
145.3533942
136.3679929
117.7713415
145.979243
155.8140106
144.235807
129.3942487
125.7062108
164.3300252
160.5302287
150.4495919
139.6536994
130.8247603
110.6858385
103.1309489
142.5817779
145.3980977
133.5963766
131.1823882
124.0745335
133.2834522
144.2805105
137.6643941
128.4331236
127.4719986
124.4098096
121.9511177
150.7178129
158.7644409
149.6002256
132.0094028
98.30297211
106.4837106
140.4360104
154.4058507
145.3757459
145.3980977
126.9355568
140.994804
154.9422926
134.2445772
131.025926
121.5264346
128.924862
135.5409784
134.9151295
145.7110221
120.6770683
97.02892268
121.3476206
126.5332254
139.0278505
165.3805572
140.4136587
127.8966818
117.6372311
97.29714361
107.1542629
119.0230392
135.4068679
133.0152313
117.3243066
119.2242049
126.9802603
119.0006875
120.9452892
126.3544114
123.5604433
129.5730626
111.781074
104.784978
124.2309957
124.3427544
123.4486846
116.8102165
109.5011961
103.0191902
111.5575566
131.2941469
145.1298767
144.3028622
123.5380916
126.3097079
121.9958212
124.0074782
117.4137136
115.893795
110.5070246
107.4001321
128.835455
131.6294231
133.5293214
128.0084405
118.8889288
109.3670856
82.29912308
92.15624239
141.9112255
130.1989115
124.2086439
139.6536994
127.8296265
112.2728124
123.5604433
119.0006875
120.095923
105.8578617
101.8345477
110.3058589
123.9180713
123.068705
120.3194404
124.8568445
134.2222255
119.7606468
121.5040829
111.2669839
107.1319112
92.44681507
104.5167571
126.8685015
126.1979492
121.7946555
124.4768649
116.9219752
121.8840625
116.8325683
122.0628765
129.7071731
125.7062108
128.7683998
125.4826934
107.7130565
95.64311452
109.5235478
119.5818328
120.7664753
123.6274986
128.053144
125.4156381
118.4865974
102.7286175
97.78888199
117.6372311
120.9452892
121.5040829
131.5400161
107.3107251
89.00464642
88.66937025
104.002667
109.5235478
105.0084955
101.6110303
96.09014941
97.65477153
110.7752455
133.6410801
139.4078302
111.4234461
80.86861144
90.88219296
125.1921207
121.3252689
123.2251672
122.3310974
113.5245101
94.39141683
77.13587012
64.9094659
93.3185331
114.3962281
102.8403762
96.98421919
91.48569006
97.20773664
93.38558833
82.27677134
69.536277
88.15528013
109.2329752
106.1484344
102.3039344
85.04838765
74.34190206
67.41286128
81.40505331
119.1571497
110.3952659
96.76070175
101.3651611
105.1649577
95.30783836
100.9851814
92.1115389
71.88321017
79.01341665
93.25147787
91.15041389
95.26313487
102.683914
98.5488413
99.33115236
87.52943129
79.68396898
87.23885861
88.53525979
92.26800111
97.76653025
93.45264357
84.64605625
78.52167827
96.15720465
109.3223821
104.1591292
83.17084112
89.47403305
107.7354083
105.3437716
87.37296908
71.83850668
82.0532539
97.20773664
99.33115236
103.3544664
96.55953605
87.8870592
85.42836731
98.97352445
103.9356117
96.80540524
90.92689644
92.84914647
105.83551
96.91716396
84.91427719
82.79086146
93.96673369
100.6052018
88.02116966
107.3777804
117.0560857
103.0191902
80.86861144
76.64413174
95.28548661
110.0599897
113.5468618
113.2562892
111.5128531
93.07266391
88.53525979
94.1231959
107.1989664
98.88411747
89.94341969
90.21164062
81.33799807
82.29912308
102.0133617
109.5011961
106.6178211
100.8957745
101.0522367
90.32339934
77.47114628
86.56830628
108.0930362
104.8520332
110.1493967
106.2154897
93.74321625
89.56344003
102.4603966
101.5663268
97.99004769
89.74225399
96.49248081
86.85887895
86.12127139
101.4992716
98.99587619
86.680065
74.83364044
88.46820455
121.0123445
116.2067194
109.2553269
99.21939364
73.04550088
72.9560939
77.62760849
65.49061125
65.75883219
81.98619866
99.26409713
91.57509703
81.6509225
79.46045154
74.3642538
61.64611121
75.9735794
66.58584673
52.48189598
71.12325086
81.47210854
71.52558226
62.0931461
55.94641637
54.94058787
67.36815779
65.49061125
66.25057057
74.99010265
81.82973645
73.02314914
55.4099745
43.67530867
53.51007623
68.23987582
77.73936722
74.38660555
68.91042816
39.9202156
35.96395683
75.01245439
86.79182372
69.98331189
60.55087573
67.30110255
63.43425076
66.00470138
71.05619562
49.01737559
41.86481736
66.67525371
81.00272191
83.50611729
90.81513772
87.03769291
73.38077705
67.90459966
81.33799807
60.0814891
57.64514895
74.72188171
75.83946894
62.47312575
78.27580908
96.3360186
86.36714058
78.49932653
69.46922177
83.61787601
83.77433822
51.83369539
51.54312271
84.95898067
87.19415512
70.02801538
77.85112594
87.32826559
62.31666354
46.91631161
61.33318679
72.48670727
58.11453558
58.98625362
78.63343699
86.85887895
80.51098353
76.5770765
55.05234659
50.80551515
63.72482344
71.59263749
58.91919838
25.32452647
43.80941913
67.7257857
77.09116663
77.35938756
54.33709077
47.25158778
48.92796861
30.91246258
34.37698297
71.72674796
58.51686698
50.73845991
50.380832
7.957221026
20.02716303
45.99989009
93.49734706
99.30880061
65.80353568
24.51986367
17.36730544
66.07175661
115.7820363
98.16886165
56.54991347
46.67044242
60.32735828
68.41868978
85.33896033
85.24955335
33.30409924
42.75888714
87.41767256
73.78310845
68.48574501
95.39724534
95.44194882
78.7898992
66.9211229
96.11250116
101.3875128
116.4302369
122.0852282
89.58579178
83.43906205
85.33896033
83.43906205
86.94828593
110.3282106
102.0580652
92.17859413
103.2203559
84.80251846
69.31275956
77.80642245
97.31949536
97.25244013
86.97063768
96.42542558
110.3729141
95.66546627
83.75198647
98.43708258
101.0075332
97.92299246
94.57023079
102.9297832
95.57605929
85.80834696
80.46628004
87.97646618
95.10667266
82.12030913
101.0298849
121.4593794
112.4516264
108.3165536
100.8734227
81.69562598
77.80642245
95.24078312
100.940478
87.0823964
89.45168131
98.63824828
112.049295
108.3165536
108.987106
106.3048966
107.6012978
117.0784375
109.3670856
117.7489898
122.9345945
104.6061641
107.4001321
131.6517748
144.9957663
144.9957663
130.6682981
117.7713415
109.0318095
112.1834054
123.0016497
115.0891322
128.1201992
141.084211
133.1716935
120.2300334
108.3612571
115.1338357
122.1746352
116.3408299
125.5944521
140.5477691
133.4622661
120.8335305
105.3661234
114.7091525
124.7450858
129.2824899
130.2659667
121.6605451
106.6625245
107.8248153
121.3029172
136.2562342
120.9452892
119.4924259
135.04924
128.6566411
121.7723038
111.5575566
130.936519
143.7217168
128.835455
117.7936933
129.3495452
150.7625164
155.1434583
142.2465017
132.6128999
122.2863939
111.8481293
123.1134085
119.3359636
114.6868008
123.0463532
128.5001789
111.2669839
120.7217718
120.967641
116.85492
122.5099114
133.6410801
124.6780306
132.3446789
130.2659667
120.3194404
127.4943504
119.6041846
110.5293763
125.7062108
124.3427544
106.0366757
117.9725072
121.5711381
135.4068679
143.967586
135.5409784
111.781074
123.6051468
141.6653564
137.9549668
121.6381933
114.4632834
119.1571497
122.10758
128.2766614
126.4214666
139.5642924
142.5594261
119.7829985
102.9074315
105.1426059
130.1765597
141.6206529
145.3533942
145.7333738
134.5127981
121.1241032
112.742199
124.7003823
140.8383418
138.7372778
131.7188301
118.5313008
116.9666787
134.6469086
122.5546148
119.7159433
126.041487
130.4671324
117.7042863
121.7276003
134.6022051
135.5633301
118.6430596
117.2572514
117.9725072
116.1620159
148.8849698
161.4466502
162.6089409
155.2105135
146.5827401
148.9967285
142.8499988
135.0939435
130.936519
131.7188301
133.2387487
155.2328652
160.4408217
154.5176094
151.7683449
150.1590193
153.6011879
153.3553187
141.2406732
140.7489348
142.8052953
144.3252139
149.3767082
135.9656615
144.8393041
159.5467519
162.0277956
163.4136037
154.6293681
146.940368
160.7313944
161.0666705
145.3980977
142.5817779
147.4544582
154.3164437
152.9529873
166.3193305
156.1939903
148.3485279
142.8499988
145.3086907
156.216342
157.4456879
152.9306356
144.3028622
144.4369727
140.5477691
129.2601382
108.9200507
137.3738214
158.6303304
156.8198391
151.0083855
137.1950075
145.1522285
131.4729609
129.8412835
122.7110771
121.4370276
131.115333
145.4875047
134.7810191
134.6916121
142.8052953
138.3349464
127.7178678
124.3651061
123.068705
143.4534959
145.3086907
126.5555771
121.1241032
126.6673358
126.3544114
124.4545131
122.0852282
129.3942487
131.5623679
116.4302369
130.1989115
140.5477691
133.3952109
136.0327168
132.3446789
112.1387019
104.3602949
119.5371293
125.2368242
114.1950624
128.2096062
150.9636821
140.1677895
130.1095045
147.208589
150.7401646
140.5477691
136.6362139
136.6362139
131.4506091
128.8131033
125.1474172
121.9958212
122.7781323
124.4768649
132.2776237
126.6896876
143.5429029
149.8237431
139.0502023
137.8879115
125.862673
127.4049434
126.9355568
120.4088474
126.3097079
122.8675393
123.1804637
137.4632284
139.9666238
143.2970337
143.4311442
123.2698707
119.0900945
144.9510628
145.0404698
146.158057
162.7206996
167.7274904
152.7965251
139.1172575
132.2776237
149.4884669
160.3514147
149.1084873
139.8325133
139.7878098
138.2455395
145.8451326
165.1570398
173.0919091
161.9383886
140.7042313
134.8033708
128.835455
139.944272
138.8266848
166.4981444
182.1220138
173.3154265
151.7236414
126.7120393
135.6974406
157.0433565
161.3348915
157.4903914
158.4962199
164.084156
150.0696123
128.2096062
120.9005858
124.990955
116.1396642
104.3155914
117.0113822
128.7907516
122.889891
119.045391
115.714981
113.01042
97.65477153
90.41280632
93.18442263
95.57605929
108.025981
112.7869025
117.726638
119.5594811
112.5633851
108.6518298
109.5682513
105.9919722
106.8189868
101.5663268
80.46628004
89.0940534
123.1804637
138.6925743
126.3544114
117.3466584
119.3359636
125.080362
111.0658182
105.746103
117.9725072
124.119237
132.2105685
131.6070714
133.0599347
130.1318562
136.1444755
135.8539028
124.8568445
114.6868008
121.8170073
138.4690569
144.8169523
136.9938418
131.6964783
137.9996703
135.3398127
129.1260277
129.5507109
127.4719986
120.1629782
113.5468618
130.2883184
146.5380366
135.5856819
115.8490915
109.8811757
132.4117342
143.6770134
139.0502023
139.1172575
136.4573999
139.6536994
133.7304871
116.1843677
127.4943504
135.9656615
128.3660684
142.6711849
151.0307373
148.5049902
146.5156849
150.1366675
142.3582604
126.8461498
138.4020017
141.3524319
142.917054
140.9501005
141.7324116
126.823798
122.5546148
113.8374345
127.6731643
151.9918623
160.0161386
154.9646443
141.7994668
140.6818796
153.0870978
158.7420891
148.169714
137.0832487
164.352377
180.4232812
165.1570398
159.0773653
155.16581
158.7197374
158.1162403
163.301845
166.3193305
165.6040747
172.9130951
177.3387405
170.5661619
172.9130951
174.4330137
156.126935
142.917054
151.2989582
168.465098
165.7828886
158.7644409
158.4515164
163.7488799
168.2192288
167.3922142
165.402909
157.6915571
157.1104118
162.072499
163.6818246
171.527287
165.4476125
163.6594729
142.917054
139.072554
161.0219671
168.7333189
171.0355486
169.4485747
173.6283509
179.216287
179.7750807
158.0715368
160.5525804
167.146345
165.6040747
185.430072
186.391197
167.4592695
149.7790396
160.1726008
185.8100517
195.2648396
183.507822
172.4213567
170.9014381
165.1570398
167.6157317
166.5875514
193.7449209
203.9820199
193.7449209
179.4398045
180.8256126
180.6020952
176.3999672
174.7682899
168.4874497
164.7100049
164.1512113
182.0773103
178.1210516
180.5573917
171.2367143
158.8761996
172.4213567
171.5943422
177.8751824
187.7099499
182.0326068
169.0909468
159.2338275
160.6643391
167.8839526
166.7663654
190.4592145
186.391197
178.9704179
183.7536912
159.7702694
144.235807
175.0588626
185.1394993
177.5846097
174.3659585
181.8761446
179.5068597
175.461194
153.1318013
168.3980427
185.8100517
178.3892725
178.5010312
179.5515632
193.1861273
189.9004209
182.7031592
174.321255
168.4874497
172.8013364
190.1909936
186.480604
184.9830371
174.5447725
174.0977376
184.468947
188.0228744
195.0860256
192.5379267
177.6740167
178.9480661
198.6176012
193.6331622
184.3348365
189.9898279
191.8003192
183.5748772
197.2094413
208.6758862
195.4436535
185.9218104
190.8615459
198.1705663
197.7011797
194.6389907
197.3882553
191.9791331
190.7497872
184.4242435
185.3183133
180.5573917
182.8372696
195.9800954
197.3435518
195.0860256
197.3882553
195.667171
196.8294617
199.422264
194.3707698
187.0393976
185.6535894
185.4747755
180.9597231
192.9626099
211.2910403
208.8994037
196.1589093
201.9256594
194.706046
189.3863308
191.1744703
187.8887639
179.4398045
191.286229
203.6020402
179.9091911
182.3455313
195.3765983
184.3571883
175.8411736
187.9558191
194.2143076
193.9684384
187.4193773
176.6011329
180.4009295
191.643857
190.7944907
191.3532843
221.3716771
228.2783661
209.9946392
193.0296651
183.1501941
178.5010312
186.30179
196.2259646
201.9703629
202.1268251
190.325104
181.5185167
192.4708715
196.8741652
183.6642842
187.7770052
198.7517117
195.3095431
198.1035111
195.1530808
192.8061477
191.9344296
197.0753309
203.2220606
191.643857
197.5447175
201.7468455
185.608886
184.9830371
192.7614442
201.9703629
203.5796885
194.2590111
194.3260663
193.8566797
195.7789297
202.57386
197.8352902
200.9645344
199.4893193
188.8275372
185.5641825
187.7099499
184.5136505
183.6866359
204.6078687
195.6224675
183.4631185
177.0034643
174.2765515
172.0860806
166.2522753
170.2755893
186.5476592
187.8440604
182.2561243
182.2114208
175.550601
164.6876531
158.8314961
172.6001707
184.9830371
176.8917056
169.6720922
160.329063
155.9928246
173.9412754
182.0102551
185.2065546
183.9325051
175.9082289
164.7994119
166.8781241
173.5836474
181.8090894
184.8042232
167.0345863
170.0520718
185.3183133
179.1045283
172.220191
166.7440136
172.2648945
175.8411736
166.8557724
156.7080804
162.3854235
160.5749322
159.0326618
156.8868943
151.8577518
145.979243
150.7401646
154.9199408
148.0356035
145.3086907
137.3291179
144.8169523
144.1687517
146.8733128
153.6011879
129.7071731
130.6459463
137.5079319
130.7353533
135.3621644
149.3767082
149.7566879
149.2649495
149.8237431
147.029775
145.4875047
150.7401646
152.9306356
150.091964
144.6828419
151.0083855
144.2581587
136.6138621
138.5808156
144.1687517
157.0433565
155.9704728
146.1357052
152.1483245
147.0968303
128.1872545
125.7062108
153.2212082
162.34072
155.0540513
144.0122895
140.0113273
136.3009377
139.7431063
146.6274436
151.1648478
153.6235396
154.2270367
142.5147226
136.9267865
127.6955161
146.8062576
158.0268333
148.0579553
150.3378332
151.3436617
143.185275
144.0122895
140.6148244
136.5244551
140.2795482
143.3640889
132.858769
146.3368709
157.8703711
146.0015948
133.5069696
136.4573999
138.022022
128.3884202
131.3164987
128.3884202
118.3301351
97.09597791
96.51483256
107.0201525
112.4516264
116.0055537
111.4010944
106.6848763
109.2106234
113.8597863
105.746103
106.2154897
114.1950624
116.5196438
110.7081903
103.823853
100.3816843
103.6897425
101.2757541
95.95603895
91.23982087
90.59162028
91.12806214
106.4837106
109.6576583
100.3593326
100.5381466
87.39532082
82.99202716
91.73155924
99.26409713
102.6168588
103.7120943
107.5342426
99.73348376
92.37975983
103.4438733
102.5721553
95.79957674
98.63824828
113.2339374
111.6469636
98.57119305
89.71990224
99.7558355
111.8928327
111.0434665
105.0755507
100.6946088
112.2728124
108.025981
91.7092075
100.2252221
106.796635
103.9356117
110.7081903
108.4059606
97.31949536
93.09501566
99.7558355
101.812196
100.3593326
101.5663268
99.17469015
95.95603895
92.84914647
90.5022133
95.84428022
97.49830931
93.98908543
94.45847207
89.47403305
82.8579167
85.89775394
97.85593723
95.03961742
92.44681507
84.60135276
81.00272191
87.44002431
89.36227433
94.16789939
100.4263878
95.1290244
89.2952191
85.36131207
90.36810283
96.29131511
93.27382961
91.75391099
82.67910274
68.37398629
67.36815779
84.48959404
109.3000304
121.6605451
117.7936933
117.2572514
119.4253706
136.6585656
160.3737665
170.0073683
175.0141591
173.36013
177.0928713
178.9927696
166.1405165
183.7536912
204.4514065
208.9217554
207.0665606
197.7905867
198.1705663
196.538889
181.1161853
191.9567814
205.9266217
197.2541448
188.8722406
185.3630168
194.9966186
193.7225692
191.0850633
188.9392959
191.375636
197.8352902
190.7944907
193.5437552
192.8508512
192.515575
196.0024471
195.1977843
188.7381302
187.352322
191.8897261
187.620543
197.6341245
203.2444123
202.1491769
198.7740634
204.1608339
208.2064996
199.8469472
186.391197
181.2949993
182.3902348
177.383444
173.9636271
198.8858222
210.620488
207.1559676
201.5680315
190.2133453
185.5865342
184.7148162
193.4767
199.1093396
197.4553105
198.8411187
201.6350867
193.3202378
192.0238366
200.6739617
195.0860256
186.1006243
188.0675778
191.4426913
190.503918
183.329008
189.6098482
194.527232
191.2638773
182.8596214
172.1307841
171.8625631
188.7604819
183.1948976
178.1657551
186.2794383
186.6147145
173.4942405
169.0685951
168.6215602
168.0404148
177.0258161
180.0656533
178.8810109
176.0423393
172.2648945
173.181316
173.1142608
189.7216069
206.775988
194.1472523
184.6701127
181.2726475
172.6225224
167.1910485
162.6312927
162.8548101
164.7547084
180.7809092
184.3124848
174.9471039
173.5165922
182.0549586
186.8829354
175.4835457
157.4009845
164.2853217
178.1657551
184.9830371
189.0510546
191.0627116
186.6147145
177.7187202
165.7158334
157.8256676
176.7575952
186.6594179
178.5010312
172.8683916
169.336816
170.0744236
163.1677345
151.1201443
161.9383886
175.461194
171.1473073
162.072499
156.8198391
153.9141123
158.2056473
166.9451793
157.7139089
158.049185
165.7381851
174.8800486
169.8285544
158.317406
155.3669757
160.5525804
163.301845
157.4456879
166.6993101
179.7750807
177.9422376
172.5107637
172.4437085
167.4816212
165.9617026
164.5982462
163.4136037
166.2969787
160.5972839
160.6643391
158.4291647
159.5914554
166.4310892
168.196877
171.7061009
173.538944
156.6857286
144.4816762
158.3621095
162.8101066
164.26297
166.18522
165.0676328
154.9646443
150.2484262
160.7760979
161.0890223
161.7819264
158.6526821
162.8101066
170.2755893
165.0229293
170.5885137
171.2143625
162.0277956
167.0122346
166.9228276
168.5098014
161.7372229
155.4787344
155.5234379
157.6915571
161.7148711
163.5924177
157.5350949
149.4214117
151.0754408
158.6079787
154.9646443
153.0200425
155.4787344
175.7964701
170.8567346
166.18522
166.5875514
165.0899845
144.7722488
135.0045365
137.1056005
146.247464
145.4204494
138.0667255
136.1668272
137.9996703
134.1998737
143.9452343
152.282435
139.2737197
127.5390539
121.3252689
132.5905481
154.2270367
147.5438651
130.5118359
132.5681964
137.0161935
132.3446789
130.5118359
139.1843127
146.8733128
150.1143158
148.8179146
140.6818796
130.0424492
125.3262312
126.5779289
135.920958
147.6556239
151.8354001
136.189179
130.8247603
134.1998737
134.4680946
144.9957663
146.5380366
145.8004291
150.0472605
150.5613507
145.4204494
137.7090976
140.6595279
139.4972371
142.6711849
145.018118
149.041432
148.1026588
138.4690569
129.1707312
114.6420973
113.8150828
116.9666787
113.3903996
118.4865974
118.4195421
108.987106
112.5186816
116.2067194
116.6984578
108.2271467
94.36906509
92.89384996
104.0250187
114.5750421
121.5711381
125.5273969
113.3680479
107.9142222
116.072609
115.6702776
116.85492
121.4593794
124.1862922
133.0599347
138.2902429
132.9034725
125.5273969
110.4399694
109.0318095
114.9103182
107.1319112
110.4399694
122.9122428
129.5507109
123.761609
126.130894
117.7713415
95.62076278
106.796635
121.7723038
122.9569462
128.7013446
125.3709346
117.2572514
116.1620159
112.3622194
117.3466584
127.4943504
125.6838591
136.099772
139.4525337
144.1016965
146.4709814
145.4875047
145.5769116
131.0482777
125.9744318
137.9773185
151.2095512
149.4437634
147.0744785
153.3553187
154.6517199
144.9510628
138.022022
143.185275
147.1862372
142.4029639
138.6255191
143.7887721
143.6546616
149.9131501
149.1755425
144.4146209
143.6323099
127.8296265
135.9433098
154.3164437
156.9092461
152.1706763
148.2144175
147.9014931
134.870426
127.4719986
136.4126964
143.5205511
145.979243
151.9471588
148.7732111
134.2445772
121.928766
128.9025103
134.2892807
134.4010394
135.2951092
141.3971354
146.8733128
144.3252139
143.7440686
130.8694638
118.2630799
128.8131033
140.6595279
149.3767082
150.0472605
141.4418389
139.2066645
142.7158883
143.6099581
129.1483795
132.6128999
127.002612
123.6722021
136.6809173
151.9695106
150.7401646
147.8344378
143.2523302
135.8091993
141.8888738
124.8568445
117.4807689
125.080362
117.7042863
117.2796032
120.9899927
120.6770683
123.5157399
116.7878648
113.4798066
102.0133617
94.74904475
98.9511727
116.6984578
125.1474172
115.6255741
113.4574549
118.4418939
111.0658182
96.26896337
111.1552252
124.5662718
120.1629782
116.4972921
114.2397659
109.8364723
108.718885
107.8695187
110.6634868
120.6770683
131.9423475
123.5827951
114.2397659
112.1610537
114.1280072
113.5692136
116.4972921
121.5487863
115.6479258
106.6401728
122.6663736
128.2096062
129.5283591
133.9316528
140.8159901
160.0831938
177.294037
192.4708715
191.1297668
184.9159819
197.7235315
200.9198309
201.9256594
209.5029008
225.2832324
226.4455231
204.8984414
194.3037145
203.4679298
211.0898746
204.9207932
201.7244937
202.3056391
208.5417758
212.632145
212.0957031
210.6428397
209.1676246
206.8877467
200.0257611
200.8304239
220.0529242
227.2501859
215.5378718
205.9266217
195.8906884
208.5864793
230.3123749
232.5475493
223.2045201
223.7186103
223.6068515
217.3260113
203.3114676
198.550546
211.0675229
216.9683834
218.9800404
216.1190171
210.3746188
204.6302205
199.6457815
207.2006711
216.7895695
209.6146595
210.9334124
220.0082207
212.2074619
206.9548019
215.0684851
220.3882003
209.3240868
213.3474008
220.0082207
216.476645
213.9732497
213.9285462
218.4659503
212.2521653
213.9732497
221.3940288
214.1744154
207.5806508
204.3619996
202.6409152
210.1734531
216.834273
226.2220056
229.7535813
230.0218022
217.1695491
207.8265199
218.1753776
223.3162789
220.4105521
231.5864243
240.795343
221.2822701
206.3513048
205.636049
212.721552
212.9450694
225.7749707
238.694279
233.6651365
224.3221074
224.702087
229.6194708
220.2093864
210.7322467
224.4562178
229.7982847
224.2550521
222.9810027
217.4377701
221.0364009
225.4396946
224.8138457
215.9849067
226.4902266
224.6797353
218.3094881
217.7730462
215.9849067
220.0752759
222.0422294
206.2171943
205.725456
222.4669126
230.3794301
224.6573835
209.5923078
195.1307291
195.1754326
203.4008745
197.7011797
191.1744703
178.3222173
170.9014381
164.3747287
166.1628683
167.8392491
169.7614991
175.2153248
172.9354469
174.5224207
186.0559208
174.1871445
175.5729527
173.9859788
168.5545049
160.2173043
163.391252
165.6040747
172.9801503
182.8149179
184.558354
184.5807057
180.53504
170.6108654
155.6575484
144.8616558
156.7304321
173.0472056
176.9364091
174.2094963
171.7955079
165.9617026
160.7760979
162.3630717
170.2755893
169.5156299
169.0015398
176.422319
176.2211533
178.3222173
181.4738132
168.9568363
161.1337258
167.3922142
167.2134003
165.9393508
174.7012347
173.6507027
175.8411736
171.0802521
162.5642374
169.336816
178.7692522
170.2755893
167.6604352
171.5049352
173.8965719
170.9014381
165.8722956
173.0248538
171.8402114
162.5418857
169.6050369
173.4048335
180.266819
181.5632202
186.7041214
190.2133453
178.2104585
166.2522753
164.5311909
165.7605369
175.8635254
179.8868394
174.5224207
169.247409
165.8499439
151.5224757
140.8830453
146.1357052
152.6177111
151.8354001
146.8733128
148.9520251
141.3971354
126.4661701
121.3476206
137.7538011
149.4884669
144.5263796
140.4583622
145.4651529
150.1590193
144.1464
145.6439669
156.0151763
155.5234379
149.1084873
132.2105685
124.6780306
137.7761528
157.3339292
160.3067112
147.1862372
132.9258243
123.1134085
122.6663736
130.5341876
140.1454377
143.9005308
138.6478709
144.6604901
146.8733128
142.6711849
136.0774202
135.4962749
128.4778271
134.9374813
146.9850715
148.5049902
145.2416355
147.8344378
142.8947023
135.5409784
133.0599347
131.8529405
125.4826934
130.936519
142.7158883
154.6517199
149.130839
135.5186266
126.3544114
127.8072748
143.9005308
145.286339
137.5749871
143.9899378
155.2328652
161.5807607
149.4437634
135.5856819
140.5030656
138.2902429
127.4719986
126.3097079
130.0871527
129.3271934
122.4875596
114.2621177
125.1250655
136.8373796
138.4243534
131.4059057
132.6799551
133.037583
116.4749404
113.3680479
121.8170073
131.6070714
126.6449841
115.5808706
117.1901962
132.4564376
130.2212632
118.5536526
108.808292
110.4399694
111.691667
117.994859
122.1746352
122.800484
119.8724055
116.5419956
112.0939984
114.4632834
120.7217718
120.4982544
118.5313008
120.7217718
110.4846728
104.4049984
116.6537543
121.3923241
119.6265363
116.85492
111.6693153
126.5779289
123.7839608
114.3962281
114.3738764
111.4457979
119.4253706
130.2212632
120.3194404
108.5400711
109.8141205
116.0055537
119.2912602
109.3894374
105.8131583
124.0745335
131.115333
124.990955
113.7480275
106.1707862
100.1134634
110.819949
123.1357602
121.1688067
119.5594811
118.1066177
117.8831003
116.6314026
110.6187833
102.1698239
119.9618125
120.6770683
114.7315043
106.2154897
108.1600914
116.3631816
117.7042863
121.1241032
116.5419956
108.3836089
117.0113822
115.4244084
103.8462047
113.4798066
127.4943504
125.1027137
125.5721003
127.1367225
120.1182747
106.886042
104.0920739
108.2494984
119.0006875
125.5721003
132.7246586
132.5234929
120.9899927
118.9112805
123.3369259
109.7247135
103.5556321
115.2679462
128.1649027
126.7120393
122.3758009
114.7985595
109.7917688
103.5556321
102.7956727
86.56830628
84.57900102
87.19415512
81.94149517
76.46531778
74.90069567
77.60525675
80.93566667
77.53820152
64.59654148
59.99208212
69.49157351
79.41574805
74.85599218
74.20779159
84.13196613
82.61204751
78.40991955
69.69273921
53.33126227
65.73648044
83.4614138
93.54205055
93.76556799
82.67910274
79.66161724
86.52360279
83.21554461
85.24955335
87.86470745
81.78503296
84.82487021
89.58579178
85.29425684
82.67910274
79.59456201
76.64413174
66.69760545
75.50419277
84.93662893
76.39826255
75.32537881
77.09116663
87.46237605
85.80834696
79.19223061
70.87738167
69.17864909
67.97165489
78.76754746
89.54108829
85.45071905
79.99689341
77.582905
81.82973645
72.88903867
66.47408801
73.09020437
82.20971611
73.82781194
69.78214619
71.70439621
67.14464034
71.86085842
67.97165489
45.30698601
39.60729117
49.44205874
46.67044242
36.76861963
36.65686091
43.67530867
49.86674188
50.20201805
36.0980673
32.94647133
43.11651505
39.74140164
39.5178842
47.58686395
57.64514895
47.85508488
31.49360794
26.21859625
28.14084627
41.70835515
42.5353697
45.08346857
45.08346857
36.92508184
26.06213403
21.3682677
38.46735221
35.24870101
37.39446847
43.49649471
44.09999181
41.70835515
43.07181157
34.80166612
28.14084627
33.50526494
37.39446847
28.34201197
23.9834218
48.50328547
48.45858198
34.28757599
28.02908755
29.79487536
41.84246562
40.05432606
29.59370966
36.47804695
37.72974464
17.90374731
20.9659363
37.64033766
44.18939879
39.80845687
20.92123281
9.23127046
22.99994504
42.64712842
52.30308203
54.0018146
54.87353264
60.01443386
66.83171592
74.85599218
92.82679472
105.1202542
114.9103182
127.2708329
137.2620627
140.8830453
139.9219203
149.2425977
161.111374
163.5030107
180.8926679
196.8071099
207.2677263
204.5184618
192.6273337
193.7002174
195.488357
193.1414238
196.8294617
200.1151681
199.8692989
185.7429964
184.2007261
200.8080722
197.9917524
194.6613425
193.8790314
192.8061477
194.0801971
190.3027523
195.1083774
194.9742669
194.7731012
198.3940838
192.8955546
184.2007261
181.0044266
185.5641825
197.6564762
206.0383804
203.9820199
195.0189704
192.3591128
190.3474558
190.3698075
190.503918
188.0899296
193.4767
200.3386856
201.3892175
208.4076653
215.2025956
215.4261131
211.2016334
214.4873398
219.6729445
228.3007179
222.3104504
217.8401015
206.8877467
209.1005694
222.1539881
225.931433
225.842026
216.9236799
215.604927
219.896462
218.6224125
225.0597149
226.1773021
219.4941306
210.7322467
210.441674
217.5495288
219.4494271
214.2191189
221.6175463
218.4435986
221.1258079
231.698183
236.682622
231.2064446
219.0247439
229.6641743
232.1899214
223.9868312
219.0917992
216.7225142
214.5096915
216.9460317
214.4426363
222.4222091
228.635994
226.2443574
225.931433
218.1083224
211.9615927
216.2307759
223.830369
217.4377701
220.3434968
220.4105521
209.3464386
218.8012265
232.9722325
230.1335609
221.550491
231.2064446
236.8390842
218.9353369
199.7798919
208.4970723
229.5077121
235.0062412
226.3337644
226.0878952
228.4571801
233.1063429
222.6680783
215.4484648
208.8323484
216.7895695
224.8361975
227.2725376
229.7088778
238.1131337
235.8332557
232.8157702
232.0781627
219.4941306
208.2959066
194.9966186
191.4203395
197.500014
201.4115693
204.4737583
198.6176012
197.589421
193.9907901
182.6137522
182.2337725
188.7157784
194.527232
204.7196275
203.3114676
189.3416273
189.1628133
187.7770052
184.1113191
192.426168
196.2036128
195.0860256
195.1083774
193.5214035
188.6710749
185.3853685
180.6915022
185.608886
202.0150664
197.9023454
183.3066563
181.1608888
189.6992552
189.542793
183.8430981
181.7867377
189.0957581
198.0141041
194.8401564
183.3960633
179.3503975
175.9752841
184.8265749
199.511671
203.1997088
209.1229211
205.9936769
194.6389907
188.5146127
185.251258
180.1327086
185.9218104
201.5903832
204.9431449
189.453386
185.0724441
200.6292582
199.8916507
189.1404616
182.5914005
189.4086825
197.500014
190.3698075
193.1637756
204.4737583
201.0092379
204.1384821
195.9130402
187.8664121
194.5942872
197.5447175
198.6176012
191.3532843
189.1628133
190.5709732
194.9295634
195.6448192
196.7847582
201.1880518
197.1200344
185.2065546
185.8324034
184.4912987
180.8479644
181.9879034
180.5573917
179.4621562
175.0588626
170.1414788
166.5651997
171.6390457
174.6118277
177.383444
177.0481678
172.3319498
165.6487782
166.3416822
165.6040747
162.4748304
165.6934816
167.8168974
170.9908451
174.9471039
181.3844063
174.5894759
164.1512113
154.8752373
151.9248071
160.4855252
165.0899845
170.476755
173.9636271
177.8751824
173.3824817
168.375691
158.6973856
154.9869961
164.2406183
178.0986998
186.1006243
194.8848599
197.3659035
199.8916507
207.7818165
216.9460317
236.8390842
247.1655902
248.1714187
246.0927065
243.9916425
240.6612326
233.70984
230.3794301
230.4688371
220.4552556
227.8760347
237.8672645
231.1617412
226.4678748
221.7516567
222.7351335
220.589366
216.6107555
220.9022905
234.9838895
233.5310261
216.0519619
218.6447643
233.5533778
237.8002093
229.4630086
224.2327004
222.0422294
222.69043
231.7428865
242.0917442
236.4591046
229.8429882
228.5465871
225.1714736
220.1646829
235.2744621
236.6155668
227.2501859
225.2832324
225.2608806
228.9936219
238.2248924
236.5485116
234.7827238
238.2695959
236.3696976
231.4970173
228.5689388
227.2725376
223.0927614
231.3182034
239.3648314
244.4163256
236.8837877
229.6641743
228.904215
227.1607789
224.0091829
232.1899214
228.9489185
234.2239301
242.6281861
231.1393894
217.4377701
214.4202846
217.0801421
226.1549504
235.2297586
225.573805
223.8527207
225.931433
230.7594098
229.8876917
223.919776
218.3765433
236.9061395
243.5446076
230.6252993
224.4562178
225.7079155
226.8478545
241.1529709
240.7729913
233.1510464
235.9450145
242.985814
227.2278341
210.8663572
202.9091362
209.2570316
224.9256045
216.2978311
218.3765433
226.3337644
228.2783661
218.6894678
205.9266217
208.2959066
221.2375666
227.8983865
221.1928631
220.1423311
226.2890609
220.1870346
208.3406101
211.4698543
217.4824736
222.9810027
219.9188137
212.8780142
215.1131886
223.0927614
221.7740085
214.1073601
220.0305724
227.8983865
220.5670143
212.6097933
218.6447643
214.8449677
217.3036596
230.0441539
227.2278341
217.9742119
219.6505928
223.4280376
217.1248456
213.772084
218.667116
215.0684851
213.772084
215.7166857
213.2803456
214.9343747
216.0519619
223.5397963
227.0043167
220.3658486
214.3085258
217.7283427
227.6078138
223.9644794
201.9480112
198.2152698
221.7069533
222.1539881
219.9635172
221.818712
221.8634155
210.6428397
202.0597699
205.636049
196.6506477
196.1365576
203.8032059
213.2579938
220.9022905
212.632145
211.2239851
205.9042699
192.2920575
193.6778657
208.3853136
208.0500374
204.3172961
203.9149647
203.5796885
202.9314879
209.3017351
212.810959
211.5145578
212.9227177
205.6136972
207.3794851
217.1248456
207.8935752
196.6059442
198.6846565
201.8809559
211.7157235
213.3697526
215.1578921
216.0966654
210.7322467
207.1336159
215.2696508
216.2754793
208.1841479
214.5767468
218.667116
204.8090344
196.4271303
195.7118745
207.9829822
217.2813079
220.2317381
221.0587527
208.0947409
198.5058425
211.0228194
213.9508979
212.8780142
214.4426363
209.3017351
207.3347816
206.6418775
208.4747205
207.6253542
218.1306741
221.8634155
206.4630635
205.5019385
209.569956
208.7429415
208.519424
203.4232263
210.9334124
210.9781159
208.1170926
209.6370112
212.4309793
210.6651915
206.0607321
206.6642292
215.8060927
212.8333107
210.709895
207.2453746
213.1015316
205.7925112
208.1394444
221.9751742
220.7905317
208.6311827
196.1142059
200.6292582
211.7380752
202.5291565
200.2045751
215.694334
208.519424
191.3532843
198.0364559
197.678828
197.3212001
207.558299
209.7040665
200.9645344
194.2366593
197.9917524
206.2618978
207.558299
209.0558659
208.519424
207.0889124
196.449482
197.500014
207.2006711
210.9557642
212.2521653
197.4329588
188.8722406
193.4543483
203.5573368
217.527177
213.7050287
195.577764
190.6156767
200.9198309
201.5680315
196.6059442
193.0967203
198.7070082
212.4086276
209.6146595
208.1841479
217.9965637
223.2492236
232.1005144
232.7040115
230.647651
225.3279359
233.0392877
239.7895145
247.5008664
242.807
241.4882471
240.4600669
237.3978779
244.7963053
245.0645262
236.8837877
242.2482064
245.7350785
245.6233198
244.036346
237.5990436
234.1121714
229.0159737
228.9712702
230.6252993
233.5980813
238.4707616
238.0237267
232.7263633
234.3356889
233.70984
226.0655434
234.6039098
236.5261598
228.1889591
236.7273255
239.0072035
236.3473459
238.8283895
241.2870814
241.2647297
240.0800872
243.4999041
249.5795786
250.1160205
244.0139942
234.5368546
228.9489185
235.6991453
235.9673662
251.2559594
251.5241804
246.0256512
240.974157
236.4591046
231.6311278
237.4649331
234.670965
226.5572818
237.2861191
239.1413139
246.3385756
243.6787181
233.1733982
225.0373632
229.1947876
241.3094331
245.8244855
239.0519069
235.9226627
248.05966
254.3181484
261.3812997
251.6359391
245.9362442
250.8089245
247.0314797
247.3891076
244.8410088
238.8060378
232.748715
233.7545435
242.3599651
241.3764884
240.1247907
246.1821134
243.3881454
235.4979796
236.4591046
245.2880437
244.4163256
238.8507412
242.7622965
238.2248924
231.9217005
234.2909854
233.7768953
229.7312295
231.4299621
231.7428865
234.3133371
234.2015784
237.2414156
238.8507412
233.1063429
237.2637674
242.2705582
235.4309243
232.3016801
235.1179999
245.2656919
251.7476978
244.2822152
240.1918459
238.6495755
230.9605755
226.7584475
236.4144011
242.0693925
243.5446076
243.2540349
252.2617879
249.1772472
242.7622965
241.2647297
238.4484098
229.7982847
234.2462819
243.9245872
240.7506395
240.9518052
252.5076571
245.3774506
233.3745639
236.950843
232.7040115
238.9177965
237.3755261
224.2327004
238.9625
247.9479012
240.6388808
240.4824186
236.1461802
223.3162789
223.830369
226.4678748
230.1335609
243.1422762
244.1928082
236.9955465
237.7778575
243.0528692
238.8954447
235.9450145
234.9615377
242.2705582
241.1976744
241.3988401
241.1753227
235.8779592
233.9557092
224.4562178
215.694334
215.6496305
224.5903283
228.7701045
217.5495288
213.7497322
209.0335141
204.9878484
211.2910403
223.5397963
225.1714736
223.6292033
224.0538864
208.9664589
209.569956
201.3221623
196.2930198
208.1841479
220.857587
220.9693457
219.9411654
220.3434968
224.9032527
230.2676714
223.7633137
210.5757845
202.5515083
208.9441072
202.7750257
196.538889
220.9246422
233.0392877
224.8361975
213.2579938
213.5485665
210.7545985
209.74877
210.0169909
210.9781159
221.2152149
221.2822701
225.8867295
239.5659971
242.985814
235.2074069
235.2297586
246.740907
258.9226078
243.9245872
233.978061
243.6116628
251.90416
249.3560611
245.5115611
236.6379185
231.4299621
236.772029
240.88475
242.807
253.9828722
253.6028926
251.2112559
251.6806426
237.5766918
230.2006161
243.2093314
242.8740553
246.3385756
243.1422762
245.8021338
243.9916425
243.5893111
248.7078606
249.1548954
247.4114594
241.0188605
246.7185553
248.4843431
240.795343
242.3376134
242.6058343
243.4328489
251.6135873
250.3618896
244.3716221
235.63209
236.4591046
241.5105988
255.055756
258.9226078
258.4532211
265.4269654
264.6446544
254.5416659
248.1937704
244.1928082
244.1034012
247.3891076
239.655404
237.0626017
239.8118663
237.3084709
245.3327471
247.1879419
242.9411105
245.6456716
246.830314
238.3366511
236.7273255
250.071317
246.740907
231.2287964
235.7438488
231.4076103
219.4717788
235.989718
242.2929099
238.3142994
231.4523138
227.4066481
233.2628051
231.7205348
239.7001075
248.0149565
238.4260581
230.7817615
237.4872848
243.2093314
235.3191656
229.1277324
243.5446076
249.020785
247.4114594
241.9576337
236.9061395
234.4250958
244.4610291
249.4231164
244.7739535
240.0800872
238.3590029
240.1471424
240.974157
240.9965087
238.9625
249.5795786
248.8643228
237.7555058
232.0334592
229.3959533
233.1733982
242.5387791
249.8477995
244.2822152
240.6612326
233.888654
232.2569766
222.8021887
213.503863
221.8857672
220.7458282
220.8799387
214.7108572
206.1054356
200.9198309
191.465043
192.2473541
200.0034094
203.3785228
201.6574385
204.2502408
203.3785228
200.472796
205.3678281
202.0150664
195.9800954
200.2045751
198.9528774
194.8178047
194.4825285
204.5408135
203.2444123
196.8741652
203.1773571
209.1229211
203.6467437
191.5097465
195.3765983
202.7973774
204.7196275
204.8984414
208.6535345
203.0655984
194.437825
199.0199326
204.8537379
213.7497322
206.8430432
193.9684384
192.1802988
192.9179064
198.1258629
209.2123281
200.9198309
192.8732029
197.500014
209.0782176
203.4902815
195.488357
192.2920575
195.2201361
206.5524705
203.4232263
190.6156767
189.9898279
196.6059442
202.9091362
205.0325519
207.5135955
204.0043716
201.1880518
191.7779674
188.4252058
189.7886622
196.4941855
202.1491769
210.620488
214.2191189
214.8896712
218.756523
210.3969706
211.5145578
219.3153166
212.5203863
207.6253542
204.8090344
220.0082207
226.5796335
227.8089795
229.5077121
221.9528224
220.9469939
214.0403049
200.2939821
201.4786245
215.2249474
221.7740085
221.0811044
220.2987934
223.0257062
218.9353369
219.2482614
216.9013282
211.1122264
209.2793833
214.9343747
223.919776
218.577709
209.569956
207.2006711
214.0403049
226.0878952
225.1714736
222.5339678
228.7477528
234.8944825
235.2297586
228.3677731
219.9635172
215.7166857
213.8167875
217.0130869
225.7302673
232.5475493
235.7885523
229.6194708
226.3337644
230.4017818
225.1938254
220.589366
226.6690405
231.1393894
245.0645262
259.1461252
254.9439973
253.7817065
248.8866745
245.8244855
246.4056309
246.6515001
245.4445059
243.8798838
241.0412122
250.9877385
255.055756
256.1733432
248.841971
241.2647297
240.795343
247.4114594
251.4347734
248.1267152
246.4950379
254.8322385
248.2831774
239.8118663
238.7613343
247.970253
249.892503
243.2093314
246.2268169
250.4065931
251.9712152
262.051852
264.3764334
260.4425264
260.7554508
267.4386224
273.5630004
273.4959452
253.915817
244.0586977
260.0848985
264.152916
266.9245323
266.9245323
269.226762
269.9867213
260.7554508
262.5882939
269.2714655
270.187887
266.075166
258.5649799
256.5309711
254.4522589
248.5066949
258.9673113
269.8749626
266.2316282
252.865285
246.6738518
255.5698461
264.4658404
262.8118113
251.2112559
251.121849
253.4687821
249.5348751
255.5474944
261.2918927
253.2676164
257.2015234
254.8322385
253.2229129
256.4639159
244.4610291
241.6447093
253.3793751
251.9265118
256.6650816
255.927474
254.4969624
260.1072502
256.3298054
248.3502326
242.8740553
230.5358923
219.0694474
217.8624532
228.5465871
217.3930666
196.538889
184.1560226
176.8470021
177.8751824
178.9927696
180.0656533
181.6079237
180.1997638
174.9247521
170.3426445
170.5214584
169.9179613
173.2483713
177.2716853
171.7508044
174.4553655
177.0034643
176.2658568
176.2658568
169.5379817
175.5282492
186.5923627
177.20463
161.8936851
166.1405165
168.9568363
176.8470021
180.0209498
182.1220138
181.0714818
177.7634237
173.6059992
171.3037695
177.9645894
188.6934267
189.3416273
181.0267783
171.3931765
166.8334206
167.2134003
176.3105603
180.7362057
179.6856737
178.1657551
179.1939353
180.0209498
183.1725458
184.9830371
176.0870428
175.9752841
177.3610923
166.8110689
152.8635803
154.1823333
166.6769584
167.1910485
162.9665688
165.6264264
167.3698625
161.4913537
161.7819264
162.5642374
156.0822315
165.3805572
174.500069
182.9266766
184.8936301
178.7245487
175.3270835
168.1298218
169.1356503
171.259066
164.8217636
167.235752
163.0336241
164.2406183
168.6662637
164.9335223
163.6147694
165.3358537
162.34072
165.4699642
170.0744236
170.8120311
166.8110689
170.6779207
165.1570398
159.099717
158.4962199
157.0433565
151.0083855
153.1318013
158.2727025
162.0054438
155.255217
141.5759494
129.8189318
126.0191352
124.5662718
130.7130016
129.0813242
132.7917138
125.4156381
128.4107719
133.8645975
121.3923241
124.2533474
135.8091993
127.6731643
123.2251672
131.2270917
134.6916121
122.7781323
133.6410801
146.158057
146.8733128
139.9889755
135.4962749
133.6410801
138.89374
138.4914086
126.9579085
125.2591759
136.5915104
137.4855801
139.2066645
133.1046382
120.6547166
114.4185799
125.7062108
135.0268883
133.4399144
126.0861905
122.6887253
119.5594811
113.7480275
111.7363705
96.49248081
86.90358244
94.36906509
107.936574
103.5109286
94.95021045
93.69851276
96.1348529
95.97839069
101.4098646
98.41473084
99.84524248
89.56344003
77.51584977
67.52462
62.87545715
80.19805911
82.43323355
78.76754746
69.91625666
64.06009961
61.71316644
54.18062856
48.10095407
58.76273617
86.23303011
91.66450401
80.04159689
73.73840496
65.64707347
64.21656182
70.85502992
68.03871012
59.61210246
60.19324782
56.66167219
64.66359671
75.23597184
83.88609694
99.37585585
101.0298849
108.8529955
101.2310506
87.82000396
76.86764918
84.93662893
81.8520882
83.48376554
90.59162028
90.36810283
78.65578874
71.72674796
58.65097745
56.19228556
57.77925942
63.68011995
58.56157047
70.58680899
96.47012907
111.5575566
120.7441235
116.8996235
120.3417921
135.6974406
149.4884669
155.7693071
161.200781
171.527287
188.2016883
194.9966186
203.1326536
210.620488
217.3483631
224.880901
226.9819649
233.1063429
244.8410088
247.6349768
247.2997007
254.876942
255.0110525
257.7826688
253.1111542
255.5698461
301.5920879
293.1207768
250.8089245
251.0547937
237.9566715
241.5553023
249.5795786
259.2355322
260.7330991
244.2375117
229.7312295
237.2190639
232.7040115
238.5154651
257.7379653
264.7340613
272.2218957
282.2354772
270.3890527
264.4881921
263.3259014
262.141259
251.4794769
238.6272238
239.7001075
239.5436453
237.3308226
240.974157
243.5446076
249.6466338
255.7710118
250.2948344
236.3473459
234.3803924
237.3755261
243.4552006
239.4989418
244.6845466
251.8371048
249.1548954
252.2394362
259.4366979
273.3394829
273.6300556
248.9760815
240.3036046
246.6067966
233.0169359
240.8623983
258.900256
264.6223026
258.028538
267.8409538
257.9838345
221.1928631
255.3463287
270.5455149
268.958541
263.7282328
257.5591514
252.7088228
257.7379653
252.8876368
249.5795786
256.4415641
260.5095816
261.8059828
257.939131
257.6262066
256.6650816
263.3706049
255.7710118
244.1034012
247.5232181
242.3599651
238.9625
242.3376134
243.2763867
232.3240319
218.5553573
211.2910403
205.6136972
213.2579938
211.6933717
203.0432466
200.8527757
196.3824268
187.9558191
183.5525255
172.309598
157.9374263
187.1511563
217.4824736
218.8012265
199.1316914
188.5146127
187.9334674
185.340665
179.2833423
175.4388422
186.8158802
187.9334674
180.9373714
187.620543
180.7138539
180.1550603
181.1608888
186.8382319
189.9451244
186.5923627
187.0617493
177.1599266
170.0520718
176.1988015
183.8207464
189.363979
177.9869411
181.1832406
184.3124848
185.430072
182.5914005
175.7070632
173.4718887
171.0131968
167.2581038
187.0841011
201.9480112
195.3765983
189.7663104
197.4553105
202.3503426
186.3688453
181.2502958
180.8703161
186.7711767
178.8586591
179.5962667
172.6225224
171.9743218
177.6293132
165.2464468
173.270723
181.317351
177.1822783
182.2337725
174.7906416
169.6050369
176.1988015
179.1715836
183.9995604
185.7429964
177.4952027
178.9927696
173.0025021
187.3970255
192.6720372
185.0947958
175.371787
185.4524237
190.2133453
188.8945924
190.503918
188.5369645
178.344569
173.3154265
164.4864874
163.2571415
176.0870428
187.441729
196.449482
191.6662087
182.3902348
173.4718887
168.8450776
169.1132985
179.5292115
179.8868394
169.6273887
171.0802521
174.9918073
182.1220138
181.0044266
174.8129934
174.5447725
175.4164905
173.9636271
174.0306823
172.4437085
172.7119294
170.119127
166.0734613
173.6730544
175.3270835
180.356226
187.0393976
189.4086825
184.4242435
185.6535894
183.507822
180.1327086
183.8878016
182.278476
174.1871445
170.387348
173.3154265
170.3426445
170.8790864
172.8460399
178.4116242
183.0831388
180.2444673
173.8518684
161.9830921
163.8382869
178.433976
173.181316
161.9830921
157.4009845
170.5661619
182.9937319
173.7401097
171.9743218
176.8693539
173.36013
175.0365108
178.8810109
178.5680865
171.3708247
179.8197841
186.5029557
175.1706213
174.1871445
167.9510078
167.7274904
161.8936851
163.3465485
172.488412
178.4786795
180.2221155
171.8625631
160.6196357
166.9004758
175.9752841
174.7906416
182.7478627
196.6506477
193.7896244
189.5651447
180.2221155
177.383444
185.6312377
188.0675778
181.585572
173.6507027
184.0889673
181.6079237
179.573915
186.0335691
182.1220138
182.0549586
183.6419324
181.496165
170.0744236
167.9957113
160.8878566
155.5904932
165.5370194
184.4465952
189.1851651
186.9723424
178.8363074
174.8800486
184.558354
189.0063511
188.0452261
187.441729
188.2687435
186.6594179
175.7964701
179.7750807
190.7274354
189.7216069
188.3805023
181.4291097
171.7955079
170.6332172
167.7274904
169.3591677
179.0374731
186.30179
184.4912987
178.9033626
179.8868394
169.4709265
169.4038712
182.1890691
183.9772086
186.5923627
183.1501941
186.8158802
183.7536912
182.9937319
179.1492318
173.0248538
184.2454295
184.9830371
179.7974324
172.9801503
173.2036678
173.7401097
173.8742201
168.196877
163.1453828
175.550601
184.5807057
182.2114208
180.8703161
187.8217087
192.6943889
186.9499906
174.8576969
177.5846097
188.8498889
194.7731012
191.1297668
180.1550603
186.5253075
192.0461884
190.1462901
182.7702144
185.4747755
184.6924644
169.426223
158.8538478
167.2134003
192.0238366
198.1035111
185.0724441
173.36013
182.5914005
184.37954
179.9091911
171.4155282
178.344569
196.9859239
199.8469472
191.9344296
185.4077203
177.8975341
184.0666156
183.239601
185.0947958
184.5360022
176.8246504
176.7799469
172.9577986
161.1784293
164.7100049
184.1560226
199.7575402
191.5991535
178.0092928
186.2570865
191.8673744
188.2687435
186.8158802
194.9966186
203.713799
196.8741652
184.3348365
181.7867377
179.6186184
173.6954062
176.8917056
189.7216069
193.655514
197.2094413
190.6827319
189.5204412
190.4368628
180.356226
171.9743218
178.7916039
191.1297668
190.9062494
183.1725458
184.6030575
200.6739617
214.0626566
217.3930666
213.7050287
203.5796885
193.7225692
196.6729995
202.8197292
204.764331
207.7594647
205.2784211
203.445578
193.5437552
192.0685401
195.4660053
194.2590111
208.6758862
203.1997088
201.2104036
197.2988483
179.9538946
177.0928713
178.0316446
194.8625082
215.4931683
214.0403049
201.6797902
204.406703
211.1792816
217.9742119
229.3959533
204.7419792
204.0267234
212.2968688
207.1112641
209.8381769
210.8663572
214.9343747
212.9227177
199.9587059
192.515575
197.5447175
192.5379267
196.1142059
196.6506477
206.507767
201.6797902
202.3503426
194.616639
203.9149647
206.1054356
198.8634704
202.9314879
198.1258629
198.8411187
201.2551071
205.9489734
206.7089327
207.2900781
205.6584007
198.7517117
200.7186652
196.9188687
205.9266217
207.3347816
202.7973774
193.9013831
191.55445
200.0257611
197.6341245
197.3659035
200.4280925
193.0743686
187.1064528
200.5845547
204.1608339
205.4795868
204.7196275
200.2939821
198.0588076
206.0383804
194.4825285
195.9353919
207.5135955
202.2385838
197.8129384
194.5942872
191.9344296
198.2376216
201.4562728
195.0860256
183.2172493
184.4242435
175.4388422
180.3338743
208.4747205
218.6224125
213.59327
190.6156767
182.5243452
200.741017
200.9421827
177.1599266
162.0054438
196.4718338
217.1919009
204.5631653
190.7274354
177.6516649
184.7595197
197.0976826
194.1249006
179.9538946
180.4679847
184.6924644
196.2706681
193.0967203
182.45729
187.3746738
178.2998655
171.6837492
173.0472056
178.6127899
173.36013
158.9432548
168.4203945
163.0336241
168.6439119
174.9247521
168.0404148
169.0015398
171.0579003
164.084156
166.7440136
175.5282492
177.294037
175.371787
170.7449759
170.7673276
165.2464468
150.7848681
145.9345395
176.7575952
188.7157784
184.3348365
181.9208481
173.0695573
183.7536912
195.7565779
181.6079237
175.8635254
178.4786795
185.0947958
181.0267783
174.7012347
175.9976358
169.4485747
169.426223
170.7896794
173.7624614
179.2609905
178.9927696
172.7789846
167.2134003
165.9840543
168.375691
172.9801503
176.6458364
173.7401097
162.072499
161.3348915
170.1638305
170.5885137
170.4320515
164.2406183
162.0054438
157.7362606
156.3728042
162.2960165
168.9568363
178.5010312
164.9558741
155.9928246
158.4515164
164.8664671
170.0744236
169.7391474
175.5058975
176.3776155
178.2104585
179.5515632
171.0131968
176.4893742
175.3270835
161.6254642
152.5059524
160.1055455
161.1560775
155.4787344
158.0044816
166.5428479
182.8596214
184.6477609
179.7974324
177.2493335
177.1152231
173.538944
180.4009295
186.480604
179.2386388
173.7848131
176.8022986
179.395101
192.7614442
206.41836
194.9295634
188.6263715
202.1491769
186.7264732
180.6244469
179.8421359
195.3765983
210.4863775
218.8235782
224.5009213
222.1539881
206.507767
171.527287
162.4524787
179.9985981
205.2560693
216.7225142
211.4251508
200.741017
191.7332639
189.8557174
183.4854702
183.9325051
196.2036128
199.6681332
192.515575
178.8586591
174.2541998
182.7255109
193.0743686
189.4980895
178.8363074
182.6361039
186.0559208
177.7634237
171.3931765
166.7440136
170.6108654
176.0870428
183.8207464
170.8120311
140.994804
125.6615073
128.7907516
147.6556239
160.9102083
166.364034
161.5584089
160.8431531
157.4456879
168.6439119
188.5146127
170.5661619
156.0822315
144.0793448
132.5681964
130.1989115
136.9938418
142.8276471
145.0628215
141.9112255
142.5147226
141.263025
135.5186266
134.5798534
134.3116324
154.3611472
148.8849698
128.0978475
125.7062108
119.9618125
127.9860888
127.2037777
128.6119376
138.7819813
142.2017982
140.994804
141.7324116
141.6206529
140.994804
134.2892807
133.0822865
145.3757459
150.0249088
144.2134552
147.2756442
150.0472605
149.7119844
139.4301819
148.3932314
176.8693539
193.8119762
198.0811594
204.4290548
206.9548019
192.6273337
179.4398045
189.453386
193.655514
194.9742669
186.4359005
173.9636271
177.1822783
174.8800486
163.3465485
169.5379817
183.0160836
191.9120779
192.5379267
181.0938336
173.0025021
173.3377783
166.2299235
162.4077752
156.0822315
161.8489816
159.7255659
156.4398594
166.4087375
162.4524787
146.6944989
131.1376847
119.4253706
133.3952109
138.200836
125.5273969
111.9375362
94.90550696
86.00951266
71.03384388
77.13587012
90.81513772
101.2534024
83.01437891
68.9327799
88.51290804
91.28452436
102.9074315
98.81706224
108.2047949
133.9540045
148.9073216
146.6944989
128.835455
114.6197456
97.87828897
72.21848634
93.40794008
127.4272951
140.123086
136.7703243
138.6031674
139.161961
145.7110221
136.4573999
136.0327168
161.5584089
202.0150664
140.8606936
110.2835071
116.072609
112.8539578
109.3000304
126.8014463
146.7839058
146.8286093
124.0074782
86.05421615
78.40991955
81.6509225
111.6693153
129.5507109
127.6731643
118.1960247
112.9880682
114.7762078
120.5429578
131.0482777
138.3125947
142.134743
143.185275
140.1454377
137.0385453
138.200836
132.1882167
126.6673358
129.4613039
143.9899378
142.0676878
148.3932314
150.7401646
135.6303854
128.0978475
126.7120393
129.7742283
134.2445772
143.4981994
142.4476674
137.3291179
136.4350482
131.4953126
131.1600365
128.8801585
126.2650044
128.4107719
119.6712398
117.994859
129.5954144
143.6323099
138.89374
126.2650044
125.1921207
121.1017515
113.8150828
119.6712398
136.4126964
146.247464
140.5254174
138.8043331
150.8519233
149.0190803
138.5137604
134.4680946
143.6770134
153.4223739
158.0938885
155.7469554
158.8314961
159.1220688
155.2775687
171.3261212
170.2755893
161.0666705
153.2659117
158.2727025
163.5477142
169.6050369
164.4194322
158.0268333
156.8645426
168.9568363
171.9743218
163.7041764
153.1988565
161.4242985
173.2260195
174.7682899
172.220191
171.3037695
162.8771618
157.0433565
160.8431531
159.5914554
164.1512113
164.0171008
151.7236414
166.6322549
177.3163888
165.2017433
158.9656066
171.2814178
182.7925662
181.7420342
170.8343829
151.7459931
153.5117809
162.0501473
166.1181648
171.1249555
175.9529324
174.8353451
166.0511096
156.1045833
163.2347898
166.1405165
164.5088392
172.9801503
169.336816
160.8208014
174.6565312
186.6370662
184.1560226
182.3455313
181.7867377
174.9471039
159.3902897
152.014214
155.1434583
163.5700659
169.6944439
173.8518684
170.3649962
165.7828886
168.5992084
162.0277956
159.6138072
152.5953594
155.8587141
160.8208014
162.7430514
164.2406183
166.0511096
163.9276938
160.4631734
171.5719904
165.134688
163.6818246
166.6546067
163.1006793
160.2173043
171.5049352
179.7974324
177.9869411
169.6944439
161.111374
167.146345
170.8567346
166.9228276
172.5107637
171.6390457
169.0015398
168.5768567
173.0472056
176.332912
180.1327086
186.6370662
169.5156299
168.4874497
184.8712784
182.7031592
177.4281475
179.3503975
182.0326068
186.480604
182.9266766
176.7352434
173.3154265
166.9451793
168.9791881
187.0617493
181.406758
168.375691
170.0520718
176.5564295
184.0442638
184.1336708
174.3659585
171.0131968
172.1754875
164.3300252
155.1881618
171.0579003
179.573915
173.9189236
166.6099032
160.0384903
150.4495919
146.3368709
155.8140106
153.1765048
152.6624146
153.1765048
152.5059524
149.8460948
157.8033159
163.123031
160.2173043
154.4058507
156.5516182
159.4349932
154.4058507
149.5108187
157.3115775
160.8878566
154.025871
143.6323099
134.2445772
151.2989582
167.6604352
159.9490833
156.8645426
149.1755425
150.4719437
149.3767082
133.5963766
134.9821848
149.220246
161.5584089
164.5311909
156.2610455
151.6118826
151.053089
152.282435
152.5953594
149.8013913
148.7732111
160.329063
166.6993101
165.134688
144.2134552
134.0210598
148.9520251
155.8140106
155.7693071
161.111374
155.8363623
142.0006325
138.5808156
144.4816762
153.8247053
153.2882635
156.8421908
169.158002
170.4320515
157.0433565
156.7304321
159.2338275
158.0938885
158.2950542
154.6070164
151.4554204
164.1288595
162.9665688
161.8713333
154.9422926
149.8907983
155.1434583
162.0501473
159.9490833
157.5350949
160.9996153
164.1512113
175.8858771
186.5923627
182.9043249
180.1103568
181.9208481
172.5107637
171.3708247
177.4952027
184.1560226
186.9499906
189.6322
187.0617493
190.593325
194.527232
185.8771069
184.7595197
188.9616476
185.340665
181.7420342
183.4854702
183.1948976
185.0277406
182.0996621
170.9014381
172.2872463
168.7780224
174.6341794
171.5719904
177.0258161
190.0568831
195.667171
181.0714818
175.9305806
191.1744703
191.6215052
185.1618511
172.7566329
171.9519701
172.4213567
172.9577986
179.3280458
184.7595197
183.5525255
176.6905399
170.7896794
176.7128917
177.0481678
170.5661619
173.0025021
179.4621562
187.620543
178.3669208
175.5058975
180.8256126
184.468947
181.8090894
190.4592145
189.0510546
188.9392959
188.0675778
184.4242435
187.0393976
183.7983947
180.4009295
179.1715836
187.2405633
192.2250023
188.492261
178.7469004
173.1366126
186.480604
199.6457815
200.2045751
199.3775605
194.9966186
200.3610373
204.9878484
201.9256594
201.0315896
199.7798919
205.9936769
203.6467437
202.9314879
197.410607
179.2833423
184.7148162
188.313447
189.5651447
196.1589093
204.9207932
204.49611
199.3552088
201.9033077
190.8838976
183.4854702
185.4971272
192.3814645
197.7682349
195.8906884
197.0529791
198.4834908
192.7390924
189.4086825
191.1968221
197.0529791
204.3396478
205.0996071
209.4581973
208.8994037
208.4747205
194.7507494
181.4291097
186.3241418
186.5253075
187.352322
196.8741652
203.3561711
201.7244937
202.3726943
203.3785228
202.6856187
203.3561711
193.7002174
189.4086825
198.6623047
207.8488717
204.3172961
190.7050837
185.1842028
191.9791331
203.6914472
200.0928164
191.0180081
185.3630168
192.9626099
186.9499906
176.0870428
183.5301737
193.2084791
186.5476592
185.7653482
193.9237349
206.4854153
203.3561711
195.9577436
186.1006243
184.9383336
185.2736098
193.5437552
199.5563745
200.1375199
202.1268251
193.4319965
185.1618511
187.5981912
186.4135488
185.1618511
190.8168424
200.4057408
202.9314879
195.7789297
184.2677813
184.5807057
193.5437552
194.0578454
196.3824268
190.5486215
189.8110139
197.0529791
195.3765983
194.0801971
188.7604819
178.4563277
182.3902348
192.2250023
201.2551071
200.2492786
194.3260663
186.5923627
184.0219121
190.5709732
189.2298686
182.0773103
191.3085808
200.9198309
198.5728977
200.6739617
207.2677263
200.9198309
192.9849616
190.3698075
190.0121796
184.2454295
181.3397028
186.9276389
196.6729995
196.6059442
195.4213018
184.7595197
185.7206447
192.1802988
187.3746738
180.356226
187.3299703
190.4368628
191.55445
201.3445141
189.2969238
184.9830371
189.5651447
185.1171476
180.6244469
199.1316914
209.5252525
206.41836
206.3289531
200.4504443
193.7896244
186.0559208
186.3241418
196.8071099
203.4902815
205.5913455
202.9091362
195.8906884
183.8207464
187.9781709
198.6176012
199.7351885
192.5379267
195.2871913
191.9344296
183.0384353
196.0918541
200.4057408
194.3037145
200.1151681
207.6253542
201.9480112
197.7682349
196.9188687
194.7507494
200.6963135
210.9781159
206.0160286
189.274572
186.5476592
190.4592145
188.9839994
188.2687435
193.4767
191.0180081
199.3775605
198.9305257
190.9733046
189.3416273
175.7517667
178.3892725
196.0695024
198.7070082
186.5476592
178.2328103
178.8139556
185.3630168
191.2191738
188.9169441
191.0850633
190.503918
182.1443656
172.0860806
174.9471039
189.4980895
189.7439587
184.5136505
178.7692522
185.8100517
183.9995604
176.511726
176.8917056
181.4514615
182.9937319
192.1355953
190.414511
187.3970255
193.3202378
182.5914005
182.2114208
188.492261
184.0219121
178.255162
171.8625631
175.8411736
182.9937319
190.2580488
187.2182116
184.2007261
179.573915
171.5943422
168.286284
168.8227259
168.8003741
173.1366126
176.2211533
190.9286011
191.0850633
182.0326068
181.5408685
183.1948976
177.9422376
176.4893742
175.2153248
172.8683916
175.8635254
176.8246504
179.1268801
185.4747755
183.1948976
183.1948976
178.9480661
167.2804555
177.0034643
183.8654499
178.8586591
176.4446707
179.2833423
189.6098482
193.4767
185.4524237
180.6467987
172.6895777
186.6147145
193.4096448
191.6215052
190.414511
181.8984964
185.2736098
194.0131419
193.6108105
194.1919558
189.2969238
173.3377783
174.231848
177.3163888
178.7916039
174.1200893
175.8411736
186.391197
194.7283977
189.7663104
184.2677813
182.0549586
175.9082289
173.8965719
180.9597231
192.3144093
205.3901798
205.0772554
197.2988483
201.0092379
199.3775605
190.8391942
187.4864325
184.37954
167.7721939
168.0404148
183.6642842
185.0277406
189.3863308
190.0121796
188.9392959
190.0568831
185.1171476
179.6409702
184.7818714
182.3231795
179.216287
180.8479644
182.8149179
183.0831388
187.262915
200.1375199
193.4319965
183.7536912
179.0821766
171.259066
177.7857754
187.7770052
191.3085808
193.9460866
197.0306274
190.6156767
181.227944
181.5408685
188.6040197
188.8051854
187.3299703
183.7313394
183.5525255
183.9995604
192.7167407
192.2920575
195.3318948
196.9859239
193.0296651
199.8022437
200.8527757
196.9412204
188.0228744
190.325104
186.7264732
187.7770052
190.7497872
183.0160836
174.9247521
166.9004758
152.9529873
144.1464
151.6118826
151.2095512
147.6779756
158.0938885
159.4573449
151.1648478
142.7829436
140.7265831
140.7936383
145.2192837
150.4942954
149.5108187
160.6196357
154.9199408
141.0171558
138.6702226
152.9082838
157.5127432
146.4933332
138.3796499
135.8986063
145.286339
145.3757459
137.6643941
139.8548651
147.1415337
154.7411269
155.1881618
146.5380366
145.3757459
145.4204494
140.7712866
136.3009377
137.5973389
144.0122895
152.8188768
154.7634786
145.8898361
144.5487314
144.2134552
144.9734145
152.5283042
144.6381384
143.006461
144.7722488
148.9296733
161.9607403
165.6487782
159.8373246
168.9344846
167.3922142
152.5953594
145.6439669
145.5322081
160.7090426
163.9947491
158.4962199
147.5885686
138.4467052
148.5049902
156.9763013
151.7683449
157.08806
161.6925194
154.5399612
151.0083855
151.7236414
159.0550135
160.3961182
155.3669757
151.9695106
151.4777722
147.9461965
146.9180163
152.014214
156.4845629
159.2561792
157.7586124
154.8081821
154.0929263
147.2532925
153.3106152
151.231903
146.5827401
156.7751356
158.227999
147.6779756
150.4048884
156.1045833
143.0288128
144.5934349
154.5399612
159.3902897
157.4009845
146.4933332
151.053089
155.8810658
150.6954611
146.4039262
147.6109204
138.8266848
137.6420424
144.4816762
145.9121878
151.9471588
156.6633769
153.4894292
154.3611472
158.9432548
161.0219671
155.2328652
146.5603884
154.0929263
154.1376298
147.7226791
147.1415337
142.0006325
138.983147
151.4107169
168.375691
167.7274904
143.967586
140.9277488
144.5263796
144.7946006
150.9413303
154.025871
149.9802053
144.1911035
149.9355018
141.9335773
140.7936383
151.6118826
152.6177111
156.5963217
160.6196357
158.227999
157.0433565
156.0151763
148.0356035
147.4097547
163.5030107
176.2882085
167.9957113
160.329063
159.5020484
170.8343829
173.2483713
164.4864874
166.7216619
174.3659585
174.6341794
166.3863857
163.2347898
166.8781241
163.7935834
166.6546067
175.1035661
184.2677813
189.1851651
185.8547551
177.9422376
176.2211533
181.0491301
180.356226
183.9548569
188.7828337
187.6652464
190.414511
186.2570865
180.7362057
179.5068597
174.8353451
176.3552638
179.6633219
188.6487232
200.4504443
198.5281943
191.7556157
185.7206447
179.4174527
170.6779207
176.2211533
181.7420342
165.3805572
154.0705745
150.5613507
149.2649495
152.3494902
155.0093478
153.8470571
152.8859321
157.1104118
144.6604901
142.9841093
142.8947023
147.5215134
163.9723973
159.3902897
152.6847664
153.5341327
151.1871995
142.0006325
145.6439669
139.8101616
142.1794465
146.3815744
147.6109204
158.7644409
160.9325601
150.6507576
141.955929
138.1561325
148.7285076
160.1055455
160.9996153
161.1784293
159.9490833
150.4272402
140.9277488
140.7936383
147.6109204
145.3757459
140.1454377
151.9695106
153.8470571
151.142496
153.0423943
152.3271385
144.4369727
136.9267865
138.89374
153.2882635
166.6099032
158.9209031
153.7352984
152.193028
151.2095512
149.7790396
146.6944989
138.9384435
136.4797516
149.3990599
165.134688
174.0306823
172.0860806
176.511726
179.0374731
179.7974324
183.3513598
194.7507494
202.484453
204.49611
214.0179532
210.3522671
202.6185635
202.7303222
194.7507494
193.9460866
198.639953
204.3843513
203.2667641
203.4232263
205.9042699
200.741017
192.0238366
196.4941855
203.1550054
202.752674
200.8527757
192.9179064
195.1530808
202.752674
200.8527757
202.9314879
204.2055373
204.3619996
203.0208949
198.1035111
207.1112641
216.9907352
222.5116161
228.3454214
219.2929649
214.1967671
207.9829822
203.7585025
196.1142059
188.9169441
193.3649413
200.7186652
212.8333107
222.9586509
219.4047236
208.8099967
207.4912438
210.7545985
218.9800404
222.8245405
219.2482614
210.9781159
218.5553573
227.1384272
221.0140492
227.2054824
222.0645812
216.8119212
208.7429415
205.2784211
215.783741
216.1190171
210.531081
222.4892643
225.1714736
225.752619
220.7458282
216.1190171
211.6933717
215.3143543
212.8556624
218.84593
221.2599184
227.0490202
226.1325987
219.4047236
205.9936769
213.7497322
232.6146045
223.4503893
218.577709
221.0140492
217.2366044
221.3493253
230.647651
223.4950928
218.8235782
223.9868312
225.8196742
219.1812061
214.0850084
212.810959
209.7264182
209.8828804
210.1287496
217.3260113
221.5951945
219.9411654
217.3483631
211.67102
213.2132904
220.1199794
219.4717788
217.4154183
210.3299153
202.7303222
209.7711217
212.5203863
210.6428397
213.9508979
211.9392409
209.9722874
216.476645
213.0568281
211.5145578
203.3785228
207.1112641
222.9810027
221.9751742
215.8954997
220.0529242
222.1539881
222.5563195
217.3707148
214.8896712
199.6681332
204.1608339
217.3930666
219.1812061
212.3862758
201.2551071
206.4854153
213.4144561
212.9227177
208.2959066
204.1608339
201.4115693
205.457235
210.6428397
210.5757845
217.4601218
210.6428397
202.4173978
209.9499357
198.3046768
186.7935284
184.1336708
190.7497872
198.1258629
200.8751274
200.1822233
201.1209966
202.8197292
194.9072117
192.0461884
194.5942872
190.9062494
188.7157784
181.7420342
191.5768017
198.5728977
204.1384821
205.2113658
196.4941855
199.1763948
201.5456798
193.7002174
193.6778657
197.2094413
196.8741652
195.9353919
197.5670692
193.8790314
189.2969238
185.0947958
197.3435518
203.1997088
196.3153716
188.5369645
196.3153716
196.8071099
192.1132436
190.2356971
195.577764
202.6409152
209.3017351
201.3892175
194.3707698
188.7828337
193.7002174
195.6001157
196.538889
191.0180081
187.8887639
191.0850633
195.8236332
198.2152698
200.2269268
199.4669675
196.7847582
192.2920575
193.5214035
195.6448192
197.0082756
217.2366044
223.2492236
205.3007728
199.4446158
194.4825285
196.717703
202.484453
199.5787262
194.1025488
190.0568831
207.0218571
214.2638223
209.1229211
202.484453
198.4387873
195.1530808
189.5651447
183.8654499
185.4971272
195.1977843
202.5962117
203.534985
204.9878484
204.7419792
200.1151681
193.655514
186.7264732
189.6098482
188.402854
179.3503975
173.181316
181.7643859
178.1657551
176.2211533
176.1093946
172.4660602
169.8732579
163.0336241
159.189124
160.239656
159.2338275
160.5078769
156.305749
162.2289613
174.7012347
179.3503975
178.8139556
171.527287
161.4019467
157.1998188
158.8761996
171.7284527
173.36013
165.7828886
168.2639323
179.4174527
174.6565312
169.336816
170.7449759
174.5894759
164.6205979
162.9442171
170.297941
167.8616009
154.8975891
154.0705745
163.6818246
165.134688
153.0200425
152.3494902
160.5078769
166.3193305
168.5992084
161.4690019
156.6186734
164.6205979
171.5496387
166.6993101
161.0219671
155.4787344
154.9199408
158.1832955
156.3504525
146.4262779
144.0122895
151.6342344
151.3436617
143.7887721
137.7761528
140.9277488
145.6216151
144.2581587
149.041432
148.0356035
149.0190803
149.220246
150.4495919
157.9374263
155.1434583
143.3417372
134.7810191
139.0949057
145.6886704
148.4826384
146.0462983
149.1755425
153.0870978
154.9199408
149.9355018
135.9656615
140.9277488
145.1745802
137.1056005
133.1940452
138.6702226
149.7343361
154.8752373
156.216342
151.32131
151.4107169
145.5545599
134.8033708
134.2892807
141.4641907
146.3145192
148.1473622
156.9539496
165.5817229
159.7479176
153.4223739
141.9112255
140.2348447
144.3699174
142.3135569
143.274682
154.5399612
160.2843595
157.5797984
151.4554204
145.7110221
146.3592227
152.1706763
148.3932314
142.4476674
147.2756442
143.5652546
136.0774202
141.0395075
152.2600832
155.5234379
151.5671792
153.9811676
163.5477142
160.6866909
145.9121878
146.8733128
153.4670774
160.3737665
161.6254642
161.5807607
166.2299235
177.5399062
172.5554672
170.2308858
165.2464468
173.6507027
183.6419324
185.0500923
193.5437552
199.5563745
192.6943889
192.1132436
196.6506477
192.4708715
175.9305806
176.3776155
184.7818714
185.3183133
177.1152231
178.1210516
182.546697
186.9052871
185.8994586
186.480604
184.5136505
179.7750807
178.2328103
176.1988015
177.9645894
179.1045283
175.6623597
179.7974324
185.251258
183.3737115
180.5573917
178.2104585
171.9966736
175.28238
193.8790314
191.5320982
186.5253075
188.4475575
186.4359005
180.9373714
181.8537929
182.0326068
181.5408685
187.3299703
194.3260663
188.3357988
183.4631185
180.1997638
181.9655516
179.7080254
181.1161853
187.8440604
175.6400079
172.9577986
186.9723424
191.465043
183.5748772
189.0287029
185.8100517
190.0121796
189.0287029
183.0160836
187.3970255
188.5369645
185.251258
185.0947958
179.6633219
183.597229
186.6370662
187.3076185
183.2619528
174.7235864
170.5214584
185.3183133
180.445633
188.6040197
186.9276389
181.0044266
182.9937319
190.0345314
188.2240401
184.5136505
176.4893742
183.0384353
186.9052871
183.3066563
186.7041214
197.0976826
198.1035111
189.9451244
186.9052871
182.9266766
176.1540981
184.9383336
187.9334674
189.7216069
191.8003192
183.6419324
173.4718887
181.1608888
195.5107088
186.7935284
182.9490284
192.4038163
198.2599733
193.2308308
180.0209498
177.8304789
183.9101534
194.8178047
192.4038163
182.3008278
177.2716853
179.1715836
187.4864325
191.4873947
182.5690487
185.1394993
183.3960633
179.4621562
186.1676796
184.558354
181.406758
174.0306823
179.2609905
194.1472523
194.6389907
193.9237349
192.7390924
188.9839994
181.2949993
178.6127899
179.4621562
185.1394993
195.9353919
194.3037145
192.7614442
189.9898279
187.5534877
184.0219121
179.4398045
178.2775138
186.1006243
181.6079237
174.2765515
180.9150196
191.1744703
196.7847582
192.8732029
190.7497872
187.6428947
185.3853685
182.9043249
179.6856737
178.1657551
182.1667173
194.9295634
197.1423861
189.5204412
187.5534877
179.1268801
173.4718887
180.6915022
183.1501941
186.4359005
189.3416273
186.30179
203.1103019
208.4970723
208.7205897
209.4134938
202.7303222
200.2716303
193.9907901
189.8110139
188.0675778
185.0947958
179.7974324
187.7099499
195.5554122
204.49611
199.7798919
192.426168
187.8887639
193.8566797
190.3921593
181.8537929
190.3027523
195.9577436
184.4242435
179.7527289
187.3299703
193.655514
197.3212001
195.5330605
197.8799937
191.5320982
178.2775138
179.0374731
190.1909936
200.6292582
203.4232263
208.787645
203.713799
200.5398513
203.4232263
200.5398513
200.4280925
200.0257611
197.0529791
194.0801971
190.1239383
194.5942872
205.9266217
207.2006711
203.2891158
209.3017351
200.8974792
192.7390924
187.7770052
188.5593162
201.5680315
211.7827787
207.4465403
203.4679298
197.9470489
198.9975809
191.0180081
187.2182116
198.9081739
198.8634704
190.2356971
181.9879034
184.7595197
196.8965169
193.4096448
179.7303772
171.7731561
188.0899296
196.8741652
193.9907901
197.0306274
199.0422844
197.2988483
191.0627116
199.3328571
201.3445141
184.9383336
192.1355953
198.550546
195.8236332
202.5962117
199.9587059
195.5554122
187.262915
191.2415256
199.8692989
200.6739617
193.8790314
194.8178047
197.2764966
199.3999123
205.2113658
206.7312845
198.0588076
188.8275372
167.4816212
164.2406183
180.0656533
187.2852668
178.6798452
181.7420342
187.5981912
176.7799469
169.4485747
177.1822783
179.6186184
179.2833423
176.8693539
185.1618511
193.1190721
193.8566797
191.7332639
187.0841011
169.5156299
173.1366126
182.9043249
191.1744703
188.6263715
178.1210516
185.9888656
181.4738132
172.8683916
183.0831388
186.5253075
183.2843045
190.9509529
198.1258629
189.8110139
176.4446707
179.216287
190.503918
178.8363074
178.5904382
190.0121796
192.6496855
198.1705663
196.449482
183.9325051
187.9558191
189.7439587
177.2716853
177.4952027
180.3338743
175.3270835
175.4835457
170.6108654
186.3688453
202.3056391
195.8236332
179.4621562
181.1161853
196.0024471
192.4038163
182.0549586
180.1327086
183.418415
178.3222173
174.7459382
184.558354
198.550546
204.3619996
193.655514
196.6953512
208.7205897
207.3571333
205.6584007
200.2492786
211.9392409
216.8566247
204.9878484
186.5923627
182.5690487
196.3824268
195.4213018
194.2590111
193.9907901
202.1938803
203.9373164
200.7857204
203.3561711
204.585517
206.0160286
198.2823251
199.3328571
203.9149647
197.7458832
198.3493803
190.3474558
191.6885604
202.0821216
203.0432466
195.3318948
201.4786245
191.2415256
191.9791331
206.5524705
203.0655984
194.9742669
190.2804005
198.6176012
203.4008745
203.0655984
202.9538397
199.3552088
198.3940838
190.503918
190.9062494
176.6458364
181.4738132
195.577764
195.1530808
188.9392959
185.0724441
195.0413221
190.4592145
184.8042232
179.2609905
187.4640807
199.1540431
188.9839994
187.5758395
205.1666624
208.4076653
192.1579471
176.2658568
180.0880051
194.6836942
188.6040197
181.2502958
181.4514615
181.1385371
184.2677813
182.1890691
172.5778189
174.1647928
191.465043
190.4592145
181.2949993
181.1608888
182.2561243
186.1229761
193.4767
183.1501941
186.391197
196.717703
199.0646361
197.8352902
189.4086825
190.414511
198.72936
195.7565779
188.9839994
188.7157784
200.2492786
207.8041682
207.9159269
202.4173978
200.4951478
196.3377233
200.9421827
212.542738
224.1209417
224.9256045
207.6030025
208.608831
208.519424
211.2016334
221.639898
228.3007179
216.3201828
210.5534328
213.4368078
215.8731479
223.1374649
224.4115143
227.3172411
226.6466888
212.6544967
203.0879501
195.4660053
216.3872381
223.2045201
222.9810027
225.8867295
222.2433951
212.5874415
206.8877467
209.6817147
208.2959066
209.5923078
211.8721857
217.5718805
220.589366
208.0947409
215.2025956
208.2959066
194.0801971
203.8255577
210.0840461
208.8994037
212.2074619
209.5252525
199.2881536
206.2618978
213.3026973
214.0850084
218.3988951
217.705991
210.2852118
202.9761914
213.1462351
192.6496855
176.2658568
197.1200344
214.8673194
206.507767
200.7186652
201.433921
187.9781709
185.6312377
189.6098482
186.3464935
192.7837959
211.3580956
203.713799
180.2444673
186.2123831
211.9839444
218.3988951
218.1306741
217.9742119
197.1200344
184.0442638
194.437825
196.4271303
197.0976826
183.7313394
173.5165922
179.1492318
190.7944907
196.4941855
199.7798919
189.1181098
174.0753858
169.6720922
182.4349382
180.7362057
183.507822
183.4631185
169.0462433
169.2921125
186.1676796
179.0151213
190.1462901
186.0335691
176.5340777
168.1745253
158.138592
165.2687985
167.4369177
172.8683916
181.0714818
168.5098014
159.2338275
152.6177111
152.6400629
153.2882635
143.3640889
159.9937868
172.8236881
171.9743218
169.3144642
169.8956096
160.2843595
153.7800019
155.2105135
159.0326618
167.325159
162.6312927
165.8275921
160.3961182
155.9704728
166.2969787
170.9461416
162.6312927
150.4048884
152.5730077
162.1172025
156.7527839
148.7061559
145.6216151
141.2406732
149.1531908
154.6517199
147.297996
142.2912052
141.1959697
148.1026588
137.5302836
133.3728592
134.870426
138.7819813
143.9452343
142.1123912
136.099772
138.4020017
128.5448824
117.2796032
132.0094028
147.6109204
125.8403213
134.7586673
135.6974406
130.6459463
131.3388504
133.3728592
131.5176644
127.6061091
124.4768649
125.7732661
138.6031674
135.2727574
133.5293214
131.6741266
114.5079868
119.0677427
134.1551702
132.9034725
140.0113273
123.1804637
104.0920739
127.002612
138.1784842
142.8052953
124.6780306
100.5604983
99.33115236
119.4924259
132.8364173
129.1707312
124.4545131
130.154208
118.0619142
114.4409316
102.952135
76.13004161
90.77043423
139.1172575
152.8188768
142.22415
134.0657632
114.4632834
103.91326
111.3563909
123.4486846
119.7159433
93.9220302
92.15624239
132.7917138
126.3320597
111.1999287
102.7286175
98.72765526
106.1931379
140.0560308
136.010365
87.52943129
91.15041389
110.4399694
105.9025652
99.17469015
100.3593326
104.6508675
105.4108269
105.6790478
124.0968852
133.3505074
121.3252689
83.84139345
76.55472476
95.44194882
103.0638937
99.3535041
99.53231806
106.1037309
105.2543646
83.4614138
96.20190814
116.6761061
105.5225856
104.2932396
87.66354175
98.79471049
113.7256758
104.5838123
93.54205055
84.73546323
90.703379
96.89481221
91.32922784
78.65578874
71.86085842
72.33024506
89.76460573
109.9035275
91.77626273
84.98133242
95.08432091
104.6061641
85.80834696
67.79284093
80.71214923
98.43708258
107.7130565
106.9978007
85.11544289
78.02993989
79.63926549
84.4672423
106.2378414
98.99587619
74.00662589
94.10084416
102.1251204
84.84722195
65.13298334
59.96973037
89.67519875
98.03475118
73.00079739
88.02116966
94.39141683
93.47499531
109.4564926
112.6304403
88.0882249
76.75589046
93.1173674
97.02892268
92.84914647
82.99202716
79.43809979
84.69075974
95.55370755
94.90550696
85.71893999
83.12613763
69.24570432
79.77337596
105.2543646
119.4253706
86.70241674
46.44692498
32.65589865
65.73648044
91.44098657
89.02699817
102.683914
85.29425684
73.69370147
70.09507061
81.91914343
90.25634411
69.31275956
70.36329155
74.00662589
78.65578874
85.60718126
96.76070175
68.66455897
45.32933776
50.31377677
55.4099745
112.2951641
107.5342426
66.9211229
65.62472172
79.59456201
84.73546323
55.74525067
82.74615797
89.71990224
52.70541343
55.83465765
97.7441785
106.9530972
67.9269514
74.11838461
66.04940487
56.88518964
119.8053503
146.0239465
119.827702
61.71316644
26.84444509
32.18651202
51.69958493
84.55664927
102.4827483
59.83561991
43.11651505
70.00566363
88.31174234
71.68204447
36.72391614
62.8978089
117.033734
93.1173674
60.17089607
38.62381442
55.63349195
75.34773056
72.53141076
66.76466069
57.53339023
44.07764007
70.67621597
104.5167571
87.97646618
55.0076431
62.18255307
48.61504419
45.3516895
71.65969272
77.29233233
72.73257646
77.582905
65.1106316
58.8744949
44.56937844
66.69760545
54.62766345
40.03197432
59.32152978
82.20971611
49.59852095
47.65391918
36.18747427
59.85797165
67.59167523
74.38660555
47.51980871
37.19330277
73.40312879
56.41580301
56.21463731
102.7062658
87.19415512
71.86085842
69.82684968
67.9269514
22.75407586
54.85118089
108.6965333
85.4730708
46.20105579
62.67429145
44.09999181
36.23217776
47.11747731
71.21265783
73.42548054
46.87160812
55.23116055
52.5936547
42.5353697
61.42259376
84.02020741
61.46729725
14.61804087
49.84439014
91.1057104
81.6509225
57.51103848
49.86674188
37.14859928
43.31768075
76.44296604
65.60236998
48.01154709
52.88422738
14.88626181
4.045665746
44.01058483
87.44002431
71.57028575
42.20009353
89.63049527
81.33799807
40.81428538
11.15352048
83.68493124
74.90069567
7.398427415
74.31955031
93.34088485
66.02705312
37.12624754
62.60723622
73.17961135
96.96186745
47.78802965
65.60236998
85.24955335
58.6733292
4.559755869
96.5371843
90.703379
17.85904382
5.990267514
40.85898886
28.4090672
33.90759634
143.1405715
119.1124462
67.3234543
42.24479702
39.65199466
46.31281451
101.4545681
86.94828593
69.24570432
68.26222757
35.67338415
17.63552638
42.02127958
91.66450401
70.45269852
45.57520694
55.45467799
102.6168588
78.94636142
30.93481433
6.839633803
83.34965507
92.49151856
72.84433518
60.61793096
42.89299761
54.56060822
76.73353872
43.83177088
34.66755565
88.91523944
59.41093676
57.22046581
34.44403821
14.14865424
50.60434945
117.1231409
59.14271583
15.24388972
47.22923603
70.31858806
61.22142806
35.94160508
47.92214011
42.75888714
26.21859625
96.22425988
96.78305349
67.70343396
57.57809372
78.52167827
110.9540595
102.0580652
43.04945982
40.47900921
66.96582639
77.24762884
81.4497568
51.27490178
21.3682677
109.1435682
123.8733678
83.79668996
53.21950355
100.6946088
105.1873094
94.23495462
56.14758207
13.9251368
0.871718034
122.0852282
143.3640889
102.1027687
82.2544196
41.19426503
13.50045365
47.02807033
82.34382657
92.1115389
105.9025652
87.8870592
81.09212888
71.88321017
62.94251239
65.62472172
14.3274682
79.59456201
122.6887253
74.18543985
50.380832
89.98812318
97.56536455
100.2028704
93.63145752
61.17672457
58.29334954
72.59846599
57.62279721
117.3019549
111.3563909
88.4905563
71.9502654
53.17480006
44.45761972
77.42644279
114.4632834
101.1639954
35.38281147
76.01828289
95.46430057
62.22725656
30.37602071
87.75294873
144.1464
145.8227808
92.37975983
32.76765737
82.38853006
52.72776517
50.71610817
102.9074315
112.8986612
110.2164519
80.22041085
74.5654195
66.18351533
123.1804637
118.5536526
56.81813441
68.15046884
36.43334346
88.71407374
132.3446789
93.60910578
86.41184406
43.3400325
39.42847722
104.7626263
87.26121035
111.4457979
84.62370451
52.54895121
67.59167523
78.34286432
78.47697478
86.36714058
86.81417546
35.67338415
84.02020741
149.2873012
86.63536151
41.41778248
57.13105883
52.03486109
62.67429145
100.8063675
109.9929345
79.16987886
82.09795738
76.19709685
77.582905
58.40510826
46.04459358
71.43617528
92.04448367
123.3816294
93.49734706
90.77043423
17.68022986
11.64525886
83.79668996
112.3175159
126.2650044
113.01042
27.93968057
2.771616312
76.5770765
129.0366207
109.1212164
108.6965333
122.3310974
84.89192544
43.98823309
61.22142806
73.9619224
85.51777429
83.6625795
100.8063675
95.55370755
61.31083504
48.14565756
63.21073332
99.04057968
131.3835539
102.6168588
66.85406767
34.26522425
74.45366078
78.85695444
101.6557338
116.6537543
106.8189868
84.80251846
52.75011691
54.56060822
88.26703885
66.07175661
84.13196613
125.3485829
134.3339842
91.84331797
40.88134061
51.1854948
70.65386422
107.75776
99.04057968
85.22720161
82.56734402
77.02411139
91.01630342
82.00855041
88.71407374
92.33505634
89.74225399
86.70241674
74.78893695
75.14656486
84.48959404
65.33414904
80.15335562
102.3486379
101.1192919
98.9511727
92.82679472
70.47505027
58.53921873
96.98421919
94.5255273
72.28554157
74.74423346
84.78016672
85.36131207
66.63055022
88.40114932
97.07362617
94.05614067
96.85010872
96.1348529
94.3243616
83.77433822
81.40505331
104.8967367
102.6615623
78.92400967
103.2427076
127.4719986
122.979298
102.0133617
81.91914343
86.70241674
110.7081903
119.7829985
145.1298767
146.8062576
122.5546148
117.1454927
113.01042
94.21260288
114.4856351
169.3815195
145.2639872
152.6400629
141.3300802
136.7703243
144.9734145
144.7498971
151.7236414
159.8373246
153.1094495
128.0307922
134.3563359
147.7003274
144.8616558
145.107525
161.4019467
175.0588626
154.4058507
148.7732111
145.4875047
140.8383418
129.2824899
120.6770683
133.998708
179.5068597
193.7672727
159.1667723
147.4768099
150.7178129
151.142496
145.7557256
149.0861355
156.8198391
165.0899845
160.9549118
150.4942954
155.5457897
175.8411736
166.8781241
159.6138072
154.9646443
159.0103101
161.290188
156.0822315
154.115278
143.7664203
137.5302836
178.9927696
202.5515083
200.4951478
176.3105603
144.1911035
130.8694638
154.5176094
171.9296184
163.7265281
167.7051386
142.3359087
134.3563359
152.371842
149.3767082
177.4057957
197.589421
177.5399062
157.4456879
148.7955628
166.274627
187.262915
161.290188
139.4525337
159.3232345
149.1978942
165.8722956
174.0306823
171.169659
168.286284
171.43788
173.8965719
156.2610455
156.6857286
180.6691504
177.4281475
161.4913537
154.204685
154.8752373
172.1307841
174.6565312
169.6497404
157.7362606
167.9063043
173.181316
166.2522753
168.7780224
165.5370194
184.9383336
187.7323017
190.1909936
162.9665688
139.5419406
142.917054
151.3436617
158.406813
164.4864874
157.7586124
145.6439669
123.6945538
115.8267398
120.5206061
126.2873562
140.1007342
159.278531
147.9014931
123.8063125
120.2970887
124.0745335
132.5234929
128.7683998
111.1999287
130.5565394
140.1454377
147.9461965
136.4350482
126.3544114
128.4778271
123.9627747
124.4992166
148.4379349
138.111429
118.8442253
108.2942019
110.7975973
117.033734
156.0151763
171.0579003
153.8917606
120.9229375
110.0152862
121.8617108
126.1979492
152.5730077
173.9189236
139.4078302
114.753856
117.726638
133.0822865
143.006461
149.220246
156.4175077
170.6108654
172.9130951
147.2309407
120.1629782
130.4000772
142.22415
134.4680946
136.0327168
138.3349464
156.5069147
155.8587141
144.7946006
137.2620627
146.5380366
155.4116792
138.200836
129.2601382
130.8024086
146.8509611
143.967586
125.862673
133.0822865
138.3125947
133.1940452
125.8403213
126.913205
148.8849698
154.2493885
146.8733128
136.6585656
140.4807139
134.3116324
114.2397659
134.088115
154.6070164
159.3902897
143.3417372
127.4943504
140.2795482
141.8441703
134.2892807
123.4039811
132.9705278
152.3494902
143.6993651
144.4146209
146.0462983
153.6458914
150.8519233
147.7226791
150.5837024
135.2951092
128.5001789
150.8966268
142.5147226
151.2542547
153.2882635
156.2610455
152.9753391
130.8247603
111.8257775
124.7450858
159.5467519
170.8343829
156.5292664
139.6760511
126.0861905
112.4516264
125.1697689
159.0773653
163.2347898
157.5574467
149.3990599
132.9034725
127.1367225
116.4972921
126.8461498
151.0083855
157.7139089
160.6643391
153.9588158
134.6916121
123.0463532
122.3310974
117.726638
122.5769666
140.1007342
159.8820281
158.6750339
133.3728592
138.4467052
155.0987548
164.5088392
150.8295716
137.8879115
140.8830453
133.1940452
128.7236963
136.8150278
139.5419406
143.3640889
147.9238448
134.6022051
122.8675393
130.7130016
140.212493
149.7790396
166.2969787
150.5613507
117.3243066
106.1484344
123.4486846
147.7897343
169.9626648
166.7663654
152.1259728
143.3417372
122.0628765
118.7995218
115.5808706
120.878234
140.8383418
151.3883652
152.8412286
149.7790396
148.9073216
133.1940452
141.6653564
151.6565861
161.3348915
158.8761996
138.5584639
137.2173592
135.4292197
145.196932
147.0074233
131.9646993
143.0288128
162.8548101
150.1590193
136.5915104
128.0307922
116.5643473
126.1979492
142.6935366
158.9209031
168.8003741
159.8820281
132.0541062
134.870426
150.091964
136.099772
123.9627747
137.239711
151.9695106
164.7323566
162.4077752
145.0404698
146.2698157
139.3184232
155.0987548
188.2910953
185.8771069
161.8489816
147.7003274
143.5205511
149.4884669
161.0219671
161.4019467
149.2873012
143.5876064
153.7800019
166.4310892
170.2532375
166.7216619
153.7800019
159.3902897
170.8790864
170.5438102
158.6526821
174.7235864
189.3863308
174.5671242
168.8897811
168.3086357
166.5875514
151.32131
156.9763013
177.6516649
182.5243452
190.2804005
195.2201361
186.5923627
171.7284527
162.6759961
162.6312927
169.8732579
184.0219121
189.9451244
185.4971272
173.0919091
170.9461416
167.2804555
169.336816
187.4864325
185.6535894
170.0744236
168.4203945
168.465098
175.6176562
197.2541448
192.8732029
183.8430981
169.5603334
167.9957113
183.329008
175.1035661
162.9218653
174.500069
186.7041214
183.6866359
176.5564295
165.8722956
156.216342
161.6925194
176.9811126
190.503918
189.0287029
167.3028072
161.5584089
168.8227259
154.8752373
165.7605369
189.6322
179.0151213
152.8859321
160.7984496
162.4077752
164.7100049
183.1948976
185.5865342
176.0870428
183.7536912
177.1599266
165.3582055
158.5632752
169.158002
181.6302754
183.0831388
177.8751824
186.5253075
180.53504
163.391252
161.4019467
163.8606386
176.0423393
178.2775138
172.6001707
173.7177579
156.9986531
166.1628683
166.0511096
163.5700659
179.7750807
184.2454295
182.5243452
174.4553655
168.2639323
168.8227259
178.0539963
167.7498421
184.558354
179.216287
188.402854
184.1560226
178.433976
170.7449759
162.6983479
165.5146677
159.2114758
166.8334206
171.9072666
182.45729
192.426168
185.8994586
176.7575952
178.2328103
149.6672809
142.5147226
179.1045283
197.5223658
197.678828
182.8596214
179.0821766
183.1054906
182.9713801
179.4398045
172.8013364
175.550601
171.8402114
195.7118745
195.4213018
179.395101
183.5748772
180.356226
159.4126415
168.465098
184.9383336
192.8061477
205.2560693
185.4747755
171.0802521
169.247409
168.3086357
174.7682899
189.1851651
181.8537929
193.4319965
188.5146127
172.5778189
165.7605369
164.2853217
169.0238916
191.7556157
188.0005226
184.2677813
186.1006243
185.6982929
196.1142059
188.5146127
182.9490284
173.538944
191.9791331
198.7517117
181.6973307
179.8421359
176.6681882
173.5165922
169.2921125
176.332912
187.1735081
188.6040197
184.8265749
183.0831388
186.3688453
190.8615459
185.608886
164.1959148
176.8917056
180.6915022
165.6040747
180.6020952
207.5135955
195.4660053
164.7100049
159.6808624
166.9898828
165.1123363
173.6507027
191.5991535
199.3999123
192.4708715
176.5564295
149.0637838
161.5584089
180.7362057
194.8178047
206.4854153
192.1579471
177.9645894
162.3183682
151.32131
157.1104118
178.2104585
196.4718338
201.3668658
194.6613425
176.7799469
165.1570398
166.0287578
189.7439587
197.6117727
190.4368628
193.1414238
194.5048803
169.9179613
144.1687517
156.0822315
191.8897261
203.0879501
201.5903832
185.2289063
170.2755893
165.0676328
148.0579553
166.0511096
199.4669675
197.2094413
180.7138539
173.8518684
174.9024004
172.6001707
181.2949993
175.8858771
173.6283509
172.4660602
178.5680865
180.8479644
178.6574934
187.4864325
188.4475575
177.0481678
187.1511563
182.0102551
156.1492868
160.1055455
188.6934267
197.1647378
191.1297668
184.1336708
176.5340777
175.4388422
175.5953044
166.7440136
151.0754408
176.3776155
193.8566797
188.8498889
186.6370662
168.2192288
154.5846647
150.002557
174.5447725
198.9528774
194.9519151
180.4679847
170.7226241
160.9102083
158.1162403
160.1278973
161.1337258
186.3241418
195.1083774
191.2415256
177.0705196
158.4291647
152.7965251
181.9879034
184.6924644
174.9247521
170.6108654
184.2230778
188.1569848
178.9927696
172.8907434
161.4913537
167.3028072
170.6779207
178.8139556
170.9684933
165.5593712
181.7420342
184.0219121
195.7789297
192.1355953
182.5914005
178.7916039
173.9189236
168.7780224
169.7614991
175.7741184
174.5894759
172.3543015
168.4874497
169.6273887
177.20463
183.2619528
185.4971272
184.3124848
181.1385371
182.0549586
179.7303772
175.1706213
173.1366126
191.8450227
170.7226241
162.4077752
170.6332172
169.7391474
161.3572432
175.192973
201.1433484
208.8547002
190.7721389
184.2230778
181.3844063
160.5078769
147.4991617
151.1201443
196.3824268
201.0539414
191.6215052
184.468947
177.8528306
180.6244469
164.6205979
156.0151763
180.5126882
202.1044734
214.3308776
219.2482614
201.702142
179.7974324
156.1939903
159.0326618
167.3475107
176.5787812
201.3668658
203.2220606
187.0617493
175.8188219
173.5165922
175.550601
191.1521186
191.9567814
178.7916039
170.0297201
168.5992084
186.2794383
198.1035111
182.9713801
175.0812143
179.395101
189.9227726
194.5495837
195.7565779
180.2221155
175.1035661
186.391197
192.3591128
199.1540431
201.9033077
189.0734063
185.3853685
186.8158802
178.7692522
174.0306823
169.9626648
179.7750807
194.8625082
194.5495837
183.8430981
170.0520718
178.1210516
188.5593162
198.2152698
170.1861823
165.9617026
204.5184618
204.6525722
196.7847582
192.0908918
186.9499906
183.8878016
180.2444673
185.5418307
173.6507027
172.1754875
182.0102551
191.286229
197.6117727
184.6254092
176.4446707
190.3698075
193.8119762
186.7935284
180.5797435
181.8090894
183.239601
172.399005
179.2386388
201.433921
175.2376765
156.3281007
155.076403
175.0812143
183.597229
189.6098482
207.7594647
205.0549036
207.5135955
219.896462
207.2230228
196.3824268
216.6778107
224.702087
228.2336626
225.3949911
221.5281393
220.76818
215.2249474
209.4358455
208.519424
211.9839444
211.8945374
221.6846015
206.9771537
197.9917524
210.531081
221.1928631
229.7312295
222.9362992
222.3328021
223.2939271
217.1919009
216.2307759
218.3988951
221.3046219
214.0626566
214.464988
220.6117178
214.643802
223.3162789
232.8604737
222.3775056
219.717648
220.0082207
215.6496305
219.4047236
211.760427
210.7769502
214.5320433
210.9557642
220.0976277
226.8478545
228.4795318
217.7730462
212.632145
211.2016334
198.5728977
204.8537379
213.6156218
212.3415723
210.531081
209.6817147
212.1851101
220.2540899
239.834218
233.6874883
200.8751274
182.1667173
196.0471506
216.9460317
230.2676714
225.7079155
226.7360958
209.8605287
203.6914472
197.8576419
196.0918541
205.0996071
208.0053339
203.3785228
207.3794851
198.1258629
188.2910953
200.4280925
201.7915489
206.0383804
207.2900781
203.4902815
182.4349382
174.1424411
190.3474558
204.2055373
201.3668658
206.597174
210.531081
208.2512031
184.2454295
186.2794383
206.3289531
194.2813628
186.5923627
197.1870896
224.7467905
238.1354854
234.2909854
218.1083224
196.1589093
190.0121796
200.0928164
195.6895227
188.1122813
194.8625082
209.4358455
215.9625549
206.2171943
203.5796885
206.507767
203.0879501
207.737113
201.3445141
191.286229
183.7760429
197.7905867
204.5408135
205.2560693
204.406703
211.2910403
217.884805
214.9790782
199.9140024
191.3532843
189.7886622
180.8479644
201.4562728
218.3541916
228.4571801
227.674869
214.2191189
206.3289531
201.2998106
194.5495837
200.1375199
207.7147612
218.5106538
227.853683
223.3833341
210.2852118
192.8508512
195.9800954
220.9693457
214.1967671
209.659363
219.3376683
213.4591595
217.9071567
222.4445608
213.9508979
196.0918541
191.9567814
219.2482614
235.0509447
225.2161771
204.7196275
203.7585025
207.8935752
210.5757845
209.9499357
205.7031042
207.9606304
202.9091362
200.0928164
204.4737583
214.643802
214.3755811
198.639953
201.7915489
208.1617961
210.3969706
203.445578
198.0811594
207.0218571
214.0626566
214.0850084
212.5874415
222.1316364
208.2735548
199.0199326
197.0529791
185.4747755
214.9790782
232.9945842
234.7827238
234.3133371
220.9022905
220.9246422
220.3434968
216.0072584
206.5748223
197.678828
215.8731479
220.0305724
214.5320433
212.4756828
217.884805
222.0869329
220.2540899
209.3911421
212.9897729
213.7497322
216.476645
221.1928631
223.0704097
216.0072584
210.620488
210.4640258
209.5252525
222.9810027
217.5048253
214.733209
222.2433951
220.76818
209.74877
210.0840461
210.8440054
210.8216537
217.0130869
214.2191189
210.0616944
205.5913455
213.8167875
228.3901248
230.1782644
210.5981363
202.5291565
220.2540899
224.9479562
216.0966654
198.461139
200.9645344
223.2715754
227.4066481
230.9382237
225.5961568
228.0101452
221.9304707
211.5145578
206.0607321
196.9859239
201.1209966
214.1744154
226.5796335
219.896462
210.9557642
217.9742119
222.7127818
212.5203863
199.511671
206.507767
210.531081
207.5135955
192.2473541
177.1152231
206.9548019
227.1607789
231.7652383
218.8682817
209.2123281
202.4173978
204.3619996
213.0568281
215.1131886
208.6535345
226.3337644
228.635994
213.9732497
223.830369
229.2841946
219.1365026
216.4989968
220.678773
210.9334124
210.4193223
225.842026
240.9071017
245.779782
225.5067498
207.6700577
200.1151681
199.3999123
203.0655984
195.3095431
199.7798919
227.0490202
220.7458282
206.2171943
208.8547002
211.5145578
216.1413689
205.0102001
196.6059442
209.7264182
201.0986449
198.72936
212.5203863
217.1024939
215.9402032
213.1462351
208.6311827
193.4990517
208.3853136
227.4737033
226.9372615
222.0422294
207.8712234
192.6273337
192.3144093
210.3969706
218.2424329
215.4261131
211.4251508
216.6107555
215.5602235
215.5825753
213.3250491
211.9839444
207.9829822
201.0315896
203.9820199
196.3377233
195.9130402
189.6322
197.2317931
202.4173978
182.1890691
180.1327086
184.8042232
183.1501941
184.2007261
180.1103568
170.4991067
168.8227259
177.472851
189.5204412
179.7080254
171.3708247
183.9101534
189.6098482
183.6419324
171.43788
158.8538478
177.2269818
176.3105603
166.364034
185.7206447
191.465043
181.1832406
176.6681882
174.5224207
166.0287578
165.5370194
171.4602317
170.9014381
173.2483713
185.4747755
190.7274354
171.7731561
167.7274904
166.4757927
167.9510078
166.0734613
169.2250573
180.1103568
181.0044266
177.0258161
182.2561243
165.6040747
173.36013
180.7809092
170.8343829
174.3436068
188.8498889
188.402854
180.2444673
171.7061009
169.8509061
167.0345863
164.4641357
165.0676328
163.3241967
169.1803538
187.4864325
185.0500923
178.4786795
164.084156
164.0394526
170.9237898
180.356226
178.433976
174.6341794
185.8994586
173.6954062
164.2406183
164.9558741
182.7478627
181.6079237
166.7216619
160.0161386
163.4136037
176.1093946
183.2172493
180.6915022
169.4932782
175.0365108
163.7488799
180.8032609
192.3591128
172.1978393
166.8557724
171.6837492
172.9801503
167.5039729
182.2561243
200.562203
194.0354936
182.6137522
176.6234847
150.3154815
163.0783275
184.4912987
192.1802988
209.3017351
215.2025956
205.8148629
191.7109122
181.5632202
196.6059442
198.72936
205.3007728
198.3046768
177.5399062
175.550601
197.1423861
198.7070082
204.2278891
210.0393426
202.1268251
196.2259646
178.6574934
181.3397028
189.6545517
201.6797902
210.1734531
203.0879501
191.7332639
199.2658018
193.7002174
184.2454295
193.4319965
197.6341245
209.8158252
207.0218571
207.9382787
216.2084241
200.2492786
182.278476
196.7847582
204.6078687
212.542738
218.7341712
210.7545985
190.2804005
184.0219121
202.9314879
210.2628601
200.0704646
194.4825285
197.589421
200.6739617
200.8751274
202.9538397
196.7624064
200.5174995
205.4795868
192.515575
194.2590111
185.2736098
192.6496855
198.5281943
191.3532843
197.7235315
207.2230228
190.0568831
191.2191738
211.9615927
214.822616
196.717703
196.1142059
212.1180549
210.0616944
205.1219589
198.8411187
187.8217087
205.9266217
217.2366044
214.1520636
207.0442089
199.2881536
194.1472523
199.5340228
205.3678281
209.8828804
215.694334
199.6681332
184.7595197
193.9013831
205.1890141
208.0053339
211.3580956
222.0645812
218.5553573
205.7701595
196.1589093
184.5807057
183.8654499
189.9451244
194.527232
205.6584007
214.8673194
220.6117178
215.0014299
214.1520636
195.9353919
187.8440604
198.0141041
200.2939821
200.2269268
204.5184618
201.3892175
204.764331
209.569956
203.7808542
194.8848599
200.1151681
207.5806508
215.2249474
218.3094881
205.0325519
197.3435518
194.0801971
194.0801971
214.7555607
211.9168892
215.0908369
214.0850084
200.562203
187.0393976
176.7575952
196.8741652
215.6719822
205.4125315
202.0374181
205.4348833
179.3280458
170.3426445
187.7099499
196.9412204
190.5262697
192.1355953
176.3552638
174.4553655
197.7235315
195.2648396
187.5087842
188.1122813
184.4242435
183.418415
176.6458364
188.6710749
201.7244937
197.3435518
193.2531826
186.4359005
183.6419324
176.5564295
180.0880051
194.2813628
194.4601768
205.4795868
200.5845547
183.1278423
178.433976
191.3979878
180.2221155
189.8110139
201.9033077
191.0403599
172.8683916
182.9713801
209.9946392
199.8022437
178.9257144
174.4777172
200.8080722
203.4232263
196.2259646
183.1948976
186.9052871
200.2492786
193.8566797
186.6147145
186.5253075
181.6749789
194.9742669
200.0034094
199.3999123
208.2959066
206.9100984
196.0247989
195.3765983
189.3863308
181.8314411
181.9208481
189.6322
198.0588076
205.6136972
216.3872381
207.4018368
198.2376216
183.4854702
177.8751824
184.0219121
198.7070082
197.2541448
194.9295634
179.6633219
177.4057957
194.8848599
199.4446158
201.1657001
213.9732497
211.6933717
200.9198309
176.6681882
177.0705196
193.4767
208.6311827
208.0276856
197.1200344
198.371732
186.5253075
170.7896794
187.7323017
210.6428397
198.9752291
180.8256126
180.9373714
178.9480661
188.7604819
185.2736098
186.8158802
187.3076185
193.0296651
196.0471506
200.0257611
173.449537
165.134688
181.6526272
187.7099499
182.8596214
188.492261
196.2706681
199.2658018
201.0539414
195.1083774
183.9101534
184.0889673
184.468947
194.0354936
187.3746738
183.6195807
192.515575
183.6419324
196.7400547
204.0267234
181.4291097
180.0880051
186.8382319
195.8236332
186.1006243
189.9451244
203.0208949
211.8498339
202.2609356
187.9334674
176.3776155
176.4446707
178.4786795
193.8566797
203.3114676
200.9198309
201.4786245
193.4767
188.2687435
179.9091911
173.6954062
174.4553655
187.1064528
176.5787812
168.7109671
181.9431999
195.0413221
189.2298686
168.196877
157.5797984
183.9995604
190.9733046
186.0112174
185.5641825
189.7439587
189.7886622
169.7391474
151.2542547
176.7128917
195.2648396
187.5534877
188.5146127
186.480604
188.8722406
178.2104585
164.9558741
183.1054906
193.1637756
185.2959615
171.2367143
186.5253075
203.9596682
192.9626099
175.6623597
168.2639323
183.0160836
192.2697058
197.0753309
197.7458832
197.3212001
181.6302754
164.352377
159.6585106
178.8139556
192.2473541
201.2998106
208.1170926
202.3726943
189.1181098
185.0277406
179.6633219
174.9247521
180.8479644
167.4816212
163.4136037
177.9198859
199.422264
215.3814096
200.7857204
187.4193773
172.0413771
166.2969787
174.2094963
181.2726475
195.8906884
200.4951478
196.0695024
170.4320515
164.5088392
192.0685401
177.9198859
178.1657551
189.6769034
194.4154733
202.57386
207.2900781
188.3357988
174.6565312
191.4203395
188.5369645
181.6749789
185.7206447
187.2852668
190.1686418
197.3212001
204.4290548
195.8459849
189.8333657
181.585572
180.7362057
177.4281475
182.0549586
183.0160836
170.9461416
175.1482696
188.8722406
201.3668658
200.7186652
189.0510546
179.4621562
174.6341794
180.5573917
173.9636271
172.220191
179.9985981
185.8771069
202.1938803
205.1443106
202.4173978
193.297886
191.0627116
198.1929181
192.4932232
182.1667173
196.7624064
195.8236332
183.3737115
173.7848131
191.2415256
205.546642
208.9217554
198.9975809
178.7245487
186.5476592
195.0636739
181.8537929
175.550601
194.4825285
199.3328571
176.6681882
183.597229
189.0734063
175.7517667
187.1064528
198.0141041
192.515575
200.2045751
190.0568831
179.6633219
184.3124848
195.577764
191.8673744
176.0870428
175.2153248
204.585517
204.8090344
183.0607871
184.2007261
187.3746738
186.5029557
187.9111156
204.406703
196.6506477
190.7497872
189.4310343
176.6458364
192.3144093
199.6681332
196.0471506
194.3707698
194.0131419
188.8498889
188.2910953
196.8518134
199.1763948
189.363979
189.7216069
199.7351885
190.1239383
175.8858771
175.1259178
202.9314879
198.5728977
183.0607871
199.8245954
205.9713252
201.1433484
201.5456798
192.9402581
174.4777172
173.6283509
200.2269268
194.7507494
191.1297668
181.5632202
181.9655516
195.8236332
194.2590111
188.8051854
196.449482
203.0879501
185.7653482
168.4427462
177.8975341
198.1035111
200.5845547
203.6020402
193.655514
189.0510546
184.5136505
179.305694
192.5602785
196.8965169
202.5515083
191.7332639
172.8013364
170.9684933
162.8324584
188.9392959
192.0908918
183.0160836
185.9888656
179.3280458
176.6458364
164.8441154
175.5058975
186.1006243
179.305694
162.5642374
174.5894759
182.9713801
166.1628683
160.41847
180.7809092
189.0063511
187.8217087
183.4631185
163.9947491
166.5875514
176.9364091
159.1667723
170.6108654
197.0976826
187.3746738
177.20463
173.6954062
165.0899845
172.1531358
189.8780691
195.577764
177.4281475
173.5612957
160.329063
165.6040747
209.6817147
214.3308776
194.0354936
156.037528
163.9723973
182.9937319
192.0461884
204.674924
220.6340695
209.1229211
187.7099499
180.5797435
182.5243452
194.3707698
200.8527757
194.1249006
187.8664121
180.6691504
182.1220138
205.0996071
199.9140024
173.2483713
169.2250573
202.1715286
204.6525722
160.5302287
188.4475575
214.1073601
191.0850633
205.3231246
204.4290548
178.8586591
174.6565312
176.6458364
184.6030575
198.4387873
212.5650898
220.9469939
207.8935752
181.8761446
183.8207464
211.3580956
206.3736566
186.6147145
201.702142
198.1035111
189.363979
198.7964152
185.7429964
177.8304789
201.0762931
203.713799
174.2989033
178.3892725
199.5563745
188.9839994
207.468892
219.896462
200.3610373
189.9227726
190.9062494
193.566107
196.2259646
177.4057957
178.6574934
197.5447175
201.1433484
197.9917524
206.2171943
201.2998106
167.9957113
185.3183133
180.7809092
169.2921125
218.9129852
225.4396946
177.2269818
193.0296651
203.0432466
202.9314879
176.4670225
180.9150196
207.9159269
209.6370112
206.2618978
203.6020402
193.9013831
174.7682899
167.5486764
218.7341712
239.8565697
209.5476043
182.45729
169.6273887
177.472851
216.1190171
216.655459
204.5408135
200.5845547
197.0529791
204.9207932
217.1471974
221.2599184
212.9897729
190.0121796
188.0452261
187.3746738
183.9772086
219.0694474
205.4348833
196.7847582
196.9188687
168.286284
171.6166939
227.0266684
230.7594098
188.7381302
189.8557174
191.6885604
193.2531826
188.2016883
192.7167407
201.3445141
194.7507494
197.0529791
194.706046
189.363979
178.8363074
211.9392409
223.2268719
192.9179064
183.7760429
178.344569
192.2026506
219.7847032
217.0354387
204.2278891
175.1035661
187.7323017
203.6467437
195.0860256
166.5875514
177.8304789
212.1851101
225.5514533
190.9286011
156.1716385
150.4495919
182.5690487
223.4056858
224.2103486
212.632145
189.3416273
177.6069614
173.5836474
172.3543015
185.0500923
180.5126882
205.0549036
206.8653949
203.713799
195.0860256
184.2230778
179.7750807
176.7575952
173.0919091
192.7390924
196.2483163
178.6798452
177.7634237
185.9665139
199.3552088
199.7351885
188.3357988
168.9568363
157.7139089
171.7955079
197.9470489
205.9042699
205.9266217
184.6477609
175.9752841
195.3095431
192.8732029
197.1200344
202.663267
190.2804005
182.7925662
178.8139556
187.6652464
182.9937319
199.5787262
208.519424
196.2930198
188.0675778
172.2425428
155.7246036
185.6982929
205.6136972
195.8906884
192.9402581
192.8732029
174.9918073
165.5593712
181.8761446
185.4077203
178.6574934
192.5379267
193.3425895
193.8119762
188.8275372
190.2133453
192.4038163
194.5942872
176.6681882
160.3737665
179.216287
195.2648396
195.667171
190.1239383
214.8673194
232.5475493
216.3425346
178.6798452
183.8654499
196.9635721
199.0646361
203.1550054
198.0811594
185.4747755
177.0481678
173.2930748
170.6332172
198.8634704
190.2580488
168.4203945
172.5107637
175.1035661
176.3105603
176.5787812
183.3737115
203.1773571
197.2094413
186.8829354
181.2502958
164.084156
161.6701676
198.7964152
209.3911421
186.2123831
159.5244002
160.5749322
195.1754326
197.0753309
206.4854153
202.9761914
186.0112174
177.6293132
195.0636739
199.601078
174.7459382
165.9840543
197.1200344
211.9168892
199.1316914
182.9043249
190.4368628
191.6885604
168.5098014
184.558354
206.7983397
200.8304239
203.624392
204.0267234
188.7828337
187.8217087
192.2473541
193.2084791
184.5807057
201.702142
208.0500374
194.9295634
188.9616476
185.8100517
187.2405633
192.0685401
175.9976358
170.0744236
192.7614442
210.8663572
204.6525722
201.2998106
197.8352902
190.2133453
177.8751824
179.395101
187.1064528
180.7362057
193.9684384
215.2696508
203.6914472
185.2959615
164.0394526
169.1132985
206.8653949
215.1578921
204.3396478
193.9684384
185.0947958
186.8829354
184.3348365
180.6467987
160.9549118
166.8334206
205.3678281
210.799302
200.472796
198.3940838
186.7041214
164.7547084
166.0511096
196.7847582
209.3464386
200.4280925
202.8867844
197.3212001
193.7449209
184.3348365
170.8343829
187.262915
197.9917524
201.0762931
192.8732029
192.0685401
196.7624064
182.7925662
169.6273887
188.8275372
208.0947409
202.1268251
184.7371679
175.7741184
192.9849616
195.2424878
187.1511563
181.5632202
182.2561243
191.286229
167.6604352
172.1754875
218.5553573
222.2880986
205.2113658
193.0743686
177.8081271
169.6273887
180.7809092
187.4640807
181.4514615
193.3649413
205.8819182
202.2609356
182.6137522
164.084156
187.3299703
193.4767
163.5477142
174.0306823
210.9110607
196.4941855
161.9830921
157.6915571
192.1579471
202.5068048
205.9713252
194.5495837
186.7041214
184.6924644
165.4699642
173.6730544
180.2221155
184.4242435
192.7614442
182.9713801
190.0792348
184.2454295
173.0248538
166.364034
167.5933799
168.9791881
188.5593162
206.1724909
187.0393976
164.5311909
163.7041764
177.8975341
204.764331
195.2648396
182.8149179
189.7886622
188.9169441
195.7789297
178.6798452
163.123031
177.2716853
190.5709732
190.3027523
184.1113191
167.0569381
160.8431531
195.1307291
202.5962117
193.4096448
193.2531826
196.3377233
200.6739617
178.8363074
160.6643391
153.24356
169.8509061
183.6419324
188.1122813
190.2356971
182.7925662
173.0248538
157.2221705
171.7955079
208.2512031
194.1025488
188.7157784
190.7944907
177.472851
179.5515632
173.9636271
158.1609438
157.6915571
183.6195807
200.4504443
201.9033077
193.1637756
184.0442638
180.6915022
177.8975341
174.8800486
177.6740167
186.1900313
191.4203395
208.4747205
196.4047785
182.0102551
171.0579003
189.9451244
211.3804473
213.1462351
194.5495837
178.5904382
177.8081271
185.1618511
190.4368628
198.4164355
187.3299703
180.8703161
185.608886
191.643857
181.3620545
149.7566879
168.465098
189.6769034
189.3863308
196.8965169
178.7692522
161.8266299
172.1084323
185.2289063
170.3202927
177.383444
199.7575402
181.8537929
170.119127
180.6020952
186.8158802
182.3455313
185.6312377
173.5612957
168.3309875
158.0938885
176.6234847
179.8868394
181.5408685
194.1472523
188.8945924
178.7692522
176.8917056
178.6574934
173.7624614
168.2192288
175.8188219
179.9985981
173.36013
199.8469472
217.705991
195.0189704
186.2570865
191.1744703
183.3737115
167.7274904
143.8558273
154.6517199
198.1258629
208.1841479
193.4096448
185.4971272
184.3124848
175.3270835
166.0511096
171.0802521
189.2969238
190.2356971
174.9918073
168.2415805
167.4816212
168.6662637
167.5933799
166.095813
178.0316446
161.7819264
144.9510628
148.5720454
162.161906
171.348473
186.1453278
191.9344296
185.8771069
172.0637288
163.6818246
158.4291647
146.6497954
150.3825367
172.9577986
175.0588626
176.1764498
178.1657551
173.4271852
173.4048335
161.9830921
164.4864874
170.6108654
171.7955079
162.1842578
157.9821298
159.2561792
163.5477142
177.8975341
187.6428947
173.3377783
152.1259728
148.8179146
178.6574934
174.1647928
151.4107169
153.9811676
167.9510078
169.336816
177.6963684
181.3620545
162.3630717
168.5545049
179.7974324
191.3085808
194.3707698
180.1774121
169.7391474
170.8567346
173.7401097
186.5253075
205.0549036
192.2697058
167.8392491
154.9199408
166.6322549
157.8703711
173.8518684
186.9946941
162.2960165
152.9306356
172.8460399
170.3426445
174.500069
195.488357
207.6030025
198.8411187
171.1026038
181.9655516
200.4057408
200.5845547
193.7002174
185.8100517
172.6001707
187.7546534
211.8721857
180.8032609
170.6332172
197.8576419
205.0996071
193.5214035
182.3455313
182.4796417
171.527287
172.8907434
205.9042699
208.3406101
178.4116242
169.4038712
190.2356971
207.3124298
197.7905867
190.7497872
205.2784211
210.0840461
202.5291565
180.8479644
185.608886
199.8692989
203.713799
185.4524237
187.2182116
188.492261
201.523328
203.6467437
191.465043
197.7905867
191.9567814
162.6089409
169.6050369
210.2181566
214.464988
195.1977843
181.2949993
175.8858771
187.2182116
207.7147612
208.1617961
194.6613425
197.2317931
185.7653482
188.1122813
188.9392959
169.7391474
189.4980895
214.554395
198.1035111
178.2998655
158.1162403
177.7187202
204.9431449
212.1404066
220.7458282
211.4698543
185.5418307
185.430072
170.3649962
173.8295166
202.5515083
202.7079705
206.7536362
178.9257144
196.4271303
218.9129852
213.3026973
199.4669675
203.8255577
214.2191189
197.9470489
161.2678362
186.6594179
213.8614909
219.3600201
188.8498889
152.0365658
181.9655516
