 ECG Channel
5244.076877
5381.383643
5619.340315
5881.503926
6075.450012
6193.780147
6295.324122
6339.491169
6242.529302
5956.874008
5554.877884
5075.455317
4854.396564
4897.311914
5001.04636
5136.810855
5241.03704
5293.273067
5310.819186
5323.134997
5332.14275
5335.048477
5333.55091
5344.838541
5357.154352
5359.903617
5358.316643
5363.815172
5381.271885
5393.408882
5391.106652
5394.012379
5406.283487
5416.744103
5427.875272
5444.952005
5466.454383
5481.251238
5486.727415
5496.673941
5518.846872
5541.332727
5559.348233
5579.55421
5605.795158
5631.298498
5653.292615
5678.617141
5706.601525
5730.517892
5751.64029
5766.191276
5788.78889
5817.644992
5827.859739
5831.167797
5836.196939
5842.276614
5838.2533
5821.60125
5809.307791
5795.628523
5765.163096
5724.147645
5685.00974
5649.939853
5607.337428
5558.588273
5517.885747
5484.961627
5459.212418
5427.964679
5398.326266
5377.717957
5357.981367
5341.441076
5329.929928
5328.342954
5329.348782
5317.994096
5301.029122
5296.111738
5298.972762
5293.83186
5282.521878
5280.8902
5286.724006
5287.394558
5278.230343
5278.789136
5285.919343
5288.310979
5281.091366
5277.179811
5283.259485
5290.903782
5285.852288
5272.664758
5279.414985
5289.540325
5282.521878
5277.738604
5284.913514
5292.066072
5291.90961
5288.042758
5291.864907
5299.531555
5300.559735
5287.506317
5281.627808
5291.797852
5297.050511
5289.495622
5288.199221
5296.894049
5299.017465
5288.556849
5279.325578
5284.488831
5293.384825
5289.383863
5283.930037
5285.315846
0
2653.464991
2658.874113
2653.95673
2645.485418
2649.173456
2654.314358
2654.09084
2649.016994
2652.727384
2660.483439
2665.847858
2658.784706
2657.577712
2659.991701
2659.634073
2653.397936
2650.872189
2660.841067
2664.842029
2658.404727
2654.917855
2664.372643
2670.251151
2663.299759
2656.01309
2656.52718
2661.869247
2660.550494
2649.35227
2648.994642
2653.464991
2655.677814
2650.067526
2645.798343
2653.464991
2656.773049
2645.239549
2640.210407
2646.938282
2651.162762
2641.775029
2634.48836
2639.942186
2644.032555
2636.321203
2632.096724
2637.930529
2644.300776
2636.634128
2628.833369
2634.041325
2641.327994
2636.969404
2626.173511
2627.201692
2633.303718
2630.308584
2620.250299
2625.25709
2635.76241
2628.252224
2612.96363
2608.269764
2620.764389
2622.776046
2609.163834
2596.289229
2608.247412
2631.247357
2646.26773
2644.233721
2646.804171
2661.26575
2664.573808
2661.556323
2666.406651
2673.849782
2662.5398
2641.350346
2631.962613
2633.504883
2629.280404
2616.204633
2609.812034
2618.640973
2623.200729
2616.562261
2610.259069
2616.80813
2622.731343
2619.199767
2614.416494
2618.775084
2621.792569
2617.858662
2606.526328
2596.959781
2589.941334
2581.134746
2643.652575
2834.715287
3095.962476
3344.469171
3505.446435
3629.118637
3715.217556
3711.216594
3531.061534
3185.503565
2732.701925
2331.175188
2271.183106
2324.827293
2437.03305
2551.406926
2619.155064
2652.593273
2673.492154
2685.942076
2682.388149
2675.48146
2686.567925
2700.269544
2697.386169
2693.899297
2704.136396
2716.787483
2722.50953
2720.006135
2728.544501
2747.923463
2758.853466
2763.368519
2773.76208
2790.056502
2805.41215
2814.777531
2829.484979
2850.674433
2871.036872
2881.89982
2897.836613
2927.363268
2956.73346
2974.100765
2988.115309
3014.311554
3047.57095
3065.720566
3076.4047
3092.229735
3110.222889
3115.833177
3112.972154
3112.748636
3118.336572
3117.263689
3098.711741
3073.476621
3054.634101
3026.113275
2985.05312
2942.89773
2910.934736
2881.609247
2838.135104
2800.383008
2777.450118
2756.394774
2726.286975
2701.409483
2689.853631
2681.672893
2664.238532
2650.425154
2649.486381
2653.912026
2646.938282
2631.336764
2628.431037
2632.119075
2633.124904
2630.532101
2630.487398
2638.109343
2640.098648
2629.213349
2620.65263
2624.519482
2628.051058
2624.765351
2620.227947
2626.039401
2635.628299
2634.957747
2632.05202
2634.600119
2639.338689
2637.550549
2629.369811
2632.141427
2642.065602
2643.987852
2636.634128
2636.634128
2644.85957
2645.463067
2636.947052
2630.12977
2634.622471
2636.857645
2631.046192
2628.07341
2635.24832
2637.550549
2633.795456
2628.185168
2633.817808
2635.784761
2625.122979
2614.684715
2619.825616
2627.69343
2627.022878
2619.535043
2619.982078
2624.810055
2620.853796
2611.711933
2613.455369
2625.413552
2624.139503
2612.538947
2606.235755
2608.895613
2611.42136
2606.012238
2607.06277
2617.433979
2618.685677
2601.675999
2585.046301
2591.103624
2602.860642
2595.641028
2583.079348
2586.18624
2603.642953
2620.317354
2633.057849
2633.795456
2640.992718
2648.055869
2644.09961
2650.000471
2655.387241
2642.378526
2625.90529
2615.422322
2616.517558
2617.769255
2607.867433
2598.09972
2606.794549
2612.695409
2606.638087
2597.317409
2603.441787
2613.947107
2608.806206
2597.719741
2597.831499
2605.65461
2607.465101
2598.4797
2597.920906
2593.294095
2576.016197
2558.805353
2627.022878
2821.728924
3082.573781
3333.18154
3504.10533
3634.416
3715.686943
3702.275896
3529.921595
3190.398597
2726.845768
2310.365714
2249.658376
2318.591156
2429.567567
2534.039621
2600.491357
2642.490285
2665.736099
2665.266712
2661.601026
2670.608779
2683.282218
2687.037311
2685.673855
2690.613591
2705.656315
2716.116931
2712.987687
2718.687382
2732.433704
2744.816571
2752.10324
2757.400603
2774.65615
2789.967095
2797.298467
2803.981638
2823.002973
2846.896988
2866.611226
2882.682131
2909.168948
2939.679079
2962.187286
2973.989007
2994.485556
3023.453417
3045.91692
3056.779868
3075.287113
3095.291924
3107.965363
3111.228718
3114.290907
3125.422075
3125.936166
3111.474587
3089.927505
3077.991674
3060.870237
3023.699286
2977.006492
2945.155256
2919.96484
2878.502354
2837.911587
2811.670639
2792.761063
2766.922446
2739.586263
2719.045009
2705.20928
2691.172384
2674.967369
2670.407614
2677.046082
2671.927532
2653.174419
2649.039346
2654.828448
2651.743907
2640.679793
2635.00245
2640.880959
2650.849837
2651.565093
2643.9655
2644.814866
2649.329919
2641.462104
2634.018974
2641.283291
2643.786686
2641.842084
2637.058811
2641.327994
2653.286177
2659.477611
2653.397936
2653.353233
2667.121907
2670.161744
2660.394032
2657.376547
2666.808983
2677.180192
2671.25698
2659.790535
2662.048061
2667.725404
2664.08207
2659.142334
2664.909084
2671.659311
2661.578675
2649.888712
2658.874113
2667.233666
2660.192866
2650.671023
2652.526218
2662.942131
2661.690433
2652.213294
2649.195808
2656.147201
2651.676852
2639.763372
2638.377564
2648.949939
2657.823581
2655.007262
2645.932453
2653.19677
2660.438736
2653.129715
2645.932453
2648.391145
2649.955767
2642.42323
2634.689526
2636.41061
2644.99368
2641.193884
2631.739096
2644.233721
2669.446489
2670.944055
2663.679738
2670.340558
2686.143242
2697.922611
2694.502794
2680.108271
2674.274465
2667.725404
2658.96352
2652.190942
2654.135544
2647.988814
2639.450447
2634.287195
2641.953843
2654.582578
2649.173456
2642.490285
2645.351308
2652.727384
2650.715727
2643.250244
2645.016032
2650.045174
2648.592311
2637.081163
2619.870319
2609.767331
2654.98491
2792.135214
3040.15017
3350.392383
3610.83491
3745.213597
3805.831528
3796.689665
3683.723948
3350.99588
2881.363378
2400.040913
2292.730188
2316.713609
2383.61238
2499.416768
2612.717761
2674.632093
2694.771015
2700.917745
2718.709733
2730.824379
2728.969184
2731.651393
2746.269434
2757.758231
2756.439478
2756.506533
2766.631873
2780.311141
2787.418996
2795.644438
2813.279964
2829.641441
2834.067086
2837.933938
2853.758973
2869.449898
2881.341026
2890.214669
2909.079541
2932.861797
2955.168838
2971.865591
2995.93842
3031.321231
3057.003386
3069.386252
3082.350264
3109.775854
3134.094552
3139.794247
3143.884616
3162.280102
3174.774727
3171.310207
3167.599817
3163.576503
3156.043965
3133.580462
3100.544584
3071.219095
3043.257063
3008.455397
2969.630417
2936.147503
2912.454654
2881.385729
2840.347927
2812.162377
2793.901002
2771.102222
2745.911806
2727.672783
2724.94587
2720.855501
2707.153881
2694.614553
2695.709788
2698.347294
2693.206393
2684.802137
2685.830317
2690.233611
2681.427024
2672.620436
2675.772032
2680.35414
2680.644713
2672.754547
2673.648617
2683.148108
2681.941114
2678.767166
2682.902239
2689.004265
2692.938172
2684.913896
2682.768128
2690.546535
2695.486271
2692.759358
2690.412425
2696.715617
2700.895393
2697.386169
2694.011056
2701.185966
2709.05378
2706.572736
2699.286067
2699.57664
2704.069341
2700.694227
2686.098538
2685.383282
2695.888602
2694.547498
2683.349274
2683.148108
2696.737969
2701.633001
2688.736044
2680.421195
2683.125756
2686.031483
2677.359006
2670.787593
2676.64375
2682.186983
2677.359006
2670.385262
2675.637922
2683.639846
2679.124794
2670.541724
2671.90518
2682.745777
2677.269599
2663.299759
2657.42125
2665.870209
2670.519372
2657.04127
2647.921759
2654.806096
2671.122869
2677.470765
2678.677759
2684.489213
2689.898335
2691.015922
2697.877908
2710.327829
2714.865233
2699.241364
2686.031483
2682.812832
2679.124794
2667.367776
2651.408631
2652.727384
2664.819677
2667.278369
2660.863419
2662.740965
2668.842991
2668.463012
2664.104422
2661.399861
2667.635997
2670.564076
2662.584503
2661.399861
2669.155916
2665.154954
2639.875131
2629.727439
2720.475521
2931.74421
3207.005943
3482.893525
3675.386748
3793.694531
3851.33968
3819.734313
3628.51514
3249.988347
2726.86812
2346.240264
2324.626127
2389.647351
2487.01155
2583.392272
2656.460125
2699.666047
2715.871062
2716.161634
2718.843844
2730.600861
2744.414239
2746.962338
2747.811705
2762.139173
2770.252856
2770.006987
2770.141097
2780.244086
2794.348037
2796.516156
2804.540432
2822.488883
2844.930034
2853.289587
2854.965968
2868.824049
2887.823032
2906.106759
2920.34482
2938.315623
2965.69651
2990.484594
3009.036542
3031.209473
3061.093755
3090.88863
3110.133482
3118.090703
3138.386087
3160.737832
3162.861247
3160.491962
3172.919532
3179.826221
3173.478326
3154.859323
3137.804942
3125.846759
3093.727302
3048.867351
3012.165786
2984.315513
2949.357384
2907.939602
2872.713253
2852.8202
2829.37322
2790.145909
2755.94774
2740.592091
2735.898225
2721.034315
2705.20928
2705.097521
2705.678666
2694.212221
2681.225858
2682.008169
2685.584448
2678.834221
2668.597122
2670.720538
2677.336654
2674.028596
2664.909084
2664.46205
2674.430928
2677.180192
2665.646692
2659.567018
2668.842991
2673.648617
2668.284198
2666.607817
2675.503811
2683.729253
2678.767166
2671.39109
2683.572791
2692.088806
2690.680646
2687.372588
2691.015922
2699.57664
2699.95662
2688.736044
2690.457128
2696.603858
2695.262753
2693.362855
2696.536803
2702.102387
2701.230669
2689.674817
2683.30457
2690.568887
2698.861384
2690.971218
2680.756471
2685.696207
2688.93721
2680.041215
2674.766204
2677.649579
2681.561134
2674.58739
2663.70209
2663.858552
2677.426061
2677.940151
2670.988759
2672.463974
2676.867268
2672.866305
2661.891599
2658.82941
2666.719576
2669.871172
2662.80802
2663.478573
2670.541724
2667.658349
2647.921759
2636.835293
2645.597177
2658.471782
2651.118058
2640.679793
2639.249282
2660.483439
2676.979026
2686.545573
2688.378416
2696.715617
2702.258849
2702.817643
2708.003248
2714.239384
2707.287992
2688.668989
2678.387186
2674.050948
2668.842991
2652.973253
2646.692413
2653.95673
2660.796363
2654.60493
2653.71086
2662.338634
2668.150087
2665.132602
2655.588407
2660.617549
2669.893523
2664.864381
2659.410555
2657.354195
2656.996567
2641.66327
2624.675944
2694.435739
2896.76373
3157.51918
3417.559375
3599.189651
3734.462408
3826.752761
3823.891738
3658.466477
3316.864767
2838.179807
2394.050645
2313.807883
2384.864078
2495.281696
2594.478738
2658.695299
2697.497928
2718.039181
2721.369591
2720.564928
2729.192701
2741.486161
2744.54835
2741.284995
2747.387021
2760.798068
2767.928275
2767.794164
2775.326702
2792.381083
2804.138101
2807.580269
2815.045752
2830.714325
2844.371241
2850.205046
2859.659834
2881.229267
2902.999866
2909.347762
2919.294288
2944.037669
2977.028844
3002.263963
3018.468978
3045.358127
3076.471755
3095.738959
3106.758369
3124.416247
3152.020651
3169.700881
3172.897181
3176.831088
3189.526879
3190.085672
3166.61634
3144.935148
3130.339459
3105.75254
3069.162735
3027.58849
2995.491385
2964.020129
2922.64705
2877.027139
2848.662776
2831.474284
2804.495729
2773.829135
2755.657167
2747.454077
2731.584338
2711.8701
2704.158748
2705.276335
2701.87887
2692.468785
2686.031483
2687.618457
2690.702998
2678.208372
2667.367776
2672.933361
2673.55921
2665.423175
2660.639901
2668.552419
2680.041215
2678.655407
2670.407614
2671.189925
2679.437718
2675.593218
2664.260884
2671.994587
2686.63498
2681.583486
2670.787593
2670.139393
2676.152012
2678.297779
2672.955712
2675.146183
2685.204468
2687.685512
2683.058701
2682.857535
2690.948867
2695.843899
2689.518355
2687.730216
2690.948867
2696.11212
2687.841974
2682.589314
2687.506698
2689.607762
2684.958599
2677.090785
2680.555306
2688.93721
2687.305532
2675.302646
2672.911009
2679.169497
2677.068433
2666.808983
2662.696262
2670.966407
2671.301683
2663.433869
2657.443602
2660.438736
2664.774974
2660.617549
2652.146238
2650.313395
2653.375584
2650.291044
2643.563168
2652.928549
2663.523276
2659.768183
2646.133619
2645.977157
2655.588407
2657.488305
2647.497075
2641.059773
2641.439753
2645.708936
2644.077259
2636.9247
2638.668136
2637.215273
2644.636052
2662.495096
2682.388149
2681.963465
2675.704977
2677.001378
2691.842936
2701.700056
2695.106291
2678.208372
2673.022768
2675.973198
2664.97614
2651.319224
2648.860532
2651.296872
2649.955767
2640.456276
2639.450447
2650.62632
2652.861494
2642.244416
2635.337727
2643.9655
2647.988814
2643.496113
2639.942186
2649.21816
2657.600064
2641.417401
2619.713857
2612.717761
2680.957637
2855.010671
3094.375502
3349.252444
3542.326813
3673.665663
3772.952112
3804.982162
3669.418832
3344.960909
2889.454709
2424.918404
2315.797188
2375.185773
2470.001873
2582.431147
2671.39109
2711.735989
2716.161634
2714.30644
2724.252966
2737.865178
2740.502684
2738.356917
2744.704812
2753.734917
2760.999234
2758.495838
2769.694062
2784.446214
2788.894211
2788.804804
2803.400493
2825.416961
2836.078743
2838.828008
2848.282796
2868.824049
2887.778328
2894.997942
2907.291401
2933.957032
2961.784954
2975.620684
2989.65758
3020.54769
3052.689499
3071.509668
3090.285133
3118.761256
3143.750506
3158.435602
3164.604683
3174.350044
3190.130376
3190.130376
3178.283951
3173.14305
3170.460841
3148.042041
3113.083913
3078.505764
3049.426144
3014.847996
2973.072585
2930.33605
2901.144672
2878.32354
2844.125371
2811.089493
2793.610429
2779.819403
2756.394774
2737.261681
2730.466751
2725.996402
2716.005172
2700.269544
2698.235535
2703.354085
2701.655352
2692.245268
2691.50766
2699.688399
2696.872079
2684.913896
2684.489213
2692.133509
2697.542631
2688.445471
2686.545573
2692.91582
2695.955657
2689.4513
2684.466861
2692.580544
2697.944963
2691.708826
2684.33275
2691.798233
2702.862347
2699.688399
2691.731178
2693.116986
2705.902184
2705.991591
2698.213184
2699.174309
2707.846786
2706.885661
2698.347294
2696.894431
2705.589259
2712.808873
2708.852614
2705.611611
2711.423065
2716.832187
2711.579527
2705.477501
2707.220937
2711.8701
2702.616477
2692.491137
2693.720483
2705.052817
2704.382265
2697.430873
2694.636905
2700.113082
2700.805986
2695.329809
2695.285105
2699.57664
2696.62621
2686.50087
2685.696207
2695.642733
2697.207355
2688.400768
2682.365797
2689.294838
2694.100463
2686.590277
2678.163669
2682.991646
2689.205431
2686.769091
2683.483384
2682.566963
2691.641771
2691.75353
2674.363872
2667.725404
2672.240457
2674.654445
2668.284198
2662.942131
2665.11025
2669.804116
2680.73412
2697.65439
2709.05378
2709.590222
2710.46194
2715.491082
2726.108161
2728.946832
2714.664068
2696.76032
2696.536803
2691.731178
2677.470765
2665.356119
2670.877
2678.342483
2675.034425
2666.719576
2671.614608
2679.683588
2675.146183
2666.406651
2664.953788
2674.945018
2680.667064
2674.542686
2669.044157
2674.810907
2678.498945
2662.29393
2639.539854
2637.43879
2698.950791
2868.444069
3117.01782
3378.332064
3563.695081
3691.4353
3790.162956
3812.64881
3672.302207
3339.46238
2878.502354
2430.551044
2336.360793
2393.022465
2489.69376
2599.530232
2682.835183
2726.264623
2734.579472
2736.702888
2748.571664
2756.886513
2755.344242
2755.299539
2764.508458
2771.929237
2770.006987
2772.555086
2784.088586
2800.919449
2807.84849
2809.63663
2823.561767
2844.10302
2851.724965
2855.927093
2870.992168
2888.784157
2901.055265
2911.024143
2929.799608
2959.795649
2982.929705
2993.055045
3009.39417
3042.519455
3069.207438
3087.088834
3104.59025
3133.893387
3160.626073
3171.936056
3175.400576
3187.895201
3202.088559
3201.149786
3190.018617
3183.246038
3177.725157
3156.714518
3116.816654
3082.842002
3056.086964
3025.174502
2989.076434
2954.855914
2921.194186
2890.795814
2853.624863
2819.717267
2802.104092
2784.066234
2757.311196
2740.122705
2731.182007
2724.878815
2713.79235
2703.197623
2703.979934
2706.37157
2701.074207
2695.419216
2699.733102
2707.13153
2705.097521
2693.139338
2691.418253
2697.497928
2696.425044
2686.50087
2687.037311
2697.430873
2699.107253
2692.02175
2686.478518
2696.000361
2701.074207
2697.229707
2693.206393
2700.224841
2709.746684
2707.153881
2705.969239
2710.260774
2719.067361
2716.318097
2704.471672
2706.997419
2717.413332
2717.793312
2709.769036
2709.500815
2720.564928
2719.5591
2708.830262
2708.025599
2712.920632
2713.613536
2704.8293
2700.291896
2706.840957
2708.182062
2702.102387
2698.03437
2702.728236
2705.812777
2696.290934
2690.434777
2695.150995
2700.582469
2693.049931
2682.522259
2682.678721
2688.266657
2684.71273
2676.196715
2675.593218
2681.516431
2681.963465
2677.02373
2677.113137
2682.835183
2681.628189
2667.233666
2665.981968
2672.195753
2678.789518
2676.084957
2667.501887
2672.709843
2681.337617
2679.303608
2675.503811
2679.393015
2685.562096
2682.097576
2675.302646
2674.788555
2674.430928
2663.791497
2657.063622
2660.23757
2664.350291
2661.556323
2653.308529
2671.413442
2703.756416
2712.585355
2702.124739
2702.638829
2718.195643
2727.426914
2723.694172
2708.785559
2696.782672
2696.357989
2688.914858
2675.168535
2672.28516
2679.393015
2674.877962
2667.92657
2669.379433
2672.911009
2671.279332
2664.864381
2670.184096
2682.4105
2677.381358
2664.015015
2659.902294
2670.072337
2674.363872
2668.530067
2661.690433
2658.091802
2645.641881
2639.852779
2720.631983
2923.630526
3200.747454
3453.657443
3619.574442
3753.841371
3847.070497
3834.374706
3630.392686
3255.509228
2776.466641
2378.180907
2323.821464
2388.842689
2506.435216
2613.075389
2674.408576
2709.590222
2730.690268
2734.110085
2730.422047
2732.232539
2745.06244
2758.205266
2758.786411
2759.345205
2771.571609
2783.216868
2784.021531
2782.814536
2793.453967
2807.71438
2812.363543
2818.465569
2834.715287
2854.675395
2865.203066
2872.55679
2889.767634
2915.874471
2936.371021
2946.049326
2964.377757
2998.531222
3023.676935
3039.010231
3056.690461
3084.339569
3107.741846
3118.470683
3127.903119
3148.824352
3169.499716
3179.356835
3177.36753
3181.010864
3183.290742
3168.560942
3153.384108
3136.955576
3113.620354
3077.589342
3037.624423
3001.883984
2974.480745
2942.271881
2901.725817
2874.121413
2858.832819
2832.435409
2794.236278
2766.006025
2758.026452
2752.662033
2741.016774
2728.65626
2721.011963
2720.363762
2710.014905
2699.509585
2701.007152
2703.085864
2695.754492
2691.574716
2691.708826
2695.933306
2692.848765
2684.466861
2687.551402
2698.928439
2700.403655
2687.841974
2685.964428
2699.800158
2706.23746
2697.229707
2695.419216
2707.511509
2712.294783
2708.584393
2709.970201
2722.822454
2730.623213
2722.196605
2713.077094
2710.640754
2721.637812
2729.058591
2724.007097
2726.711658
2729.147998
2730.71262
2723.068324
2723.090675
2731.249062
2730.511454
2722.867158
2718.016829
2725.437608
2728.857425
2718.195643
2713.41237
2724.230614
2730.287937
2719.782617
2712.652411
2720.922556
2729.863254
2724.43178
2714.574661
2711.981858
2721.011963
2722.286012
2717.838015
2713.658239
2715.982821
2716.139283
2710.46194
2707.936193
2718.66503
2723.53771
2713.568832
2710.149015
2719.916728
2720.855501
2712.585355
2700.403655
2701.700056
2715.379323
2710.998381
2703.04116
2707.578565
2713.345315
2721.503701
2736.099391
2753.824324
2752.840847
2751.812667
2749.644548
2758.0041
2768.688234
2768.867048
2749.175161
2736.389963
2733.037202
2727.069286
2717.681553
2714.261736
2716.206338
2721.570757
2712.920632
2713.859405
2719.581451
2720.72139
2718.732085
2713.121797
2713.591184
2721.011963
2718.687382
2713.010038
2710.752512
2717.212166
2715.669896
2700.001323
2683.751605
2682.008169
2746.068269
2924.077561
3207.967068
3522.81374
3753.595502
3865.376576
3918.73019
3897.607791
3738.463371
3361.389442
2848.148685
2410.322715
2361.506505
2398.878622
2479.546068
2596.848023
2697.050893
2751.969129
2766.229542
2782.47926
2795.666789
2797.253763
2789.184784
2795.8009
2810.396589
2817.884423
2818.130293
2824.969926
2845.175903
2857.804639
2859.704537
2861.425622
2875.775442
2891.801642
2897.367227
2905.3468
2924.323431
2943.27771
2950.430268
2959.348614
2981.923876
3011.741103
3031.924728
3050.722545
3075.309464
3107.317162
3129.937128
3140.375392
3167.152782
3200.255716
3216.259565
3223.479178
3231.95049
3249.965996
3259.957225
3250.435382
3242.299347
3236.152617
3222.205129
3191.404425
3154.702861
3131.680564
3106.825424
3067.843982
3022.20172
2984.874306
2959.236855
2923.518768
2891.958105
2866.477116
2847.276967
2827.026287
2798.885441
2782.47926
2784.356807
2777.114842
2760.373385
2747.856408
2745.867103
2745.308309
2734.780638
2731.830207
2737.865178
2742.11201
2732.724277
2722.420123
2727.672783
2735.764114
2729.617385
2720.497873
2728.745667
2739.854484
2732.478408
2723.694172
2731.919614
2746.738821
2744.213074
2735.272376
2747.029394
2757.892341
2760.239275
2750.985652
2746.224731
2755.18778
2761.356862
2759.971054
2759.635777
2769.895228
2779.819403
2775.997254
2770.29756
2776.220772
2777.852449
2769.515248
2763.189705
2767.123612
2771.951589
2764.866086
2751.790315
2754.114897
2765.983673
2770.029339
2759.747536
2752.930254
2757.333548
2755.321891
2739.496856
2738.088696
2743.475466
2749.331623
2744.749516
2737.082867
2743.587225
2743.698984
2735.339431
2732.299594
2740.882664
2745.755344
2742.424934
2738.111048
2741.419106
2746.381193
2741.08383
2734.311251
2737.75342
2753.64551
2750.918597
2731.629042
2726.398733
2738.222806
2740.815609
2729.192701
2717.167463
2721.99544
2737.060516
2753.980786
2760.887475
2759.948702
2768.755289
2771.035167
2773.806783
2781.83106
2786.949609
2776.176068
2758.339376
2752.304405
2749.108106
2739.385097
2724.0518
2719.335582
2727.426914
2728.455094
2723.15773
2725.102332
2733.66305
2733.305422
2729.460922
2726.465789
2736.009984
2736.34526
2729.393867
2728.477446
2735.875873
2737.932234
2723.649469
2701.968277
2695.195698
2759.92635
2936.169855
3204.547251
3498.495042
3717.497434
3846.60111
3929.7496
3937.528007
3811.777092
3475.092766
2973.921952
2476.282713
2379.343197
2431.132189
2509.855033
2615.914061
2703.868175
2755.612463
2767.458888
2771.236333
2786.524926
2798.348999
2794.280981
2796.851432
2815.828063
2830.826084
2829.082647
2823.271194
2829.820255
2843.946558
2853.624863
2857.245845
2864.644273
2885.185526
2898.104834
2897.322523
2911.180605
2935.320489
2952.352518
2966.635283
2980.582771
3004.677952
3028.594318
3042.31829
3061.987825
3095.314276
3125.198558
3142.722326
3163.420041
3196.902954
3226.161388
3240.265338
3240.66767
3251.530618
3260.717185
3264.76285
3260.91835
3254.905731
3247.127324
3224.507359
3186.375283
3151.685375
3118.068352
3086.351226
3040.083115
2998.061836
2969.339844
2936.48278
2894.617962
2863.303168
2845.622938
2830.490807
2809.927202
2787.351941
2779.774699
2780.713472
2770.610484
2760.239275
2756.551237
2758.138211
2752.527923
2738.803952
2732.925443
2742.380231
2741.262643
2730.645565
2726.86812
2736.099391
2738.669841
2729.326812
2730.243233
2740.234463
2743.52017
2731.673745
2720.944908
2729.751495
2739.072173
2734.266547
2724.387076
2729.997364
2739.80978
2742.268472
2737.440495
2737.865178
2747.476428
2751.924426
2748.638719
2747.252911
2756.506533
2756.707699
2754.316062
2752.818495
2758.540542
2764.173182
2757.020623
2753.77962
2764.195533
2766.654225
2759.702833
2753.086716
2757.86999
2766.296597
2759.144039
2748.214036
2752.058536
2757.62412
2754.494876
2746.068269
2743.810742
2748.124629
2746.202379
2739.921539
2739.273338
2743.073135
2743.430763
2735.875873
2732.746629
2740.346222
2746.515303
2737.127571
2731.98667
2740.010946
2745.151847
2736.546425
2728.075114
2731.025545
2736.233501
2723.314193
2708.494986
2713.03239
2723.627117
2713.993515
2700.627172
2699.241364
2712.451245
2731.629042
2745.017737
2748.415202
2753.511399
2756.551237
2756.394774
2760.328682
2766.229542
2759.79224
2740.390925
2728.857425
2725.951699
2724.901167
2713.971164
2706.080998
2708.003248
2714.351143
2709.858443
2704.874004
2707.846786
2707.064474
2701.185966
2694.793367
2699.174309
2709.612573
2708.29382
2700.671876
2703.219974
2710.126663
2701.968277
2679.281256
2662.495096
2720.363762
2894.84148
3135.525064
3398.560393
3612.801863
3757.372946
3863.342567
3898.010123
3786.787842
3476.076242
3018.088999
2508.737446
2342.373412
2397.82809
2499.863803
2607.57686
2693.921649
2750.940949
2767.280074
2761.915655
2765.670748
2777.964208
2786.882554
2783.507441
2781.495784
2798.907792
2810.66481
2811.648287
2812.117673
2826.735714
2840.303223
2842.069011
2844.170075
2859.816296
2873.920247
2882.41391
2890.639352
2907.827843
2928.503207
2943.210655
2946.496361
2965.942379
2997.301876
3023.788693
3039.904301
3062.166639
3096.588325
3120.504692
3138.944881
3161.564846
3187.828146
3201.909745
3208.078826
3215.253736
3224.552062
3238.119571
3235.660879
3218.76296
3207.631792
3191.203259
3159.664948
3120.99643
3083.937238
3053.829438
3010.534109
2965.361233
2929.106704
2899.512994
2869.315787
2834.916453
2805.523909
2791.464662
2778.075967
2754.271359
2740.32387
2738.826303
2735.182969
2721.682515
2713.54648
2718.508568
2724.923518
2718.620326
2709.746684
2708.830262
2713.188852
2707.377399
2696.447396
2702.728236
2709.679629
2706.595088
2698.056721
2696.983838
2703.085864
2706.908012
2703.667009
2700.023675
2708.182062
2713.010038
2709.344352
2710.528995
2721.347239
2724.700001
2718.888547
2713.233556
2718.039181
2725.661126
2726.041106
2720.96726
2725.102332
2731.472579
2729.460922
2722.12955
2723.91769
2731.696097
2726.264623
2716.22869
2717.234518
2726.48814
2726.555196
2721.794274
2722.822454
2727.695135
2730.042068
2724.007097
2718.016829
2725.83994
2731.427876
2723.135379
2713.390018
2714.708771
2722.084847
2717.614498
2707.846786
2712.428893
2717.458036
2711.020733
2701.521242
2702.90705
2712.026562
2711.244251
2703.152919
2704.874004
2711.8701
2712.965335
2698.794329
2691.775881
2700.962448
2708.517338
2705.455149
2700.515413
2699.844861
2702.01298
2698.414349
2694.83807
2702.929402
2709.612573
2704.874004
2702.303553
2705.365742
2712.786521
2701.141262
2679.616532
2681.449375
2694.815719
2691.060625
2681.471727
2677.448413
2688.445471
2707.109178
2719.804969
2723.828283
2731.137303
2741.262643
2737.75342
2733.953623
2741.933196
2740.368574
2717.569794
2705.008114
2704.806948
2704.114044
2694.368684
2686.724387
2685.405634
2691.462957
2692.468785
2686.523221
2689.250134
2698.123777
2696.827376
2688.55723
2684.355102
2694.033407
2699.598992
2689.183079
2686.165593
2691.75353
2690.457128
2668.463012
2645.284253
2659.72348
2772.398624
2988.607048
3239.952414
3480.52424
3638.12639
3771.454545
3861.397965
3845.260006
3631.912605
3252.648205
2763.145001
2396.174061
2381.064282
2458.669538
2559.431202
2660.058756
2727.136341
2748.01287
2744.101315
2745.531827
2763.726147
2774.298522
2769.112917
2768.196496
2782.591019
2791.710531
2790.123557
2789.788281
2800.874746
2817.146816
2820.723095
2821.17013
2834.447066
2851.680261
2858.542247
2863.727851
2879.485831
2903.402198
2920.478931
2930.179588
2946.272844
2975.06189
3000.006437
3014.847996
3037.691478
3073.07429
3099.33759
3117.643668
3135.435657
3161.631901
3183.760128
3193.885469
3202.982629
3214.650239
3225.379077
3222.47335
3215.343143
3214.292611
3206.424797
3183.760128
3146.164494
3113.866224
3084.004293
3043.614691
2997.34658
2959.795649
2932.370059
2898.507166
2864.890142
2837.95629
2822.868862
2804.182804
2780.04292
2761.602731
2757.847638
2756.215961
2741.21794
2729.237405
2730.019716
2735.83117
2728.455094
2716.3628
2720.140245
2730.220882
2725.437608
2714.172329
2713.211204
2721.190777
2716.005172
2703.979934
2702.817643
2709.076131
2708.6738
2700.023675
2699.57664
2711.847748
2716.519262
2714.105274
2711.668934
2716.87689
2722.934213
2713.188852
2705.20928
2709.56787
2720.2073
2720.766094
2717.659201
2720.453169
2729.863254
2729.550329
2718.888547
2715.088751
2727.270451
2731.204358
2724.94587
2723.53771
2730.153826
2728.544501
2720.58728
2718.396809
2723.470655
2728.723315
2720.162597
2714.261736
2719.916728
2723.649469
2717.279222
2709.411408
2711.311306
2719.335582
2720.095541
2710.417236
2707.332695
2712.250079
2710.752512
2705.276335
2705.432797
2712.406541
2710.908975
2701.476538
2700.671876
2711.177195
2716.385152
2705.633963
2698.839033
2703.465844
2711.467768
2710.484291
2702.683533
2707.176233
2711.981858
2706.282163
2700.381303
2703.04116
2710.394884
2707.042123
2703.756416
2709.634925
2715.7146
2711.937155
2702.90705
2702.817643
2713.390018
2707.176233
2688.17725
2692.088806
2706.192756
2705.611611
2685.070358
2674.363872
2694.368684
2722.598937
2735.160617
2724.0518
2724.990574
2738.669841
2736.501722
2733.193664
2741.128533
2737.462847
2726.286975
2709.05378
2701.074207
2705.835129
2703.890527
2700.671876
2702.750588
2709.813739
2710.305477
2700.358951
2695.754492
2706.460977
2710.730161
2700.202489
2692.982875
2706.662143
2715.982821
2712.89828
2707.735027
2712.89828
2709.590222
2685.472689
2663.05389
2694.636905
2832.725982
3066.681691
3340.602319
3583.454023
3743.000775
3859.185142
3904.469777
3831.178407
3568.321892
3151.171285
2631.739096
2365.842744
2386.696921
2474.248704
2582.118223
2671.413442
2734.333603
2761.647434
2765.022548
2762.206228
2775.997254
2783.105109
2783.350978
2785.519098
2796.82908
2811.447121
2815.448083
2816.409208
2823.740581
2839.87854
2848.908645
2850.115639
2862.967892
2885.49845
2895.690846
2893.030988
2902.239907
2930.425457
2950.251454
2961.09205
2976.71592
3003.493309
3028.460208
3046.855694
3063.708909
3091.179203
3122.382238
3137.424962
3151.171285
3182.150803
3211.498643
3223.322716
3225.580242
3237.516074
3247.417897
3243.551045
3231.771676
3228.2401
3227.770713
3204.949582
3167.622169
3132.462875
3105.350209
3073.141345
3025.018039
2983.734367
2959.68389
2929.799608
2892.02516
2851.948482
2837.4422
2830.110828
2814.330496
2786.390816
2776.109013
2776.690158
2767.078908
2755.679519
2750.628024
2751.075059
2749.28692
2739.943891
2742.424934
2748.191684
2744.146019
2733.864216
2734.512417
2744.146019
2746.738821
2733.707754
2723.381248
2729.550329
2742.871969
2733.081905
2720.386114
2724.320021
2746.068269
2754.964263
2756.171257
2766.788336
2770.81165
2760.95453
2753.667862
2760.641606
2771.884533
2774.477336
2761.580379
2759.859295
2764.843734
2765.335472
2759.993405
2761.222751
2770.94576
2777.919504
2773.203286
2769.090565
2771.32574
2770.744594
2763.972016
2757.378251
2758.741708
2763.703795
2759.613426
2753.287882
2760.462792
2769.984635
2763.212057
2753.13142
2753.64551
2763.837905
2764.486106
2752.349109
2747.297614
2762.36269
2764.15083
2751.85737
2752.662033
2760.462792
2764.15083
2748.951644
2740.569739
2751.924426
2758.38408
2755.210132
2749.577492
2750.024527
2756.327719
2754.740745
2745.420068
2749.577492
2761.2004
2751.142115
2732.746629
2728.455094
2744.727164
2742.447286
2724.521187
2721.570757
2735.004155
2752.863199
2763.39087
2764.016719
2770.632836
2786.726092
2789.967095
2789.587115
2790.369426
2791.44231
2771.772775
2756.439478
2750.650376
2753.824324
2745.867103
2734.624175
2735.160617
2746.403545
2748.795181
2741.307347
2742.290824
2749.80101
2745.554178
2736.99346
2737.462847
2748.504609
2752.662033
2744.190722
2740.346222
2750.851542
2751.678556
2737.239329
2716.22869
2712.920632
2774.767908
2944.082373
3214.449074
3526.367667
3767.051252
3893.472718
3959.835048
3959.298606
3831.558386
3486.112176
2992.898583
2502.568364
2406.612326
2448.208922
2524.718943
2631.53793
2726.979879
2781.339321
2800.338304
2809.413112
2824.411133
2837.263386
2837.039868
2837.129275
2841.823142
2852.842552
2855.413002
2860.285683
2874.434337
2888.381825
2893.43332
2894.036817
2906.933773
2926.200977
2932.370059
2930.268995
2943.523579
2968.535181
2987.958847
3000.386417
3014.468016
3040.753667
3067.151078
3085.591267
3107.585383
3136.709706
3166.772803
3185.592972
3204.860175
3232.196359
3256.358594
3268.383833
3277.592752
3288.433348
3299.676275
3300.369179
3290.802633
3283.225391
3278.799746
3259.599597
3225.826112
3193.192565
3162.458916
3126.092628
3078.97515
3040.932481
3008.634211
2975.486574
2940.46139
2903.871584
2886.638389
2872.914418
2846.986395
2825.081685
2819.829025
2816.968002
2801.835871
2788.178955
2791.285848
2791.866993
2782.926295
2778.143022
2774.365577
2776.332531
2777.695987
2768.867048
2767.972978
2770.29756
2767.145964
2763.234408
2763.904961
2769.045862
2770.543429
2762.87678
2757.355899
2766.72128
2776.354882
2771.884533
2766.497763
2775.661978
2785.787318
2780.892286
2766.765984
2770.968112
2782.881592
2783.060406
2777.561876
2782.613371
2791.777586
2789.631818
2781.026397
2785.116766
2794.504499
2792.157566
2782.99335
2782.233391
2787.73192
2788.469528
2780.601714
2777.494821
2781.361673
2783.015702
2773.426804
2770.766946
2776.176068
2782.099281
2775.013778
2769.582304
2771.97394
2776.377234
2768.062385
2755.835981
2754.941911
2764.016719
2764.66492
2755.70187
2752.729088
2761.021586
2760.932179
2752.997309
2753.042013
2758.093507
2762.653263
2759.144039
2755.679519
2758.294673
2758.875818
2750.583321
2744.570702
2751.20917
2757.244141
2750.583321
2741.754382
2740.457981
2742.693155
2735.942928
2730.869082
2735.652356
2740.212111
2730.623213
2719.201472
2730.176178
2760.887475
2777.383063
2763.524981
2762.161525
2777.539525
2791.44231
2790.727054
2787.620161
2784.714435
2773.516211
2758.317025
2744.280129
2743.184894
2745.598882
2736.635832
2728.924481
2736.658184
2744.213074
2744.101315
2729.840902
2730.265585
2740.413277
2741.73203
2734.355954
2735.093562
2745.554178
2744.92833
2737.731068
2734.825341
2735.361783
2721.302536
2698.995495
2743.363707
2924.5693
3180.228553
3441.408687
3638.305204
3779.210601
3902.145195
3942.043059
3819.600203
3512.598993
3070.034453
2563.253351
2388.060378
2444.185608
2550.155228
2662.360986
2736.121742
2777.763042
2796.516156
2798.013723
2796.046769
2793.029284
2803.378141
2811.670639
2816.342153
2817.83972
2833.5977
2845.421773
2843.298357
2841.2867
2858.408136
2873.383805
2876.200125
2876.468346
2889.342951
2908.453692
2916.477968
2922.736457
2937.376849
2958.856876
2977.207658
2992.384492
3016.323211
3045.894569
3067.911037
3085.926543
3108.010067
3145.069259
3171.824297
3188.14107
3200.769806
3222.205129
3245.495647
3254.793972
3257.699699
3265.567513
3269.814345
3260.068984
3241.606443
3223.523882
3199.898088
3163.040061
3122.762218
3088.653456
3054.87997
3012.657525
2965.540047
2930.33605
2904.609192
2880.022273
2846.405249
2820.700743
2809.480168
2801.724112
2786.815499
2771.281036
2766.609522
2764.731975
2749.42103
2736.613481
2739.362745
2744.54835
2743.497818
2731.7408
2728.969184
2732.903091
2730.422047
2720.386114
2719.156768
2729.058591
2737.194626
2729.036239
2726.957527
2735.674707
2738.91571
2730.086771
2727.181044
2733.52894
2739.67567
2739.563911
2734.42301
2738.021641
2747.409373
2744.570702
2737.641661
2743.050783
2752.483219
2749.845713
2739.452152
2741.59792
2755.478353
2754.584283
2745.44242
2743.251949
2748.01287
2749.733955
2742.849617
2743.900149
2751.85737
2754.718394
2748.124629
2741.307347
2747.722298
2752.483219
2743.475466
2735.45119
2735.562949
2743.676632
2745.174199
2740.525036
2744.213074
2749.42103
2744.391888
2735.808818
2736.501722
2742.916673
2739.116876
2727.516321
2722.867158
2734.646527
2737.015812
2731.0926
2725.124684
2725.661126
2734.154789
2730.489103
2726.845768
2731.427876
2733.394829
2724.163559
2719.223823
2730.176178
2739.027469
2732.701925
2718.419161
2720.900204
2720.319059
2713.725294
2708.830262
2712.5183
2719.581451
2717.279222
2710.841919
2727.851597
2759.971054
2764.888437
2753.64551
2755.880684
2769.068214
2777.114842
2764.15083
2750.873894
2751.946777
2750.248045
2735.093562
2721.503701
2722.911861
2728.566853
2721.794274
2710.014905
2710.238422
2715.513434
2715.088751
2710.327829
2709.813739
2715.379323
2719.134416
2707.891489
2705.812777
2717.167463
2721.928385
2716.496911
2711.065437
2708.338524
2696.939134
2707.220937
2823.315897
3056.623406
3318.228223
3542.103296
3686.272047
3822.461226
3905.185033
3854.759497
3603.570593
3214.761998
2722.911861
2400.77852
2395.883488
2485.893963
2611.846043
2703.219974
2754.494876
2778.746519
2791.107034
2795.689141
2786.547278
2789.453005
2805.233336
2816.856243
2815.470435
2818.152644
2831.362525
2838.492732
2837.196331
2840.504389
2855.010671
2870.455726
2879.888163
2882.100985
2896.204936
2914.019276
2924.993983
2930.783085
2943.702393
2972.782013
2993.435024
3006.175519
3024.012211
3052.778906
3079.399834
3093.727302
3117.107227
3151.573616
3183.916591
3197.461748
3207.587088
3226.094332
3240.935891
3247.104972
3249.586016
3255.576283
3259.465487
3240.377097
3217.22069
3202.960277
3182.575486
3144.130486
3089.279305
3046.587473
3020.771208
2982.750891
2935.499303
2895.981419
2875.283703
2856.508238
2821.706572
2797.231412
2789.095377
2778.947685
2761.33451
2746.068269
2744.324832
2744.391888
2735.495893
2725.482312
2728.320983
2735.115914
2726.801065
2717.525091
2722.576585
2730.533806
2726.73401
2718.642678
2717.145111
2722.777751
2725.996402
2721.23548
2721.548405
2728.768018
2728.320983
2722.017792
2721.838978
2730.422047
2733.595995
2724.208262
2720.609632
2728.499797
2735.317079
2729.483274
2721.146073
2728.499797
2738.245158
2734.892396
2725.169387
2729.751495
2743.65428
2739.899187
2733.819513
2733.193664
2737.686364
2737.775771
2731.360821
2730.869082
2743.14019
2747.610539
2736.725239
2728.052763
2736.836998
2740.547388
2728.41039
2719.916728
2723.090675
2728.924481
2723.91769
2715.938117
2714.597012
2723.291841
2720.810797
2716.183986
2716.720428
2722.241309
2719.849672
2709.277297
2712.272431
2725.929347
2724.230614
2716.049876
2713.747646
2723.560062
2726.465789
2721.593108
2715.535786
2724.118855
2726.108161
2720.408466
2716.027524
2720.184948
2727.359858
2719.022658
2705.186928
2703.04116
2715.312268
2714.82053
2701.789463
2697.27441
2707.533861
2725.527015
2736.278204
2742.268472
2745.420068
2748.415202
2748.124629
2753.354937
2765.603693
2762.496801
2740.390925
2727.091638
2725.661126
2722.308364
2709.098483
2699.330771
2707.623268
2714.149977
2712.026562
2707.556213
2711.266602
2715.558137
2713.859405
2706.75155
2708.6738
2716.206338
2716.318097
2708.494986
2708.718504
2717.838015
2713.747646
2697.497928
2679.482422
2679.907105
2751.365632
2937.488608
3197.774672
3458.127792
3638.528721
3762.625606
3853.977186
3867.499991
3700.085425
3348.872465
2882.145689
2456.948454
2381.980703
2437.055401
2540.320461
2651.498038
2733.461885
2772.309217
2776.824269
2778.411243
2790.794109
2792.939877
2785.966132
2792.537545
2806.574441
2817.683258
2818.040886
2815.045752
2825.461665
2838.47038
2843.611281
2852.060241
2863.638444
2879.038796
2885.699616
2891.756939
2910.286535
2934.269957
2947.681004
2954.699451
2976.492402
3003.76153
3025.934461
3039.032583
3062.43486
3092.16268
3115.877881
3131.859378
3154.412288
3185.615323
3205.016637
3213.331486
3223.836806
3241.941719
3253.788144
3252.33528
3240.242987
3240.041821
3237.538426
3213.197376
3180.742643
3151.975948
3124.528006
3085.904191
3036.439781
2995.401978
2967.61876
2936.728649
2898.82009
2872.0427
2855.323595
2833.843569
2804.182804
2786.614333
2786.033188
2783.932124
2768.397661
2759.971054
2762.36269
2763.368519
2754.383117
2744.771867
2749.93512
2758.249969
2752.416164
2745.777696
2745.889455
2751.969129
2752.818495
2741.329699
2740.748553
2749.733955
2750.806838
2742.916673
2742.089658
2749.376327
2751.589149
2745.509475
2746.783524
2759.41226
2769.02351
2765.17901
2758.182914
2765.17901
2773.091528
2766.117783
2758.093507
2759.814591
2769.425842
2771.549257
2767.458888
2768.755289
2772.018644
2764.039071
2750.873894
2756.573588
2759.859295
2760.95453
2754.316062
2754.763097
2776.511344
2780.780528
2753.712565
2744.436591
2744.92833
2752.23735
2749.778658
2748.90694
2754.114897
2758.182914
2754.651338
2749.733955
2750.918597
2753.846676
2753.824324
2749.175161
2752.818495
2758.585245
2757.065327
2750.471562
2749.845713
2758.89817
2756.573588
2745.017737
2743.698984
2752.818495
2759.479315
2752.438516
2750.762135
2755.925388
2762.027414
2745.710641
2733.819513
2742.089658
2746.336489
2736.121742
2729.505626
2735.272376
2752.37146
2770.074042
2773.136231
2774.678501
2786.435519
2788.49188
2786.659036
2791.308199
2799.041903
2790.123557
2771.593961
2762.832077
2759.658129
2762.653263
2753.556103
2745.598882
2755.299539
2759.92635
2752.326757
2744.995385
2748.504609
2758.093507
2755.791277
2749.666899
2751.231522
2764.910789
2761.356862
2748.52696
2750.896245
2760.149868
2757.355899
2739.340393
2727.672783
2768.464716
2908.163119
3148.086744
3436.06662
3681.68994
3826.395133
3905.565012
3919.646611
3819.242575
3520.064476
3079.802165
2566.851982
2382.204221
2425.678364
2511.754931
2624.899462
2726.711658
2794.504499
2817.370333
2815.761008
2830.26729
2851.210874
2854.74245
2851.344985
2859.190447
2873.406157
2881.475136
2879.508183
2888.672398
2908.900727
2918.623736
2916.701486
2926.737419
2947.077506
2959.840353
2958.946283
2965.271826
2986.953019
3007.293106
3019.877138
3031.254176
3054.991729
3082.886706
3101.237488
3116.660192
3142.230587
3173.388919
3194.600725
3209.53169
3231.19053
3261.320682
3280.721996
3290.221487
3305.912412
3319.2117
3328.68884
3324.419656
3307.81231
3303.96781
3293.171918
3263.309987
3229.536501
3204.971934
3179.356835
3132.552282
3086.820613
3059.819705
3037.467961
3002.867461
2955.817039
2932.481817
2932.012431
2912.901689
2888.650046
2871.349796
2871.260389
2864.085479
2849.690956
2839.722078
2843.834799
2847.075802
2835.408191
2828.769723
2839.476209
2843.745392
2838.582139
2827.987412
2829.932014
2835.363488
2828.501502
2822.645345
2832.368354
2846.53936
2847.992223
2834.603528
2834.961156
2843.365412
2839.722078
2832.010726
2841.174941
2857.245845
2864.890142
2857.469363
2855.725927
2862.364395
2865.806564
2858.989282
2856.798811
2864.286645
2867.102965
2860.956235
2857.737584
2868.466421
2875.283703
2868.309959
2860.442145
2857.424659
2862.096174
2863.32552
2856.888218
2857.782287
2858.028157
2848.707479
2844.728869
2846.181732
2852.730793
2852.663738
2847.299319
2843.007784
2848.305148
2846.740526
2840.079706
2838.805656
2849.646252
2857.469363
2850.473267
2843.812447
2848.729831
2857.04468
2847.299319
2830.200235
2823.919394
2832.18954
2836.190502
2824.522892
2820.007839
2822.488883
2829.708496
2835.564653
2843.410116
2855.860037
2860.039814
2852.328462
2856.15061
2868.444069
2876.222477
2877.585933
2870.343968
2862.722023
2851.680261
2836.525778
2828.903833
2829.261461
2832.56952
2829.440275
2824.947575
2834.737639
2844.505351
2834.335307
2820.723095
2827.003935
2846.896988
2846.15938
2842.583101
2839.409153
2847.589892
2851.233226
2833.284775
2825.484017
2819.672563
2838.33627
2950.877303
3186.5988
3511.190833
3801.160014
3973.491964
4040.346031
4055.3217
3974.922475
3682.315789
3215.879585
2666.183134
2449.728841
2474.315759
2534.4196
2639.696317
2755.500705
2830.334345
2867.30413
2890.527593
2920.255413
2935.678117
2932.146541
2933.778218
2948.709184
2963.170762
2960.779126
2956.666405
2971.954998
2992.540955
2987.73533
2985.544859
3002.59924
3021.665278
3030.53892
3031.544749
3043.212359
3062.121935
3074.48245
3086.91002
3106.199575
3131.725267
3154.032308
3168.806811
3193.527841
3222.115722
3251.68708
3264.271112
3285.482917
3314.584889
3335.684936
3353.588683
3359.82482
3370.330139
3383.249448
3386.781023
3382.467137
3384.747015
3381.818936
3354.862732
3318.407037
3291.473185
3261.074813
3222.585109
3174.03712
3132.731096
3111.541642
3077.29877
3035.590414
2999.984086
2979.979274
2960.57796
2935.07462
2912.78993
2908.565451
2905.145634
2887.331294
2871.685072
2870.835706
2878.032968
2866.812392
2851.166171
2846.807581
2854.809505
2849.176866
2841.934901
2844.527703
2853.557808
2849.556845
2832.994203
2834.804694
2841.823142
2841.353755
2843.72304
2846.002918
2854.585988
2857.916398
2854.653043
2851.389688
2858.274026
2865.650101
2860.710366
2858.765764
2866.298302
2873.383805
2876.244828
2872.914418
2875.75309
2884.067939
2883.285628
2873.227343
2876.423642
2886.057244
2889.58882
2878.524706
2873.629674
2878.70352
2874.702558
2866.253598
2865.918322
2868.444069
2871.796831
2865.024253
2863.794907
2869.315787
2871.170982
2862.453802
2853.110773
2855.167133
2857.379956
2856.351776
2845.667642
2841.957252
2849.713308
2850.696784
2843.968909
2846.226435
2848.439258
2837.799828
2831.273118
2846.114677
2871.148631
2876.915381
2865.292473
2861.202104
2875.015482
2889.186488
2891.622828
2889.342951
2891.354608
2886.012541
2865.046604
2852.999014
2857.759936
2860.263331
2858.788116
2852.216703
2859.838648
2867.30413
2859.391613
2847.008747
2854.138953
2859.704537
2857.625825
2852.641386
2851.568502
2859.458668
2866.879447
2860.665662
2852.127296
2849.713308
2834.648232
2828.233281
2917.774369
3141.135352
3445.856684
3735.557644
3927.849701
4042.00006
4103.199137
4065.335282
3864.616616
3469.348367
2933.867625
2533.7714
2498.857975
2551.697499
2654.873151
2770.409318
2849.154514
2892.069863
2921.976497
2928.190282
2925.239852
2932.861797
2949.446791
2964.333053
2959.326262
2956.822867
2968.445774
2984.427271
2987.020074
2988.852917
3002.934516
3015.02681
3020.41358
3027.297917
3042.206531
3062.345453
3076.963493
3081.27738
3091.894459
3119.096532
3140.59891
3153.875846
3175.557038
3205.374265
3229.447094
3246.389716
3271.893057
3307.544089
3334.790866
3345.497351
3357.276721
3379.650817
3398.113358
3400.013256
3400.236774
3405.154157
3403.477776
3391.050207
3366.932674
3342.390459
3317.624726
3280.342016
3225.334373
3184.430681
3155.552227
3116.704895
3068.939217
3034.830455
3014.624478
2989.568173
2957.068736
2936.058096
2923.563471
2912.968744
2899.155366
2887.778328
2889.521764
2890.885221
2879.843459
2869.785174
2869.673415
2873.786136
2867.214723
2856.329424
2858.095212
2861.827953
2859.838648
2853.513104
2854.384822
2861.604436
2862.677319
2854.74245
2852.015537
2863.370223
2867.415889
2859.257502
2852.864904
2860.866828
2868.377014
2864.465459
2861.492677
2872.690901
2881.721006
2879.888163
2870.791003
2873.920247
2887.353645
2884.045587
2873.920247
2882.928
2898.887145
2891.555773
2878.70352
2876.26718
2883.509145
2881.810413
2872.176811
2871.729776
2879.552886
2878.256485
2872.579142
2869.874581
2876.803622
2876.825974
2868.265255
2861.738546
2867.237075
2872.400328
2862.856133
2848.618072
2853.066069
2863.347872
2852.261406
2832.167188
2826.869825
2839.36445
2841.42081
2831.384877
2827.741543
2828.412095
2829.082647
2827.920357
2837.263386
2850.38386
2855.144781
2849.847418
2856.597645
2874.188468
2881.273971
2867.214723
2846.964043
2842.136066
2840.504389
2829.104999
2818.35381
2817.571499
2820.924261
2815.850415
2812.564708
2814.755179
2824.902871
2827.294508
2820.14195
2820.946612
2829.686145
2830.311993
2822.533586
2821.997144
2830.446104
2835.944633
2819.002011
2802.484072
2794.39274
2829.328517
2970.815059
3218.919422
3516.175272
3765.218409
3905.497957
4007.623077
4052.974767
3976.509449
3688.328408
3233.895091
2695.374512
2470.180687
2501.87546
2579.793642
2694.256925
2796.31499
2857.268197
2874.143764
2877.652988
2884.023235
2891.555773
2889.655875
2897.188413
2916.030933
2926.11157
2924.658707
2926.871529
2940.550797
2952.419573
2954.43123
2951.413745
2959.840353
2983.153222
2998.531222
3003.180385
3011.472882
3033.668164
3045.581644
3052.823609
3073.253104
3103.740883
3125.779703
3139.32486
3161.274274
3195.584201
3226.094332
3244.668632
3263.198228
3293.238973
3320.664563
3334.410886
3342.904549
3358.215494
3370.911285
3370.911285
3360.830648
3353.655738
3350.548846
3329.269985
3290.266191
3255.509228
3225.379077
3183.581315
3129.71361
3089.703988
3062.010176
3026.403848
2982.303856
2951.905483
2932.481817
2914.756884
2888.046549
2868.444069
2867.259427
2864.376052
2848.08163
2833.463589
2831.943671
2838.246863
2826.489845
2814.151682
2818.510272
2824.947575
2821.55011
2812.609412
2813.391723
2821.281889
2826.512197
2819.38199
2817.370333
2821.371296
2819.76197
2810.016609
2807.312048
2811.715342
2818.711438
2817.571499
2811.447121
2819.359639
2831.496636
2828.277985
2824.858168
2828.009764
2832.18954
2833.240072
2830.870787
2833.351831
2839.811485
2838.492732
2825.640479
2824.478188
2837.509255
2840.370278
2833.240072
2831.16136
2840.347927
2841.510217
2829.082647
2823.002973
2827.294508
2829.37322
2822.555938
2815.78336
2824.947575
2831.250767
2823.98645
2816.588022
2821.572461
2829.708496
2828.367392
2817.929127
2818.063237
2829.261461
2825.729886
2816.699781
2816.073932
2818.2197
2821.393647
2816.29745
2816.409208
2820.991316
2820.991316
2814.621069
2810.106016
2809.167243
2809.949554
2805.546261
2803.512252
2802.59583
2795.845603
2795.555031
2802.931106
2829.37322
2846.829933
2838.0904
2831.764857
2842.963081
2854.943616
2848.908645
2835.855226
2821.997144
2827.898005
2821.393647
2803.847528
2791.196441
2792.381083
2793.610429
2783.462737
2775.103185
2782.143984
2789.587115
2783.686254
2781.160507
2789.698874
2792.157566
2789.251839
2782.47926
2783.507441
2788.313066
2789.028321
2779.193554
2769.761118
2767.548295
2752.147943
2773.516211
2921.618869
3173.165402
3435.485475
3644.429582
3785.513793
3925.033382
3995.240211
3913.209309
3636.941747
3222.361591
2705.432797
2428.114704
2453.461582
2559.118278
2686.836146
2763.994368
2804.652191
2833.329479
2848.819238
2851.27793
2847.880465
2853.110773
2866.298302
2872.132107
2870.612189
2881.788061
2896.651971
2901.524651
2898.842442
2906.687904
2930.023125
2945.043498
2944.037669
2947.077506
2960.44385
2978.146431
2987.891792
2996.027827
3017.239632
3041.223054
3056.42224
3069.050976
3091.045092
3123.522177
3149.114925
3170.729061
3199.786329
3227.949527
3243.148713
3257.945568
3276.631627
3300.771511
3317.624726
3320.843377
3324.285546
3329.85113
3322.385648
3302.447892
3281.057272
3262.818249
3231.481103
3184.877716
3139.615433
3106.579555
3075.085947
3027.633193
2985.209582
2958.767469
2931.721858
2907.425512
2872.288569
2854.116601
2852.037889
2839.297395
2817.415037
2811.089493
2816.140987
2809.949554
2792.358731
2790.92822
2800.740635
2802.506423
2794.280981
2788.380121
2794.571554
2799.466586
2788.536583
2781.764004
2792.246973
2795.823252
2789.050673
2787.441348
2792.33638
2801.746464
2799.980676
2794.25863
2796.806728
2804.853356
2800.092435
2789.475356
2792.783414
2799.958324
2803.825176
2797.879612
2793.990409
2801.478243
2802.953458
2801.992333
2802.484072
2808.317877
2812.363543
2805.725074
2801.366484
2807.088531
2820.521929
2819.873729
2813.794054
2811.111845
2814.933993
2812.676467
2801.210022
2800.472415
2810.106016
2806.082702
2798.147833
2798.974848
2800.02538
2796.918487
2785.273228
2785.966132
2793.163394
2795.644438
2787.508403
2783.619199
2788.402473
2791.665827
2787.240182
2781.384025
2791.039978
2797.164356
2792.85047
2781.31697
2780.758176
2785.474394
2782.501612
2773.806783
2773.717376
2785.943781
2787.866031
2780.132327
2775.885496
2773.225638
2771.817478
2766.520115
2762.496801
2767.637702
2774.365577
2767.213019
2774.097356
2799.757159
2816.81154
2810.441293
2810.240127
2817.951479
2830.535511
2831.273118
2821.17013
2813.525833
2815.649249
2802.148795
2783.798013
2781.384025
2785.116766
2782.702778
2774.052653
2770.43167
2774.298522
2779.305313
2770.610484
2772.599789
2782.211039
2784.513269
2777.114842
2769.336435
2776.086661
2786.636685
2780.154679
2772.443327
2774.052653
2771.661016
2750.538617
2741.240292
2830.64727
3050.230807
3304.548956
3539.778714
3703.885222
3848.38925
3955.565865
3949.910873
3753.595502
3399.722683
2924.122265
2494.029998
2441.235178
2534.173731
2651.542741
2742.089658
2803.176976
2839.36445
2852.864904
2849.914473
2845.242959
2854.630691
2868.377014
2870.321616
2872.445032
2879.396424
2895.936715
2901.502299
2898.060131
2905.793834
2921.060076
2933.130018
2938.315623
2947.569245
2966.992911
2980.515716
2987.176536
2995.714902
3018.49133
3041.133647
3053.315348
3062.345453
3091.089796
3120.839968
3140.353041
3158.882637
3187.783442
3221.713391
3243.014603
3254.950435
3278.419766
3300.995028
3313.199081
3318.652906
3329.761723
3343.977433
3343.910377
3323.413828
3303.945458
3289.506231
3264.829906
3222.763923
3177.993378
3144.376355
3113.285078
3069.050976
3021.687629
2996.161937
2973.51962
2941.221349
2908.721913
2894.305038
2886.90661
2867.214723
2847.344023
2842.493694
2844.840627
2838.358621
2824.589947
2821.17013
2829.015592
2826.646307
2813.905813
2809.569575
2819.225528
2824.232319
2817.83972
2814.241089
2823.941746
2825.886348
2819.62786
2815.91747
2823.047676
2830.446104
2821.393647
2817.057409
2821.840682
2827.518025
2822.533586
2813.347019
2821.326592
2829.417924
2830.066124
2822.958269
2821.30424
2831.943671
2834.11179
2830.64727
2831.876616
2837.464552
2841.733735
2835.564653
2830.423752
2837.151627
2843.946558
2834.447066
2829.082647
2836.369316
2845.622938
2839.923244
2829.999069
2832.681278
2840.951424
2836.793999
2827.719191
2827.182749
2837.06222
2838.135104
2832.547168
2830.423752
2836.369316
2836.056392
2825.305203
2819.717267
2830.78138
2834.558825
2819.940784
2815.693953
2827.607432
2834.335307
2823.271194
2817.437389
2826.132217
2833.865921
2831.630746
2821.483054
2824.209967
2835.564653
2832.346002
2821.103075
2824.388781
2835.922281
2833.485941
2825.931051
2821.192482
2829.932014
2832.010726
2822.824159
2820.209005
2828.389743
2832.770685
2823.584118
2811.000086
2816.833891
2829.462627
2826.691011
2816.275098
2812.363543
2820.857205
2839.587967
2850.562674
2858.832819
2868.287607
2867.281779
2864.21959
2876.960084
2885.029064
2875.484869
2856.53059
2848.863941
2853.669566
2850.115639
2833.687107
2824.858168
2828.47915
2826.758066
2823.561767
2818.622031
2827.205101
2833.418886
2827.048639
2817.571499
2823.22649
2832.882444
2831.429581
2821.840682
2822.891214
2830.110828
2832.904796
2819.538453
2804.00399
2793.208098
2805.345095
2918.355515
3144.3093
3417.224099
3654.890198
3796.376741
3927.112094
4018.866005
3980.48806
3734.171836
3336.51195
2844.460648
2514.280679
2507.150472
2588.35436
2707.600916
2817.079761
2874.747261
2890.773462
2898.17189
2906.263221
2906.598497
2901.949334
2909.504224
2926.335088
2932.191245
2927.877358
2932.303003
2948.753887
2964.42246
2966.165896
2973.229047
2989.568173
3002.889812
3009.662391
3013.328077
3024.347487
3046.609824
3057.472772
3068.7157
3089.927505
3114.089741
3129.378334
3140.621262
3166.772803
3201.038027
3224.596766
3245.450943
3271.490725
3302.850223
3321.402171
3334.45559
3349.274796
3368.720814
3379.539058
3376.387462
3372.52061
3379.94139
3375.783965
3354.214532
3324.620822
3299.497461
3271.870705
3229.871777
3183.357797
3146.611529
3116.570785
3074.527153
3031.611804
3009.304763
2991.244553
2960.510905
2931.23012
2916.187396
2912.208785
2898.998904
2881.452785
2879.508183
2883.732663
2876.870677
2866.722985
2857.379956
2863.437279
2870.50043
2863.571389
2858.989282
2864.912494
2868.466421
2860.866828
2860.665662
2867.952331
2873.674378
2867.102965
2858.251674
2859.413965
2866.991206
2867.326482
2862.096174
2857.402308
2865.76186
2867.885276
2862.051471
2866.052433
2880.782232
2884.537325
2878.256485
2873.339101
2875.306055
2882.503317
2880.536363
2875.775442
2881.922171
2889.655875
2886.683093
2875.216648
2876.848325
2881.832764
2883.755014
2876.088366
2881.564543
2887.867735
2879.061148
2868.309959
2861.000939
2872.355625
2869.673415
2862.900837
2866.924151
2874.233171
2867.795869
2863.772555
2863.437279
2871.550962
2879.575238
2874.814317
2869.60636
2865.806564
2872.623846
2871.170982
2867.751165
2870.031043
2867.997035
2860.88918
2855.077726
2861.827953
2873.406157
2875.551924
2868.555828
2867.773517
2878.882334
2883.643256
2874.993131
2869.941636
2881.184564
2878.368244
2875.551924
2878.278837
2887.4207
2886.593686
2877.094195
2870.075747
2876.624808
2877.16125
2865.203066
2853.669566
2862.230284
2869.047567
2867.281779
2853.110773
2863.45963
2897.590744
2912.365247
2905.659724
2904.519785
2921.507111
2930.179588
2919.338992
2914.086332
2908.118416
2903.223384
2888.001846
2875.261351
2880.558715
2881.318674
2867.17002
2852.350813
2861.515029
2871.327444
2868.57818
2863.973721
2860.88918
2866.298302
2866.544171
2863.124354
2865.046604
2871.618017
2873.96495
2863.526686
2860.240979
2863.794907
2860.173924
2838.380973
2815.805711
2871.282741
3042.362993
3303.8337
3603.078854
3847.852808
3993.876755
4073.247799
4066.274055
3951.542551
3647.961157
3200.590992
2689.786576
2527.065876
2564.706214
2648.771125
2755.18778
2846.941691
2914.980401
2940.595501
2938.852064
2943.322413
2965.31653
2971.798536
2967.283483
2971.552667
2979.80046
2994.15028
2999.112368
2996.608972
3011.361123
3031.05301
3040.708964
3043.726449
3055.885798
3074.795374
3083.356092
3089.34636
3109.507633
3130.339459
3143.281119
3149.025518
3172.047814
3206.491853
3227.010754
3241.092353
3267.020377
3299.519813
3329.71702
3335.751991
3353.387517
3388.949143
3415.480663
3425.583652
3426.209501
3447.041326
3458.686585
3452.405745
3443.308585
3432.73621
3415.994753
3390.603172
3352.78402
3322.944441
3292.9484
3253.944606
3207.520033
3172.76307
3148.511427
3117.15193
3082.998464
3055.058784
3042.362993
3033.042316
3008.567155
2988.852917
2985.56721
2984.963713
2973.296103
2958.432193
2958.879228
2958.678062
2950.430268
2942.517751
2947.278672
2953.134829
2947.412783
2939.880245
2939.142637
2946.786934
2949.513847
2940.528445
2936.48278
2941.467219
2945.535236
2947.323376
2947.792762
2954.274768
2953.648919
2948.083335
2949.133867
2961.069698
2976.067719
2968.468126
2961.85201
2969.563361
2978.057024
2972.804364
2963.215466
2968.937513
2976.045367
2963.573094
2953.112477
2963.349576
2973.810193
2978.615818
2971.753832
2972.200867
2977.23001
2976.291236
2970.122155
2968.512829
2973.586675
2979.465184
2977.140603
2966.903504
2963.930722
2971.239742
2976.224181
2972.513792
2977.945266
2979.196963
2968.177553
2956.845219
2963.506039
2971.396204
2975.330111
2966.992911
2963.52839
2965.875324
2963.751908
2959.370966
2955.817039
2966.165896
2977.386472
2969.697472
2961.09205
2972.066757
2973.631379
2961.963768
2959.750946
2969.29514
2977.632341
2977.989969
2962.075527
2962.12023
2972.916123
2965.227123
2954.095954
2950.743193
2960.242684
2977.833507
2992.384492
2993.412673
2999.313533
3012.322248
3010.80233
3014.758589
3031.05301
3034.294013
3010.489405
3003.24744
2995.893716
2984.784899
2978.861687
2978.437004
2977.833507
2984.114347
2983.063815
2978.3923
2984.91901
2985.880135
2984.091995
2974.92778
2980.985103
2994.127929
2993.725597
2985.030769
2986.260114
2997.011304
2993.278562
2983.734367
2969.518658
2969.764527
2962.187286
3002.196908
3178.663931
3467.292007
3793.962752
4055.522866
4182.883106
4257.359118
4245.356231
4110.731675
3755.137772
3243.729859
2733.417181
2633.97427
2664.774974
2730.06442
2838.716249
2936.61689
2993.479728
3041.111295
3074.057767
3082.350264
3076.292941
3073.789546
3090.329837
3105.23845
3106.311334
3104.59025
3122.046962
3132.261709
3138.542549
3143.348174
3166.728099
3184.050701
3186.352931
3183.313094
3197.864079
3216.460731
3224.373248
3236.487894
3259.331376
3282.174859
3301.620877
3321.625688
3343.977433
3372.855887
3403.321314
3419.347515
3441.073411
3467.739042
3493.130623
3508.97801
3526.345316
3544.606691
3557.168371
3558.800049
3560.789354
3565.617331
3569.260665
3544.919615
3506.139339
3481.954751
3456.540818
3414.050152
3363.266988
3326.38661
3298.938668
3262.505324
3215.164329
3174.417099
3152.735907
3126.696125
3097.437691
3082.953761
3070.25797
3055.148191
3037.937348
3019.027772
3023.185196
3030.896548
3021.486464
3012.165786
3014.624478
3016.345562
3015.049161
3007.158996
3000.744045
3007.47192
3002.375722
2990.618705
2987.310646
2995.357274
2996.787786
2983.51085
2987.042426
3004.499138
3014.736237
3009.237708
3006.287277
3014.847996
3020.659449
3012.612821
3006.980182
3020.592394
3038.697307
3036.529188
3025.15215
3026.247385
3032.908205
3032.349412
3024.369839
3033.48935
3043.435877
3035.880987
3029.153112
3036.126856
3047.816819
3042.921787
3035.79158
3032.885853
3042.31829
3041.200702
3033.22113
3025.688592
3030.695382
3030.874196
3021.151188
3012.232842
3016.56908
3015.876176
3011.249365
3011.048199
3018.245461
3020.637097
3013.819815
3004.14151
3004.901469
3008.813025
3001.012266
2984.583734
2989.456414
2997.190118
2990.641056
2977.855859
2977.945266
3000.073493
3016.077342
3015.518548
3008.187176
3016.56908
3026.716772
3030.784789
3033.399944
3043.458229
3039.814894
3024.883929
3006.667257
3001.146376
3004.320324
2998.218298
2982.750891
2981.789766
2992.362141
2990.909277
2991.848051
2993.457376
2998.397112
2991.870402
2983.175574
2981.901524
2995.804309
3002.554536
2998.039484
2991.356312
2996.117234
2993.993818
2975.732443
2954.94532
2961.360271
3066.145249
3291.942572
3605.403436
3912.024666
4107.893003
4215.002562
4271.753642
4245.445638
4046.112781
3630.973832
3058.925636
2675.48146
2669.178268
2723.761228
2809.860147
2911.046494
2989.568173
3030.985955
3044.598167
3051.817781
3064.915903
3070.280322
3070.682653
3071.040281
3085.255991
3099.784625
3100.164604
3099.717569
3107.451273
3119.565918
3127.254918
3133.424
3150.72425
3170.952579
3180.742643
3180.899105
3190.420948
3215.343143
3231.302289
3239.661841
3260.27015
3287.829851
3314.964868
3331.907491
3353.454572
3384.188221
3415.368905
3435.194902
3453.769201
3486.246286
3515.616478
3527.507606
3534.458999
3543.220883
3553.860313
3547.579473
3535.665993
3528.804008
3515.616478
3488.704978
3447.913044
3406.696428
3372.744128
3328.599433
3279.35854
3234.655051
3201.708579
3163.15182
3119.878843
3092.29679
3081.120918
3065.675863
3042.228883
3022.872272
3019.541862
3018.334868
3008.321286
2992.630362
2992.540955
2995.446681
2989.65758
2981.610952
2982.505021
2987.310646
2980.783937
2969.004568
2971.776184
2977.453527
2974.92778
2966.836449
2965.31653
2971.932646
2981.387434
2973.720786
2968.26696
2976.648864
2982.549725
2980.850992
2979.196963
2985.857783
2993.770301
2989.746987
2978.951094
2983.667312
2996.385455
2998.732388
2991.758644
2998.687684
3008.36599
3008.768321
2997.100711
2993.703245
3005.124987
3004.543841
2993.882059
2990.417539
3003.739179
3005.661429
2997.279524
2992.429196
2993.949115
2997.748911
2991.870402
2984.807251
2994.194984
2998.195946
2989.367007
2977.498231
2981.767414
2995.960772
2992.004513
2981.298027
2980.739234
2986.885963
2985.276638
2975.397167
2974.659559
2984.315513
2988.696455
2976.112422
2974.726614
2982.192097
2983.622609
2974.123117
2962.544914
2958.901579
2963.126059
2962.522562
2954.610044
2954.028899
2953.559512
2953.134829
2953.984195
2972.804364
2990.439891
2982.192097
2974.838373
2989.501117
3009.282411
3017.239632
3011.227013
2999.604106
2997.458338
2988.003551
2972.737309
2963.438983
2967.685815
2971.619722
2962.746079
2954.252416
2955.034727
2964.131887
2965.651806
2962.410803
2964.645978
2967.75287
2962.231989
2959.594483
2966.434117
2974.145469
2972.826716
2963.595446
2951.726669
2941.400163
2947.390431
3047.146266
3281.392548
3564.432688
3820.561328
3973.536667
4105.814291
4205.838347
4196.294152
3986.098347
3593.177032
3078.215191
2668.753584
2634.711878
2707.042123
2823.584118
2928.503207
2990.082263
3010.355295
3020.815911
3031.991784
3036.462133
3036.372726
3041.759496
3060.26674
3065.944083
3058.702118
3064.245351
3080.338607
3085.457156
3080.472717
3089.815747
3106.847776
3122.181072
3124.483302
3130.182997
3151.663023
3170.84082
3180.005035
3189.146899
3211.141015
3235.79499
3254.592807
3270.417842
3298.469281
3328.68884
3354.907436
3377.192125
3402.695465
3431.70803
3452.606911
3465.503867
3484.458147
3509.246231
3521.182063
3515.482368
3515.102388
3519.751551
3514.834167
3490.828394
3460.765298
3431.573919
3397.621619
3348.067802
3293.216621
3255.106897
3223.50153
3185.883544
3145.873922
3114.536776
3091.961514
3064.334758
3034.070496
3017.060818
3012.255193
3003.828586
2984.561382
2972.826716
2977.252361
2977.297065
2969.697472
2965.025957
2966.970559
2968.222257
2958.119268
2951.525504
2954.140658
2955.660576
2948.217445
2942.070716
2945.915216
2953.067774
2947.859817
2940.84137
2943.098896
2950.922006
2948.418611
2941.467219
2941.400163
2952.799553
2953.671271
2946.876341
2949.715012
2956.711108
2960.823829
2954.766507
2953.358347
2958.27573
2967.462297
2959.572132
2950.631434
2955.101783
2961.404975
2953.581864
2944.037669
2949.04446
2958.231027
2960.689719
2947.546893
2945.468181
2950.564379
2949.469143
2941.266053
2939.187341
2943.523579
2944.976442
2938.829713
2933.934681
2938.494437
2937.399201
2926.089218
2919.160178
2928.92789
2936.169855
2928.100875
2920.076599
2925.59748
2926.178625
2916.12034
2911.381771
2917.260279
2923.786989
2921.060076
2910.800625
2907.716084
2917.752018
2922.490588
2912.924041
2909.280707
2909.213651
2903.022218
2901.25643
2904.184509
2908.565451
2900.071788
2891.019331
2906.531442
2937.488608
2951.033765
2936.661594
2937.153332
2951.324338
2961.963768
2958.119268
2947.211617
2942.026012
2941.109591
2930.112532
2915.360381
2913.460483
2918.109646
2913.415779
2899.825919
2897.613096
2907.649029
2910.845329
2901.524651
2898.708331
2902.374018
2902.329314
2893.187451
2888.471232
2898.641276
2911.202957
2906.978477
2902.172852
2893.589782
2881.475136
2867.795869
2924.099913
3121.331706
3382.690654
3634.036021
3812.738217
3959.343309
4087.195288
4115.716114
3957.063431
3625.944689
3169.566771
2679.594181
2549.216455
2616.517558
2730.533806
2841.018479
2909.683038
2950.430268
2975.754795
2982.61678
2968.177553
2963.662501
2978.63817
2994.574963
2998.195946
3000.922859
3012.076379
3024.213377
3025.040391
3023.341659
3033.176426
3045.626348
3056.154019
3058.433897
3068.246313
3090.620409
3103.070331
3111.139311
3125.779703
3153.652329
3172.11487
3182.463727
3202.312076
3236.242024
3267.601522
3286.399339
3308.438159
3337.428372
3370.46425
3388.546811
3398.359227
3417.022934
3442.481571
3453.813905
3448.985928
3451.019937
3460.452373
3452.249283
3428.019992
3402.427244
3378.935561
3346.436125
3300.682104
3259.286673
3225.110856
3185.637675
3134.251015
3092.587363
3066.614636
3043.279415
3015.697362
2989.925801
2982.147393
2975.419518
2957.381661
2940.483742
2935.72282
2938.069753
2935.275785
2929.777256
2921.283593
2923.228195
2919.204881
2906.397332
2909.079541
2920.791855
2928.391448
2920.680096
2910.174776
2914.242794
2922.535291
2912.78993
2903.357494
2904.095102
2908.096064
2907.045532
2902.821052
2909.660686
2914.421608
2914.801587
2905.749131
2905.235041
2916.36621
2921.216538
2916.992058
2913.907518
2924.859872
2925.552777
2917.103817
2917.215576
2922.468236
2925.932756
2923.742285
2921.417704
2929.062
2936.281614
2934.225253
2925.418666
2927.162102
2932.504169
2919.741323
2910.107721
2920.456579
2928.883186
2928.54791
2910.286535
2903.55866
2906.486739
2904.296268
2897.143709
2909.370114
2921.954146
2923.317602
2908.721913
2904.676247
2912.946393
2908.43134
2897.836613
2888.404177
2895.109701
2904.765654
2900.809395
2900.22825
2910.621811
2915.494492
2907.336105
2897.300172
2896.406102
2902.485776
2897.590744
2888.091253
2886.638389
2893.880355
2899.20007
2896.473157
2893.679189
2897.814262
2893.925058
2881.13986
2875.641331
2876.870677
2889.07473
2892.293381
2900.362361
2923.29525
2942.830675
2939.05323
2932.39241
2939.544969
2952.352518
2949.200922
2930.000774
2911.962916
2906.956125
2899.155366
2900.630581
2910.420646
2912.186433
2900.384712
2882.302151
2885.140823
2898.238945
2900.027084
2891.958105
2885.207878
2892.561602
2900.60823
2894.349741
2890.952276
2898.261297
2901.077616
2898.708331
2892.293381
2895.713198
2896.89784
2876.624808
2876.13307
2989.925801
3208.369399
3461.100574
3684.752129
3835.693459
3977.023539
4062.898941
4024.453941
3813.185252
3448.583597
2969.898638
2613.075389
2601.050151
2687.327884
2803.624011
2890.952276
2945.669347
2973.765489
2980.582771
2982.035635
2978.25819
2987.847088
3005.54967
3011.025847
3006.287277
3006.108464
3009.349466
3013.61865
3021.553519
3044.218188
3061.071403
3063.217171
3066.681691
3085.255991
3110.625221
3116.660192
3118.269517
3134.049849
3165.141125
3192.812585
3205.642486
3217.108931
3237.896054
3260.113688
3276.385757
3305.912412
3354.080421
3384.054111
3400.840271
3417.715838
3437.944166
3460.988815
3473.125812
3477.953789
3487.565039
3498.427987
3495.611667
3479.652522
3467.649635
3449.365908
3425.002506
3380.477831
3332.175712
3303.096092
3262.639435
3210.42576
3169.94675
3146.320957
3122.493997
3095.515441
3059.193857
3043.949967
3036.909167
3018.267813
2994.776129
2985.097824
2984.986065
2976.023016
2957.381661
2950.519675
2961.919065
2973.251399
2976.402995
2972.513792
2983.622609
2977.87821
2963.0143
2955.861742
2966.277655
2971.59737
2962.209637
2951.570207
2960.466201
2973.206696
2972.200867
2964.265998
2969.183382
2984.203754
2987.176536
2978.168783
2977.766452
2982.840298
2987.556516
2983.376739
2988.696455
3003.828586
3001.772225
2986.908315
2982.639132
2989.456414
2988.450585
2982.169745
2984.002588
2993.055045
2996.58662
2992.250382
2980.850992
2978.235838
2985.500155
2986.349521
2990.574001
2989.165841
2990.104615
2989.612876
2984.047292
2985.880135
2987.288295
2982.974408
2972.759661
2965.249475
2977.274713
2985.321341
2980.18044
2977.23001
2980.381606
2982.505021
2975.866553
2970.032748
2974.860725
2970.412728
2961.963768
2956.062908
2958.231027
2954.498286
2947.681004
2945.401126
2951.704318
2960.332091
2961.919065
2959.460373
2976.224181
2989.992856
2984.114347
2977.297065
2987.511812
3001.638115
3003.649772
2992.09392
2983.823774
2984.270809
2974.816021
2968.244608
2964.333053
2964.377757
2970.300969
2966.523524
2951.190227
2941.981309
2944.864684
2950.922006
2960.466201
2973.989007
2980.56042
2974.324283
2954.878265
2945.244663
2959.505076
2964.198943
2951.324338
2928.905538
2918.891957
2957.001681
3104.34438
3347.173732
3619.060352
3827.043334
3953.263635
4058.763869
4096.314799
3998.81649
3718.324449
3292.031979
2803.780473
2610.616697
2655.297834
2761.043937
2881.788061
2964.400108
2999.805272
3010.467054
3020.41358
3034.606938
3041.535979
3041.491275
3043.882912
3057.69629
3060.937293
3054.254121
3046.945101
3057.003386
3079.802165
3088.474642
3085.63597
3105.037284
3124.080971
3135.659174
3139.436619
3146.946805
3164.135297
3165.766974
3167.063375
3185.302399
3229.178873
3258.48201
3267.668577
3294.177746
3325.649002
3351.353508
3363.311692
3382.109509
3413.200785
3442.34746
3444.292062
3446.884864
3459.64771
3475.673911
3466.912027
3461.257036
3463.447507
3474.8916
3471.605894
3435.016088
3394.134747
3349.006575
3291.54024
3234.498588
3201.105082
3186.531745
3159.977872
3120.839968
3100.231659
3087.580572
3057.964511
3018.87131
3001.749873
3010.93644
3001.235783
2974.950132
2960.421498
2966.679986
2971.709129
2968.848106
2948.753887
2945.781105
2949.715012
2945.646995
2935.029916
2956.711108
2970.859763
2963.327225
2950.296158
2952.441925
2969.026919
2970.591542
2953.470105
2948.396259
2956.867571
2970.435079
2967.059966
2962.634321
2962.88019
2955.146486
2937.734477
2941.288405
2963.036652
2980.627475
2978.25819
2961.98612
2960.645015
2965.897675
2968.490478
2964.780088
2965.83062
2966.523524
2966.232951
2962.634321
2973.765489
2977.118251
2959.974463
2943.992966
2942.718916
2948.977405
2947.010451
2946.295195
2966.568228
2985.656617
2980.985103
2953.91714
2935.365192
2934.158198
2937.779181
2928.212634
2927.407971
2942.182474
2951.927835
2921.641221
2898.775387
2921.75298
2944.037669
2954.028899
2956.197018
2962.522562
2968.177553
2964.400108
2951.525504
2954.274768
2975.710091
2990.015208
2964.310701
2944.484704
2934.135846
2928.838483
2923.67523
2913.929869
2921.216538
2928.167931
2916.142692
2911.314715
2918.511977
2938.852064
2933.465294
2913.661648
2919.160178
2932.750038
2948.083335
2951.458448
2942.227178
2931.855968
2914.667477
2879.686997
2865.583046
2949.871474
3151.730079
3440.089934
3698.4761
3857.955796
3958.650405
4001.342237
3973.268446
3784.440909
3431.70803
2959.415669
2610.236717
2597.406816
2667.479535
2772.599789
2873.674378
2944.194131
2976.648864
2973.38551
2974.592504
2990.238725
3017.753722
2997.838318
2982.795594
2991.088091
3020.905318
3026.962641
3021.218243
3024.325135
3048.017984
3071.755537
3086.038302
3087.80409
3090.37454
3088.698159
3087.088834
3101.684523
3132.798151
3150.612491
3146.253901
3149.070221
3184.67655
3238.454847
3259.130211
3272.027167
3303.543127
3334.120313
3346.972566
3354.683918
3370.486602
3402.248431
3422.677925
3407.188166
3408.551622
3437.228911
3465.28035
3455.6691
3424.331954
3402.539003
3384.367035
3343.664508
3291.450833
3274.351749
3264.986368
3221.489873
3175.266466
3130.630032
3089.72634
3056.645758
3034.159903
3024.950984
3003.783882
2989.858745
2969.742175
2959.728594
2958.476896
2953.850085
2934.672288
2933.80057
2932.794742
2912.968744
2910.286535
2942.137771
2935.566358
2915.874471
2915.315678
2914.399256
2926.312736
2924.256375
2931.118361
2927.340916
2942.875378
2943.076544
2935.499303
2929.844311
2933.912329
2951.056117
2956.197018
2939.232044
2925.105742
2925.73159
2928.190282
2933.822922
2933.66646
2935.923986
2938.628547
2940.573149
2950.45262
2955.504114
2943.702393
2950.296158
2953.134829
2953.984195
2955.235893
2938.829713
2915.919175
2922.982326
2933.398239
2919.093122
2898.931849
2914.71218
2964.534219
2963.193114
2943.41182
2930.313698
2939.992003
2940.97548
2938.40503
2933.599405
2932.63828
2933.577053
2922.445884
2881.095157
2865.76186
2891.779291
2925.776294
2896.271991
2868.555828
2875.618979
2916.299154
2962.030823
2966.054137
2943.165951
2915.159215
2901.278782
2914.645125
2930.783085
2927.676192
2924.166968
2925.843349
2951.324338
2978.3923
2992.160975
2971.127983
2960.287387
2961.136754
2939.924948
2916.276803
2892.293381
2886.101948
2888.270067
2900.630581
2922.535291
2942.942434
2931.297175
2917.5285
2922.64705
2922.736457
2921.395352
2918.757846
2916.12034
2913.572241
2905.257393
2899.580049
2900.496471
2898.104834
2902.865756
2882.168041
2922.244718
3103.673828
3367.51382
3643.177884
3828.585604
3946.781629
4017.659011
4012.562813
3855.608863
3536.805932
3090.821575
2675.10148
2594.143461
2633.59429
2728.902129
2853.021366
2939.589672
2974.056062
2996.720731
3008.298934
3001.772225
2986.640094
2986.997722
2997.838318
2994.709074
2997.279524
3001.079321
3005.393208
3026.247385
3051.594264
3068.358072
3056.399889
3046.632176
3071.844944
3128.484264
3135.122733
3101.461005
3087.826441
3127.27727
3174.707672
3178.663931
3177.725157
3192.209088
3221.668687
3252.536446
3277.659807
3324.799636
3386.378692
3404.170681
3401.22025
3398.26982
3415.167739
3427.192977
3425.896576
3444.582635
3458.194847
3458.351309
3442.548626
3408.015181
3380.567238
3366.038605
3326.945403
3286.399339
3275.446984
3279.224429
3227.904824
3152.601797
3111.318125
3108.166529
3091.000389
3060.64672
3022.380534
3008.053065
3039.211397
3035.389249
2991.736292
2963.550742
2951.681966
2959.080393
2972.804364
2996.988952
2994.887888
2969.786879
2942.24953
2960.354443
3000.632286
2986.885963
2954.163009
2948.351556
2972.424385
2988.584696
2974.503097
2969.585713
2993.099748
3009.52828
2996.608972
2969.742175
2954.006547
2950.743193
2947.189265
2968.557533
3019.720676
3031.410638
3009.77415
2977.721748
2956.152315
2969.697472
3001.928687
3019.743028
3010.578812
3014.222147
3003.716827
2986.282466
2978.526411
2988.785862
2993.815004
2975.151297
2947.770411
2918.511977
2937.868588
2986.729501
3002.107501
2993.613838
3000.632286
3006.399036
2975.196001
2965.674158
2998.039484
3006.57785
2983.197925
2975.888905
2989.121138
2993.077397
2986.684798
2978.034673
2960.220332
2931.163064
2946.988099
2998.911202
3008.522452
2991.356312
2981.119213
2980.403957
2997.078359
2984.494327
2952.263111
2955.906445
2990.931629
2985.835431
2957.962806
2936.23691
2960.376794
2997.34658
3002.442777
2989.590524
3004.163862
3034.226958
3046.185141
3025.28626
3014.937403
3007.673086
2997.659504
3005.952001
3000.408769
2980.716882
2965.852972
2955.973501
2971.642074
2992.496251
3000.140548
2988.562344
2964.757736
2959.952111
2958.789821
2970.837411
2995.670199
2984.069644
2971.284446
2965.115364
2966.165896
2960.354443
2949.670309
2929.240814
2923.183492
2953.246588
3070.302674
3245.182722
3515.147092
3791.772281
3958.091612
4080.623875
4176.91519
4167.482754
3963.590141
3569.886514
3049.917883
2664.506753
2656.638939
2733.305422
2822.7124
2907.961954
2989.679931
3038.317327
3039.613728
3036.618595
3067.776926
3097.147119
3085.568915
3066.525229
3053.181237
3075.354168
3115.520253
3110.558165
3088.988732
3090.955685
3096.878898
3129.244224
3156.558055
3184.341274
3214.516129
3219.254699
3202.535594
3218.561795
3259.018452
3262.818249
3250.055403
3282.420728
3326.543072
3348.313671
3359.623654
3356.092078
3384.903477
3437.854759
3475.584504
3491.923629
3508.218051
3524.668935
3530.659202
3529.206339
3522.322002
3505.424083
3501.981914
3517.158749
3505.021752
3476.836202
3470.845934
3458.552475
3407.635201
3364.362224
3330.566386
3289.305066
3246.412068
3202.155614
3166.906913
3124.528006
3088.541697
3109.97702
3132.306413
3095.224869
3073.722491
3066.011139
3047.056859
3034.651641
3023.341659
3020.614746
3017.016115
3014.155092
3008.701266
2996.228992
3001.70517
3032.550577
3033.891682
3027.230862
3022.268775
3016.122045
2997.056007
3007.8519
3024.950984
3001.995743
2980.761585
2989.970504
3005.907298
3028.10258
3033.645813
3025.353316
3020.368877
3011.875214
3010.578812
3020.704153
3037.847941
3033.846978
3027.119103
3044.911092
3052.220112
3038.764362
3019.340696
2984.136699
2982.572077
2999.358237
3013.730408
3024.235728
3013.551594
3016.390266
3026.135627
3021.531167
3005.013228
2991.624533
2997.078359
2992.719769
2987.780033
2996.787786
3015.295031
3002.979219
2996.184289
3018.960717
3022.380534
2991.311609
2958.543951
2961.874361
2980.761585
2974.659559
2963.595446
2954.833562
2983.443795
2999.514699
2997.413635
2999.425292
3002.778054
2995.42433
2987.802385
3024.571004
3051.661319
3023.498121
2997.704208
3006.376684
3002.576888
2989.143489
2972.156164
2973.430213
2987.668274
2983.443795
2958.968634
2950.854951
2965.271826
2965.428289
2951.726669
2944.372945
2963.371928
2987.623571
2988.674103
2970.993873
2974.92778
2976.492402
2956.040556
2939.164989
2926.983288
2922.088256
2974.816021
3160.022576
3457.010204
3786.586676
4028.231386
4151.121277
4221.50692
4209.995772
4038.490836
3651.537436
3128.774837
2685.897372
2650.715727
2686.210297
2761.267455
2852.663738
2923.630526
2981.298027
3015.004458
3009.371818
3017.060818
3058.970339
3063.843019
3046.408659
3049.180275
3047.83917
3034.942214
3049.381441
3084.22781
3111.340476
3122.114017
3133.088724
3141.403573
3149.69607
3147.662061
3140.107172
3147.818523
3178.641579
3211.386885
3222.652164
3234.342126
3268.540295
3299.653923
3317.021229
3318.608203
3332.578043
3379.963741
3425.42719
3454.998547
3463.313396
3462.642844
3472.209391
3487.855612
3504.664124
3512.219013
3494.1141
3505.066455
3510.028542
3460.519428
3427.304736
3414.832463
3385.015236
3346.212607
3306.560613
3256.336243
3198.64639
3172.316035
3157.854457
3126.830235
3079.064557
3062.278397
3053.203589
3025.129798
3005.795539
3000.006437
2997.681856
2982.99676
2957.672233
2938.628547
2967.328187
2989.568173
2969.339844
2963.327225
2974.279579
2972.960827
2962.634321
2944.328242
2920.613041
2921.842387
2939.969652
2973.810193
2988.137661
2967.574056
2977.677045
2983.063815
2974.614856
2964.243646
2945.691698
2945.512884
2961.740251
2967.551704
2964.154239
2977.207658
2970.591542
2972.804364
2986.930667
2993.166803
2988.38353
2954.43123
2909.347762
2918.713143
2980.403957
2999.984086
2983.309684
2969.093975
2966.501172
2976.067719
2978.504059
2955.83939
2938.561492
2950.743193
2951.86078
2951.078469
2947.837466
2961.807306
2960.890885
2942.651861
2936.259262
2945.915216
2944.797628
2926.424495
2912.566413
2912.678172
2929.419628
2940.528445
2923.67523
2932.146541
2955.057079
2971.776184
2974.368986
2972.469088
2973.541972
2972.446736
2969.183382
2980.18044
2981.700359
2961.807306
2940.439038
2943.031841
2959.281559
2955.302948
2919.629564
2916.030933
2913.639297
2915.98623
2930.313698
2934.493474
2937.153332
2933.979384
2945.959919
2953.26894
2937.667422
2923.518768
2918.04259
2925.619832
2928.302041
2912.298192
2886.437224
2862.990244
2910.73357
3090.933334
3368.117317
3650.598663
3887.013064
4039.317851
4144.214588
4165.560504
4070.722052
3762.223275
3284.410034
2743.609577
2581.671188
2640.836256
2724.0518
2819.985487
2902.083445
2967.797574
2992.719769
3006.667257
2991.021036
2991.937458
3006.644905
3024.503949
3015.406789
3011.651696
3018.848958
3025.934461
3030.315403
3040.820723
3070.883819
3081.232677
3059.10445
3052.778906
3102.355075
3145.426887
3142.431753
3129.400686
3137.2685
3174.372396
3218.695905
3213.219728
3214.314963
3234.565644
3245.02626
3278.509173
3344.379764
3381.774233
3383.204744
3396.772253
3434.926681
3470.421251
3464.430984
3460.877056
3457.680757
3464.609798
3480.881868
3468.588408
3437.921815
3412.731399
3394.090044
3353.119296
3296.815252
3273.837659
3241.762905
3186.107062
3131.859378
3099.203479
3084.339569
3070.436784
3041.826551
3014.803292
2995.200812
2970.993873
2946.719879
2945.19996
2945.57994
2928.54791
2939.857893
2932.861797
2932.77239
2938.628547
2919.115474
2890.348779
2891.801642
2918.377867
2948.083335
2944.037669
2939.902596
2926.290384
2905.369151
2901.278782
2903.983343
2898.596573
2897.434282
2898.931849
2888.739453
2904.542137
2945.222312
2953.045422
2953.872437
2948.172742
2929.285518
2919.294288
2919.562509
2930.179588
2932.370059
2919.920137
2912.029971
2920.478931
2913.929869
2908.900727
2908.364285
2924.479893
2938.226216
2937.913291
2925.530425
2923.474064
2936.460428
2923.384657
2893.366265
2871.953293
2886.325465
2908.051361
2924.591652
2932.012431
2912.678172
2890.348779
2873.294398
2878.859982
2914.533367
2946.541065
2904.899765
2873.249694
2888.113605
2900.474119
2907.649029
2882.480965
2871.953293
2881.676302
2885.811375
2891.287552
2903.871584
2918.757846
2919.271936
2927.475027
2939.187341
2944.797628
2936.147503
2919.294288
2905.458558
2889.365302
2869.248732
2870.031043
2896.607267
2938.896768
2936.125152
2892.67336
2857.603473
2866.119488
2901.569355
2914.309849
2893.813299
2886.884259
2895.780253
2889.342951
2878.658817
2878.144727
2893.276858
2882.682131
2838.0904
2817.146816
2847.746354
2988.964676
3216.348972
3476.076242
3712.378885
3915.332724
4075.81825
4146.136838
4083.753119
3812.782921
3394.402968
2879.709349
2555.452592
2547.003632
2636.567072
2788.402473
2903.603363
2965.83062
2959.750946
2933.532349
2935.454599
2954.520637
2966.143544
2968.356367
2979.308722
2993.278562
2996.07253
2997.86067
2991.311609
2986.84126
2987.35535
2985.94719
3023.945156
3065.698214
3062.121935
3061.496086
3078.036377
3092.877936
3120.907023
3124.505654
3123.924509
3164.04589
3224.90969
3248.379022
3255.173952
3262.550028
3293.551897
3336.556654
3372.073576
3384.210573
3381.640122
3379.024968
3407.255221
3432.065658
3419.682791
3421.962669
3425.315431
3419.92866
3424.108437
3409.445692
3365.032776
3326.431313
3300.771511
3261.879475
3196.142995
3156.423945
3159.888465
3129.5795
3060.870237
3002.554536
2986.058949
2981.096861
2971.239742
2952.75485
2931.855968
2940.751963
2948.351556
2912.924041
2886.414872
2903.245736
2914.734532
2882.704482
2870.343968
2909.168948
2934.471123
2918.154349
2893.299209
2903.312791
2904.855061
2882.838593
2884.760843
2915.293326
2922.848215
2903.290439
2871.685072
2882.190392
2905.570317
2908.565451
2900.787044
2905.324448
2910.800625
2920.747151
2919.853082
2912.499358
2930.023125
2938.896768
2925.105742
2903.089273
2899.445939
2904.698599
2911.560584
2931.006602
2921.864739
2923.272899
2927.89971
2917.953183
2934.69464
2938.896768
2907.649029
2889.454709
2897.702503
2927.206806
2929.285518
2896.361398
2892.986285
2915.047457
2904.877413
2913.751055
2934.940509
2928.838483
2917.304983
2912.029971
2898.283648
2892.583953
2894.685017
2885.140823
2882.793889
2904.095102
2922.021201
2912.14173
2917.483797
2920.34482
2903.960991
2882.637427
2891.019331
2907.716084
2897.076654
2881.072805
2883.509145
2900.004733
2908.543099
2899.177718
2865.963026
2844.907683
2877.921209
2915.360381
2918.735494
2934.962861
2959.907408
2949.267977
2963.483687
2989.746987
2975.866553
2940.237873
2896.048474
2872.221514
2877.094195
2900.675285
2913.929869
2910.107721
2904.206861
2903.513956
2905.212689
2887.532459
2879.999921
2886.459575
2877.273008
2868.891104
2865.091308
2872.087404
2882.570372
2892.874526
2907.872547
2911.001791
2889.521764
2846.67347
2847.768706
2963.953073
3175.355873
3442.369812
3695.950353
3863.096698
4009.344162
4094.52666
4077.516982
3899.284172
3550.775772
3053.136534
2637.081163
2594.612848
2677.604875
2790.436481
2874.34493
2931.140713
2966.411765
2968.557533
2936.773352
2902.01639
2908.788968
2977.833507
3022.648754
3013.305725
3019.027772
2992.272734
2960.801478
2973.251399
3028.907243
3071.040281
3095.068406
3061.630197
3056.958682
3084.585438
3112.592174
3120.10236
3113.799168
3119.230642
3144.82339
3181.72612
3195.047759
3229.536501
3256.738574
3263.555856
3269.36731
3294.244801
3339.484732
3400.348532
3427.952937
3423.236719
3411.457349
3417.626431
3432.155065
3437.743001
3455.646748
3483.877001
3456.965501
3408.685733
3395.609962
3390.536116
3343.530398
3309.712208
3276.475164
3233.828036
3177.680454
3125.131503
3093.101453
3078.97515
3050.431973
3034.226958
3021.978202
3014.110388
2994.127929
2961.360271
2954.140658
2962.991948
2931.923024
2903.513956
2945.870512
2974.748966
2953.894788
2922.624698
2925.709239
2934.202902
2918.914308
2908.721913
2936.61689
2935.320489
2919.897785
2923.474064
2926.446846
2930.179588
2939.343803
2940.170817
2930.671326
2938.673251
2963.930722
2966.076489
2949.715012
2942.271881
2938.449733
2921.171835
2917.327335
2936.99687
2968.892809
3001.973391
2976.425347
2937.779181
2933.889977
2957.739289
2948.552722
2934.18055
2950.810248
2969.943341
2971.485611
2941.958957
2931.23012
2948.128038
2951.257283
2935.20873
2953.537161
2953.827733
2934.202902
2934.225253
2957.381661
2955.280597
2952.799553
2944.708222
2932.817093
2914.980401
2898.574221
2918.310811
2954.341823
2955.995852
2940.215521
2916.813244
2909.481872
2916.790893
2930.023125
2941.623681
2925.97746
2903.04457
2909.70539
2906.933773
2917.439093
2937.108628
2933.264128
2921.23889
2928.324393
2943.165951
2947.792762
2943.769448
2923.027029
2915.382733
2931.74421
2930.045477
2915.047457
2919.294288
2920.166006
2906.799663
2902.642238
2914.734532
2922.848215
2913.684
2879.999921
2897.434282
2946.876341
2955.83939
2945.892864
2957.962806
2978.012321
2966.009434
2971.21739
2982.639132
2946.652823
2919.249585
2940.483742
2953.246588
2947.412783
2926.826826
2898.507166
2873.629674
2882.615075
2905.816186
2909.750093
2906.486739
2918.444922
2947.457486
2944.708222
2927.877358
2916.589727
2915.270974
2920.903614
2928.614966
2919.897785
2903.759826
2880.49166
2857.983453
2869.315787
2963.193114
3169.320902
3413.312544
3682.539306
3876.373634
4020.452979
4127.473131
4148.014384
3973.156687
3632.538454
3156.267483
2706.416274
2623.223081
2696.313285
2797.298467
2872.534439
2932.861797
2989.389359
2997.503042
2987.221239
2982.080338
2986.215411
3009.662391
3028.259042
3033.73522
3038.630252
3048.286205
3038.294976
3033.422295
3033.690516
3053.47181
3077.030549
3102.779758
3087.222944
3083.06552
3109.753503
3147.326785
3163.241227
3180.697939
3195.718312
3210.291649
3242.567568
3266.416879
3272.988292
3280.677292
3310.315706
3359.042508
3402.829576
3395.207631
3389.55264
3433.205597
3479.920743
3474.288103
3488.190888
3505.915821
3506.273449
3480.032501
3470.801231
3473.86342
3465.950902
3450.41644
3398.068654
3331.12518
3307.409979
3297.239935
3240.108876
3191.315018
3185.011826
3167.868038
3122.5387
3065.273531
3025.80035
3023.162845
3032.952909
3022.671106
3007.47192
3026.001516
3034.226958
3005.795539
2990.216373
2992.719769
2988.450585
2955.3253
2921.305945
2945.982271
3015.16092
3020.637097
2985.008417
2958.901579
2950.296158
2966.054137
2989.41171
2989.188193
2972.245571
3005.996705
3026.984993
3006.890775
2992.652713
2999.894679
3002.755702
3000.989914
2997.838318
2986.371873
2972.714957
2971.239742
2999.849975
3030.270699
3012.299897
2999.134719
3009.148301
3007.337809
3010.489405
2997.972429
2979.532239
3005.68378
3026.850882
3012.992801
3011.83051
3011.875214
3006.95783
2979.934571
2958.052213
2948.060983
2979.979274
3034.718696
3029.622499
3020.458283
2992.496251
2963.595446
2974.167821
2993.099748
2995.357274
2988.24942
2989.590524
2998.598277
3009.438873
3007.829548
2986.394225
2976.671216
2967.37289
2948.731536
2953.291291
3000.475824
3006.801368
2981.365082
2965.875324
2970.546838
2997.301876
3012.389304
2999.201775
2988.003551
2991.71394
2988.38353
2971.709129
2976.894734
3002.889812
3018.737199
2988.070606
2960.510905
2954.855914
2984.516678
3021.844092
3022.089961
3017.306688
2989.970504
2952.084297
2943.92591
2971.97735
2957.091088
2918.80255
2930.224291
2974.190172
3025.129798
3066.681691
3047.012156
3030.583624
3027.566138
3007.181347
2988.316475
3004.923821
3027.230862
3045.425182
3025.487426
2992.071568
2980.403957
2958.119268
2949.312681
2975.173649
3004.946173
2985.500155
2952.710146
2951.123172
2980.69453
2987.914144
2987.511812
2991.624533
3012.143435
3010.93644
2999.313533
2972.536143
2961.740251
2973.989007
2971.016225
2941.891902
3018.87131
3249.407202
3534.302537
3804.44572
4002.482176
4130.02123
4214.063789
4226.513711
4030.108932
3650.710422
3159.240265
2735.808818
2687.394939
2777.316007
2896.026122
2943.836503
2998.37476
3050.588435
3067.396947
3090.553354
3092.29679
3087.42411
3095.582497
3097.325933
3099.33759
3104.366732
3103.092683
3100.119901
3102.28802
3105.372561
3137.044983
3168.672701
3180.228553
3181.010864
3203.362608
3225.379077
3233.604519
3236.174969
3229.067114
3271.468374
3316.551842
3305.957115
3323.011496
3371.693596
3399.119186
3402.516651
3439.285271
3480.747757
3471.829411
3469.571885
3521.494987
3577.01672
3547.199493
3492.772996
3512.442531
3593.065273
3620.356753
3605.314029
3573.194572
3527.015868
3495.254039
3488.235591
3459.580655
3424.868396
3377.706215
3327.191273
3276.810441
3232.21871
3194.377207
3172.606608
3186.040006
3164.247056
3127.701953
3080.159793
3045.335775
3072.828421
3095.537793
3084.47368
3075.980017
3096.364808
3101.796282
3081.880877
3048.755592
3026.336792
3035.210435
3060.311444
3052.376575
3040.01606
3033.22113
3020.078304
3052.600092
3093.481433
3088.385235
3065.966435
3039.412563
3037.982051
3061.943121
3074.527153
3082.797299
3079.980979
3060.624368
3041.826551
3050.208455
3074.281284
3105.350209
3095.180165
3073.051938
3059.082098
3065.675863
3071.464964
3068.156906
3080.450366
3082.573781
3085.345398
3106.534851
3097.92943
3084.585438
3092.721473
3104.925526
3114.983811
3093.637895
3065.966435
3044.799333
3035.679821
3032.639984
3062.747784
3085.926543
3097.907078
3097.772968
3095.470738
3085.837136
3063.843019
3045.335775
3059.663243
3108.322991
3122.248128
3103.785587
3075.734148
3064.178296
3067.218133
3067.464002
3045.022851
3035.836284
3055.528171
3077.589342
3084.339569
3089.569877
3073.45427
3039.12199
3046.81099
3090.218078
3095.940125
3085.278342
3080.76329
3059.260912
3039.792542
3057.69629
3080.785642
3073.297807
3077.075252
3066.860505
3036.663298
3031.276528
3058.836229
3090.933334
3095.023703
3043.614691
3042.765324
3104.098511
3160.469611
3159.799058
3145.069259
3130.652384
3105.461968
3065.295883
3062.345453
3083.087871
3076.874086
3024.302784
2996.676027
3048.666185
3092.632066
3095.426034
3067.464002
3050.610787
3043.145304
3049.537903
3063.127764
3086.507688
3066.748746
3028.10258
3037.803237
3096.297752
3091.737997
3037.57972
3002.308667
3041.290109
3165.096422
3395.542907
3688.954257
3955.722327
4138.179617
4261.22597
4311.204471
4256.576807
4010.506452
3570.557066
3021.106484
2732.746629
2723.582414
2785.384987
2919.093122
3016.859653
3092.475604
3150.72425
3168.337425
3158.502657
3139.034288
3122.5387
3128.774837
3135.279195
3144.018727
3161.900122
3217.175986
3224.820283
3194.064283
3220.953431
3255.732746
3254.235179
3255.464525
3264.964016
3245.495647
3216.393675
3246.8144
3338.94829
3376.275703
3379.740224
3378.890858
3374.085233
3386.155175
3433.362059
3488.637923
3505.580545
3505.960525
3521.807912
3571.920523
3605.20227
3614.411189
3614.16532
3620.401456
3656.767745
3679.00773
3680.751166
3646.70946
3590.584229
3567.427822
3594.69695
3599.413168
3566.489049
3514.185967
3469.415423
3417.402913
3354.728622
3313.44495
3297.128176
3272.45185
3226.854292
3187.157594
3186.107062
3203.541422
3189.191602
3152.735907
3128.596023
3115.520253
3084.898363
3106.467796
3167.264541
3170.662006
3135.703878
3119.297697
3124.729171
3125.422075
3116.593136
3107.54068
3095.761311
3095.49309
3103.964401
3106.087816
3101.125729
3092.341494
3079.243371
3073.856601
3086.820613
3142.409401
3174.081823
3136.75441
3086.664151
3105.685485
3153.249997
3158.92734
3144.175189
3141.515331
3143.594044
3136.419134
3131.568805
3134.988622
3138.16257
3134.586291
3123.633936
3119.543567
3117.487206
3118.604793
3130.630032
3138.251977
3138.788419
3118.358924
3089.703988
3084.47368
3127.165512
3155.663986
3143.750506
3128.730134
3122.650459
3116.481378
3127.545491
3130.942956
3126.830235
3118.850663
3085.099528
3040.619557
3037.087981
3101.304543
3140.889483
3139.101343
3122.270479
3119.051828
3112.502767
3098.354113
3083.624313
3090.083967
3087.245296
3079.042206
3094.576668
3127.389029
3134.206311
3118.202462
3096.409511
3083.959589
3079.891572
3081.880877
3091.559183
3114.626183
3120.080009
3101.729226
3080.942104
3073.275456
3077.410528
3066.100546
3076.807031
3079.600999
3097.683561
3113.396837
3113.642706
3119.878843
3137.804942
3145.046907
3105.99841
3076.91879
3107.495976
3142.074125
3153.339404
3158.301492
3141.895311
3131.412343
3128.148988
3110.49111
3093.660247
3085.904191
3072.783717
3069.050976
3084.652494
3103.986753
3115.028514
3110.580517
3076.248238
3058.143325
3094.73313
3135.010974
3124.863282
3104.612601
3078.081081
3075.063595
3102.958572
3112.368657
3084.630142
3128.014878
3302.805519
3538.638775
3792.062854
4032.612328
4242.674022
4367.217942
4387.245105
4217.237737
3854.714794
3385.149346
2915.718009
2811.201252
2853.356642
2940.170817
3042.765324
3087.826441
3124.237433
3178.39571
3191.672646
3194.198393
3210.068132
3205.240155
3188.699864
3209.509338
3232.755152
3228.843597
3224.373248
3233.313946
3246.277958
3247.753173
3257.498533
3292.166089
3316.90947
3301.509118
3301.732636
3327.325383
3339.395325
3337.361316
3362.976416
3377.370939
3361.903532
3378.734395
3445.119076
3505.401731
3553.837961
3569.305369
3576.346168
3592.26061
3611.751331
3626.928166
3652.655024
3673.978588
3685.221515
3673.531553
3652.185637
3655.717213
3664.590855
3634.438352
3592.394721
3607.549203
3621.586099
3574.423918
3506.586374
3468.23078
3432.959727
3373.213514
3310.025133
3288.522755
3266.908618
3218.137111
3189.236306
3222.875681
3240.891187
3222.383943
3187.783442
3162.704785
3142.610567
3122.449293
3116.146101
3141.805904
3166.325768
3176.316998
3154.769916
3128.752485
3122.516349
3138.207273
3152.758259
3151.685375
3141.291814
3131.010012
3116.079046
3114.357962
3131.680564
3130.339459
3100.008142
3095.582497
3136.88852
3177.658102
3175.7135
3163.084765
3148.042041
3145.113962
3151.417154
3146.119791
3130.942956
3110.558165
3100.477529
3109.015895
3130.205349
3177.211067
3207.922364
3189.057492
3157.452125
3144.085782
3142.342346
3138.922529
3128.439561
3128.774837
3135.592119
3139.168398
3144.532817
3146.276253
3143.03525
3119.610622
3088.988732
3083.400796
3102.668
3130.741791
3157.809753
3162.704785
3149.159628
3109.373523
3051.236636
3047.906226
3120.549395
3164.04589
3157.809753
3128.059581
3111.407532
3115.810825
3114.313258
3093.19086
3065.742918
3062.546618
3104.389084
3127.858416
3131.166474
3115.497901
3107.361866
3103.18209
3100.522232
3108.43475
3110.021724
3081.903229
3069.028624
3068.134554
3051.370746
3002.398074
3011.629344
3088.161717
3148.131448
3136.419134
3116.034343
3115.788474
3122.516349
3116.548433
3108.993543
3111.161662
3114.089741
3095.560145
3063.843019
3063.954778
3096.744787
3097.817671
3097.683561
3084.853659
3078.125784
3056.399889
3005.817891
2965.942379
3006.376684
3065.832325
3092.006217
3081.14327
3048.08504
3037.087981
3039.859598
3056.601054
3061.339624
3060.51261
3043.212359
3019.072475
3000.408769
3001.146376
3006.711961
3117.196633
3355.488581
3650.375146
3871.255084
3988.266467
4122.958079
4238.337784
4195.578896
3964.663025
3563.002177
3033.22113
2732.701925
2723.716524
2766.72128
2881.251619
3019.832435
3084.853659
3080.62918
3087.714683
3088.653456
3060.825534
3030.516568
3041.223054
3076.985845
3094.822537
3107.697142
3114.693238
3112.681581
3116.12375
3127.769009
3127.813712
3132.753448
3150.567788
3157.429774
3154.322881
3170.751413
3203.183794
3215.231385
3203.876698
3187.895201
3217.891242
3278.285656
3333.583872
3345.765572
3349.252444
3378.980265
3434.65846
3431.037477
3426.745942
3434.054963
3451.019937
3453.322167
3472.164687
3513.448359
3536.537711
3503.032446
3491.342484
3513.515414
3485.01694
3440.067582
3418.162873
3397.688675
3346.972566
3277.480993
3210.761036
3157.832105
3131.367639
3110.848738
3107.115997
3071.509668
3002.979219
3009.438873
3039.434915
3017.306688
2966.367062
2934.247605
2928.905538
2937.689774
2944.082373
2946.652823
2938.449733
2928.03382
2907.26905
2891.354608
2905.749131
2916.030933
2907.380808
2892.718064
2869.494601
2861.224456
2888.69475
2918.93666
2926.066867
2925.843349
2913.371076
2891.041683
2865.359529
2877.451822
2910.845329
2929.240814
2906.620849
2862.833782
2858.251674
2893.098044
2876.937732
2822.108903
2869.651064
2939.857893
2932.861797
2911.404122
2904.028047
2882.659779
2862.29734
2883.06211
2899.960029
2854.921264
2839.275043
2881.944523
2878.70352
2849.042755
2844.281834
2866.946503
2886.101948
2898.104834
2884.000884
2863.034947
2813.99522
2784.513269
2800.695932
2824.567595
2812.922336
2833.843569
2853.803677
2822.0642
2832.234243
2860.822125
2835.542302
2806.909717
2805.27804
2796.806728
2822.622993
2824.008801
2822.533586
2831.273118
2824.746409
2816.789188
2829.082647
2836.324613
2817.795017
2786.659036
2758.495838
2764.687272
2785.407339
2776.757214
2794.124519
2812.341191
2811.782397
2816.185691
2805.635668
2810.240127
2804.272211
2790.436481
2765.894266
2734.847693
2748.683423
2787.910734
2812.564708
2859.503372
2880.156384
2856.418831
2834.894101
2811.447121
2784.379159
2812.117673
2841.2867
2807.624973
2781.272266
2772.48803
2782.322798
2807.066179
2792.783414
2774.097356
2756.439478
2716.318097
2706.326867
2752.75144
2794.90683
2781.227563
2774.410281
2764.575513
2746.112972
2747.074097
2761.088641
2754.003138
2740.70385
2737.820475
2741.329699
2765.0449
2884.447918
3099.874032
3387.272762
3646.262425
3807.865537
3916.718533
3971.770879
3933.191768
3685.310922
3267.087432
2715.33462
2419.665744
2442.308061
2527.468208
2627.916947
2716.273393
2768.799993
2777.316007
2781.048749
2831.876616
2857.447011
2833.240072
2799.801862
2780.981693
2816.05158
2865.940674
2897.188413
2872.646197
2838.135104
2843.276005
2902.977515
2934.605233
2916.433265
2890.304076
2902.441073
2945.870512
2969.786879
2966.657635
2973.989007
2999.022961
3017.753722
3044.687574
3083.289037
3091.156851
3102.80211
3135.614471
3161.587198
3182.039044
3208.056475
3209.509338
3237.247853
3305.532432
3311.925031
3282.264266
3286.198173
3314.562537
3308.952249
3263.153525
3230.229405
3242.835789
3218.360629
3161.073108
3112.726285
3078.215191
3046.855694
3017.641964
2994.15028
2961.98612
2915.919175
2852.328462
2827.003935
2850.205046
2827.160397
2775.214943
2744.03426
2751.276225
2785.183821
2773.3821
2729.840902
2746.716469
2798.013723
2765.402527
2728.745667
2729.371515
2732.813684
2715.111102
2702.594126
2707.489158
2749.689251
2774.387929
2755.858333
2717.927422
2709.769036
2725.32585
2742.089658
2745.151847
2731.003193
2709.94785
2697.609687
2710.260774
2731.852559
2766.72128
2780.914638
2739.385097
2709.992553
2719.402637
2771.437499
2771.571609
2756.730051
2765.424879
2776.734862
2732.12078
2693.80989
2728.566853
2783.038054
2774.678501
2756.864161
2746.269434
2737.574606
2745.330661
2751.186818
2744.905978
2729.058591
2707.824434
2707.712675
2732.903091
2762.586208
2728.030411
2699.464881
2725.258794
2742.380231
2745.375364
2716.385152
2689.786576
2672.531029
2702.594126
2720.028486
2716.206338
2756.171257
2761.960359
2729.639736
2696.402692
2691.552364
2711.199547
2719.246175
2689.093672
2687.327884
2721.61546
2709.009076
2685.964428
2706.393922
2734.311251
2689.093672
2644.524293
2642.847913
2662.249227
2713.166501
2705.455149
2679.527125
2745.665937
2777.137193
2717.502739
2699.129605
2765.290769
2814.464607
2791.151737
2757.691176
2742.939024
2726.48814
2710.126663
2700.515413
2701.901222
2702.705884
2695.86625
2676.889619
2678.655407
2674.028596
2656.638939
2624.184206
2604.894651
2641.931491
2700.135434
2692.871117
2672.28516
2695.039236
2727.449265
2754.383117
2729.617385
2698.369646
2672.173401
2640.724497
2675.682625
2848.685127
3116.615488
3399.074483
3600.597811
3731.333164
3873.534962
3937.4386
3860.012157
3574.356863
3111.76516
2562.046356
2354.39865
2366.535648
2429.232291
2556.413717
2670.586428
2724.632946
2748.169333
2747.968167
2738.513379
2737.954585
2754.316062
2751.030356
2737.574606
2773.292693
2806.127406
2779.260609
2731.22671
2741.307347
2833.441238
2905.682076
2861.515029
2823.293546
2860.844476
2911.828805
2915.539195
2904.162157
2895.86966
2908.94543
2938.337974
2975.777146
3005.057932
3018.647792
3020.100656
3006.488443
3012.255193
3072.627255
3103.897346
3112.815692
3177.412233
3231.995193
3252.33528
3236.219673
3203.831995
3214.560832
3233.828036
3208.458806
3167.599817
3170.505544
3165.364643
3132.462875
3085.255991
3021.82174
2963.081355
2930.380753
2922.624698
2885.252581
2828.032115
2774.298522
2755.232484
2749.644548
2750.046879
2771.929237
2735.205321
2693.586373
2681.717596
2693.765187
2685.584448
2657.890637
2666.227837
2669.781765
2680.957637
2688.959561
2685.6068
2674.497983
2661.556323
2654.582578
2639.450447
2634.220139
2656.482477
2676.487288
2673.335692
2658.583541
2660.036404
2667.54659
2665.266712
2665.691395
2659.455259
2649.553436
2666.831334
2682.142279
2688.378416
2672.016939
2683.30457
2698.68257
2701.029503
2699.420178
2690.591239
2671.502849
2633.169607
2637.885825
2701.454187
2723.113027
2714.373495
2695.665085
2682.186983
2686.545573
2691.284143
2676.576695
2652.615625
2675.593218
2722.531882
2724.94587
2682.634018
2651.051003
2680.108271
2707.77973
2683.081053
2653.06266
2669.066509
2686.478518
2678.43189
2683.572791
2683.483384
2671.838125
2662.070413
2682.254038
2710.819568
2703.175271
2694.949829
2684.913896
2684.869192
2691.462957
2695.128643
2683.416329
2672.888657
2679.728291
2688.356064
2668.95475
2623.625412
2597.58563
2621.725514
2667.613646
2678.588352
2681.717596
2723.582414
2731.360821
2702.482367
2678.275428
2687.730216
2691.060625
2674.386224
2673.916837
2678.990683
2665.378471
2645.530122
2644.233721
2650.425154
2641.01507
2626.329973
2629.168645
2655.566055
2679.437718
2671.122869
2664.260884
2685.584448
2744.257777
2746.560007
2718.061533
2720.475521
2730.958489
2724.521187
2694.391035
2681.538782
2680.018864
2665.736099
2648.435849
2653.621453
2670.675834
2678.901276
2674.185058
2674.542686
2678.789518
2678.43189
2675.570867
2662.517448
2655.297834
2663.679738
2671.90518
2644.546645
2619.043305
2625.972346
2660.326977
2677.627227
2782.926295
3004.320324
3259.063156
3502.227783
3683.947466
3838.152151
3931.940071
3914.550413
3713.407065
3342.546921
2829.484979
2408.422817
2361.104174
2447.270149
2559.364147
2642.534988
2700.582469
2757.981748
2781.853411
2771.884533
2763.435574
2769.515248
2783.619199
2781.898115
2777.74069
2784.066234
2795.510327
2803.10992
2810.083665
2825.9087
2830.960194
2827.763895
2827.428618
2847.411078
2869.941636
2883.352683
2885.476099
2898.328352
2923.518768
2947.658652
2962.634321
2988.696455
3021.44176
3040.954833
3049.180275
3082.819651
3128.059581
3163.978835
3169.209143
3172.718367
3201.797986
3231.324641
3248.043746
3256.023318
3251.262397
3248.244911
3228.530673
3206.33539
3199.316943
3204.189623
3186.062358
3139.347212
3080.964456
3044.151133
3026.157978
2989.232896
2944.484704
2906.285573
2874.702558
2837.911587
2810.329534
2792.269324
2775.550219
2746.023565
2717.078056
2702.303553
2702.415312
2710.350181
2709.970201
2722.710696
2730.06442
2721.816626
2699.151957
2698.771977
2711.221899
2698.526108
2676.040253
2676.353178
2699.688399
2717.435684
2698.839033
2673.872134
2666.272541
2678.253076
2704.382265
2720.96726
2720.631983
2720.788446
2712.473597
2697.721445
2697.699094
2701.945925
2705.499852
2708.830262
2720.654335
2727.158693
2722.017792
2702.325905
2689.116024
2702.638829
2729.460922
2731.830207
2727.628079
2729.527978
2731.182007
2724.096504
2712.473597
2716.87689
2721.906033
2712.473597
2706.192756
2712.875928
2711.62423
2687.596105
2669.938227
2672.955712
2694.882774
2708.405579
2726.845768
2736.367611
2733.305422
2724.901167
2704.31521
2699.911916
2713.54648
2704.583431
2686.567925
2678.342483
2691.150032
2686.836146
2682.343445
2678.901276
2680.130622
2680.801175
2672.083994
2678.096614
2685.785614
2686.255
2682.92459
2686.478518
2689.496003
2692.40173
2688.803099
2676.487288
2674.542686
2692.558192
2699.464881
2688.266657
2689.116024
2696.827376
2700.180137
2692.200564
2684.891544
2681.807003
2688.17725
2688.154899
2679.057739
2689.786576
2690.85946
2665.646692
2652.16859
2669.84882
2678.744814
2668.105384
2650.291044
2641.618567
2647.653538
2659.052927
2671.547553
2686.299704
2710.908975
2725.236443
2738.513379
2756.417126
2751.142115
2745.107144
2733.037202
2712.875928
2710.819568
2712.965335
2703.868175
2695.754492
2692.91582
2684.57862
2677.291951
2684.243343
2701.923573
2700.046027
2680.510602
2662.606855
2670.117041
2699.017846
2713.814701
2703.264678
2691.842936
2691.932343
2689.96539
2685.22682
2692.424082
2696.335637
2683.148108
2689.227782
2813.861109
3053.628272
3321.446874
3534.637813
3683.478079
3840.968471
3924.899271
3862.292035
3613.472416
3239.617138
2770.252856
2463.251646
2436.608367
2502.009571
2626.754657
2716.116931
2754.696042
2776.511344
2782.523964
2787.843679
2786.591981
2787.351941
2798.259592
2806.507386
2809.368409
2814.710476
2823.628822
2823.718229
2830.4014
2841.912549
2855.077726
2853.647215
2847.05345
2856.932921
2887.107776
2922.26707
2937.287442
2959.080393
2972.938475
2980.783937
2990.261077
3010.489405
3048.755592
3095.738959
3130.361811
3140.688317
3135.033326
3158.145029
3192.209088
3216.214861
3236.286728
3264.62874
3283.158336
3275.245819
3258.325548
3276.229295
3299.452758
3295.630609
3279.023263
3256.112725
3231.816379
3188.275181
3155.038137
3125.600889
3101.550412
3073.633084
3011.6964
2945.870512
2903.513956
2884.291456
2866.320654
2855.837686
2853.669566
2841.733735
2829.686145
2813.99522
2806.395627
2800.762987
2801.70176
2806.976772
2823.405304
2850.227398
2835.721116
2777.897153
2739.630966
2744.973033
2763.659091
2769.492897
2783.261571
2795.666789
2804.831005
2786.770795
2780.780528
2792.425787
2804.115749
2791.330551
2786.390816
2803.10992
2810.865976
2796.784377
2782.322798
2801.835871
2834.648232
2844.304185
2808.519043
2804.89806
2816.275098
2815.135159
2806.909717
2813.525833
2832.234243
2826.5569
2810.709514
2816.968002
2830.78138
2834.447066
2831.317822
2833.798866
2844.304185
2853.088421
2839.051525
2820.097246
2823.852339
2825.282851
2825.081685
2820.633688
2816.364505
2813.168205
2782.456909
2767.034205
2787.016664
2819.538453
2832.636575
2826.065162
2836.905758
2852.261406
2846.941691
2831.697802
2824.925223
2831.474284
2832.614223
2823.673525
2819.493749
2814.531662
2803.512252
2791.285848
2781.764004
2795.107996
2810.061313
2806.172109
2799.287772
2806.172109
2828.322688
2839.453857
2833.530645
2836.905758
2836.302261
2825.01463
2810.106016
2808.60845
2818.599679
2824.63465
2816.342153
2817.482092
2825.238147
2826.333383
2812.07297
2806.015647
2818.644383
2823.829988
2801.590002
2777.941856
2788.49188
2808.429636
2810.754217
2803.244031
2807.312048
2805.881537
2808.072008
2824.902871
2841.376107
2859.257502
2860.106869
2842.136066
2838.917415
2848.215741
2842.896026
2829.194406
2829.775552
2842.225473
2850.51797
2854.317767
2845.712345
2832.368354
2797.142005
2759.456963
2762.653263
2784.848545
2804.227508
2805.143929
2799.667752
2802.037037
2808.675505
2801.813519
2793.319856
2799.824214
2813.905813
2811.491825
2784.826193
2763.145001
2776.109013
2874.054357
3084.294866
3355.555636
3611.505462
3778.450641
3905.006219
3991.149842
3996.581316
3796.712017
3421.739152
2918.28846
2523.936632
2487.190364
2546.064859
2640.568035
2749.197513
2823.852339
2849.333328
2848.573369
2851.546151
2865.873619
2870.969817
2861.649139
2861.291511
2873.003825
2879.865811
2879.776404
2883.173869
2895.042645
2905.592669
2897.031951
2906.37498
2939.455562
2971.932646
2980.985103
2989.344655
3004.499138
3013.931574
3017.954888
3028.437856
3054.388232
3084.674845
3097.884726
3115.900232
3147.997337
3186.487041
3211.766864
3228.664783
3254.369289
3288.388644
3306.068874
3306.337095
3324.777284
3349.45361
3353.186351
3339.305918
3327.325383
3330.588738
3324.643174
3299.050426
3271.669539
3246.099144
3217.73478
3169.745585
3123.075142
3089.368712
3055.997557
3017.239632
2979.755757
2959.885056
2945.356422
2918.735494
2888.717102
2876.848325
2877.407119
2871.640369
2852.484924
2847.612244
2853.84838
2848.215741
2834.357659
2824.835816
2823.561767
2824.724057
2815.78336
2808.586098
2814.062275
2815.40338
2810.217775
2806.082702
2812.944688
2818.890252
2810.955383
2803.400493
2803.556955
2809.927202
2809.748388
2804.406322
2812.631764
2823.852339
2825.081685
2815.135159
2813.324668
2820.164301
2820.410171
2814.12933
2811.290659
2817.526796
2822.265365
2818.644383
2807.088531
2810.66481
2820.454874
2813.592889
2809.077836
2821.706572
2834.178845
2829.88731
2820.164301
2816.476264
2815.068104
2812.229432
2804.160452
2800.047731
2808.295525
2809.658982
2795.443272
2790.280019
2793.543374
2795.465624
2786.614333
2780.892286
2786.256705
2791.799938
2788.62599
2790.704702
2794.77272
2801.500595
2791.487013
2779.506478
2788.402473
2796.650266
2788.849507
2771.884533
2770.878705
2782.658074
2792.761063
2785.027359
2778.523001
2781.406377
2786.726092
2778.590057
2773.76208
2784.826193
2791.531717
2782.814536
2776.488993
2785.67556
2787.843679
2776.801917
2761.490972
2763.25676
2769.515248
2768.755289
2758.026452
2751.85737
2753.466696
2759.009929
2776.109013
2797.276115
2806.663848
2806.127406
2798.773682
2805.188633
2822.868862
2825.685182
2805.233336
2788.134252
2790.503537
2785.519098
2772.175106
2761.088641
2762.697966
2762.273283
2753.64551
2751.34328
2762.765022
2771.996292
2771.616312
2763.167353
2767.056557
2770.744594
2766.654225
2758.026452
2759.054632
2766.654225
2765.335472
2751.030356
2738.91571
2734.490065
2763.323815
2882.257448
3121.041134
3433.205597
3705.807472
3865.756555
3947.899216
3967.725213
3898.837137
3623.821273
3180.295608
2656.214256
2429.276994
2443.850332
2496.935725
2598.658514
2706.036294
2760.976882
2790.92822
2814.241089
2833.776514
2840.526741
2832.346002
2834.62588
2852.149648
2861.470325
2862.677319
2866.79004
2881.296323
2889.789985
2887.107776
2888.717102
2908.766616
2925.753942
2935.029916
2940.550797
2954.900617
2974.391338
2988.450585
2998.732388
3016.993763
3039.479618
3053.404755
3072.269627
3104.433787
3139.615433
3160.223742
3170.19262
3194.176041
3230.005888
3256.090374
3270.104917
3278.531525
3299.74333
3320.396342
3323.637345
3314.696647
3315.635421
3306.761778
3279.87263
3247.417897
3220.193472
3186.934076
3143.459933
3094.509613
3054.857618
3025.353316
2992.295085
2948.217445
2915.539195
2896.428453
2868.265255
2835.430543
2814.688124
2816.409208
2810.463644
2791.598772
2779.104147
2778.143022
2776.824269
2764.374347
2748.571664
2749.622196
2756.998272
2756.327719
2747.454077
2746.336489
2752.214998
2749.353975
2734.311251
2725.772885
2733.66305
2733.90892
2729.393867
2733.238367
2739.67567
2732.590167
2717.323925
2719.246175
2732.143132
2737.731068
2731.964318
2730.109123
2735.5853
2735.227672
2725.012925
2720.184948
2726.421085
2730.086771
2723.269489
2711.959507
2714.105274
2724.029449
2724.230614
2715.044047
2711.579527
2715.356972
2708.204413
2700.582469
2702.817643
2708.003248
2708.964373
2700.761283
2691.418253
2693.42991
2691.865288
2680.622361
2672.061643
2676.442585
2680.398843
2670.072337
2664.618512
2670.787593
2668.597122
2654.761392
2642.736154
2650.000471
2655.87898
2652.660328
2640.188055
2639.60691
2643.9655
2641.909139
2629.861549
2623.133674
2628.162817
2624.832407
2611.734284
2609.230889
2620.160892
2619.646802
2605.520499
2598.256182
2603.888822
2600.334895
2578.810165
2568.304845
2579.994807
2589.38254
2582.565258
2569.377729
2584.554563
2607.643915
2613.880052
2596.892726
2599.910212
2610.974325
2615.802302
2611.331953
2607.71097
2600.513709
2584.845136
2563.253351
2548.948234
2553.195066
2552.412755
2536.520664
2527.937594
2532.095019
2536.118333
2529.077533
2520.852091
2523.221376
2524.29426
2512.917222
2507.172824
2508.91626
2515.420618
2511.129083
2500.936687
2494.432329
2490.543126
2469.845411
2457.66371
2554.647929
2783.596847
3037.736182
3268.294426
3427.818826
3581.330607
3689.602457
3678.068957
3483.228801
3121.175244
2626.486436
2200.998628
2147.197979
2218.634155
2320.401647
2404.265392
2459.474201
2494.857013
2509.363295
2506.770492
2496.913373
2499.237955
2503.171862
2507.5081
2505.339981
2513.252498
2525.277737
2532.542054
2529.278699
2530.038658
2542.041545
2550.781077
2549.1494
2551.943368
2566.047319
2576.843211
2586.163889
2596.468043
2616.003468
2634.801285
2649.575788
2658.494134
2680.555306
2711.691286
2731.539635
2748.839885
2773.940894
2800.181842
2819.650211
2832.815389
2851.546151
2874.21082
2885.051416
2885.699616
2886.101948
2895.713198
2899.445939
2884.649084
2854.004843
2829.596738
2801.232374
2755.277187
2703.93523
2658.784706
2618.260994
2565.466173
2510.190309
2469.800707
2447.2925
2415.575375
2381.466613
2362.959369
2352.990491
2334.706764
2311.907984
2296.261763
2290.740882
2279.743824
2259.515495
2249.412507
2253.927559
2257.325024
2243.198722
2232.603995
2236.00146
2236.269681
2222.478655
2206.608916
2209.045256
2217.583623
2210.408713
2202.317381
2204.239631
2207.927669
2202.406788
2191.834413
2188.772224
2191.610896
2183.631323
2171.561381
2166.93457
2174.355349
2179.764471
2172.030767
2166.733404
2170.488497
2170.354387
2161.056061
2152.025956
2155.91516
2159.334977
2153.925854
2139.419572
2139.330165
2146.482724
2145.253378
2135.217444
2131.395296
2134.278671
2133.988098
2118.028953
2110.831691
2114.385618
2109.579993
2096.861851
2086.155365
2086.669455
2081.886182
2068.229266
2061.121411
2066.798755
2073.727795
2069.570371
2058.126278
2061.769612
2066.329368
2051.890141
2037.562673
2036.154513
2042.658871
2038.054411
2025.60449
2023.212853
2027.213815
2020.888271
2008.371295
2006.024361
2008.95244
2002.202213
1985.348998
1982.130347
1993.127405
1997.240126
1984.879611
1971.110937
1965.411242
1963.556047
1958.035166
1950.65909
1952.134305
1953.006024
1944.422954
1943.797105
1960.739727
1977.81646
1973.189649
1965.254779
1970.462736
1980.208097
1974.754271
1960.225637
1947.753364
1945.965224
1935.303442
1910.157729
1895.584392
1896.701979
1897.283125
1891.046988
1879.714653
1874.819621
1873.098537
1867.130621
1865.901275
1866.750642
1867.041214
1863.26377
1855.999453
1856.290025
1862.839086
1857.005281
1841.806095
1826.316336
1815.431036
1840.286176
1976.810631
2210.945155
2471.968826
2686.702035
2825.193444
2951.011413
3022.000554
2949.513847
2673.715672
2254.441649
1765.653702
1515.336515
1534.916643
1609.102083
1714.401151
1805.506862
1847.170514
1857.564075
1864.604874
1873.9032
1873.210296
1859.978063
1861.050947
1874.394938
1879.088805
1873.098537
1874.41729
1884.609685
1887.694226
1886.308418
1890.644656
1905.687381
1920.841863
1922.361782
1927.010945
1940.891378
1957.476372
1965.299483
1976.318893
1998.760044
2022.095266
2037.048583
2047.106868
2068.676301
2099.767578
2122.588709
2138.525503
2162.553628
2193.935477
2211.5263
2220.422294
2234.325079
2251.334757
2260.767193
2260.47662
2257.14621
2256.542713
2247.736126
2221.070495
2184.950076
2148.606139
2114.162101
2065.658816
2012.573423
1975.156602
1939.617329
1896.813738
1849.629205
1820.259013
1800.030684
1772.538039
1743.525474
1727.074591
1720.234957
1709.394361
1693.211698
1684.941552
1687.802576
1684.896849
1671.932837
1662.947436
1667.529543
1669.138869
1655.101973
1643.65788
1647.167104
1653.738517
1644.686061
1633.39843
1640.595691
1647.167104
1642.719107
1634.42661
1635.231273
1640.662747
1638.047592
1625.84354
1623.496607
1629.620985
1629.30806
1623.876586
1626.804665
1635.387735
1633.01845
1623.116627
1616.724028
1618.869796
1619.428589
1605.615211
1598.462653
1604.341162
1614.153578
1609.079732
1596.562755
1596.942734
1607.515109
1605.972839
1596.071016
1597.00979
1604.564679
1602.01658
1587.890278
1583.330522
1589.253734
1587.465595
1576.245019
1571.506449
1570.500621
1568.287798
1558.877714
1550.696975
1553.245074
1554.206199
1547.590083
1542.024498
1545.399612
1550.24994
1539.565806
1524.523082
1529.060486
1539.968138
1541.376298
1532.972042
1532.145027
1537.598853
1535.140161
1525.193635
1521.282079
1525.215986
1525.797132
1517.214062
1513.078989
1518.935146
1520.455065
1512.386085
1505.993486
1508.698047
1502.819538
1493.275344
1487.642704
1490.883707
1492.515384
1482.770024
1475.796279
1501.701951
1531.653289
1531.340364
1521.863225
1525.528911
1534.782533
1535.050754
1530.669812
1524.545434
1517.616393
1511.000277
1491.956591
1477.919695
1479.283152
1477.584419
1461.222942
1451.276416
1458.697195
1464.173372
1459.032471
1451.58934
1457.043166
1465.29096
1463.435765
1450.650567
1447.543674
1454.40566
1453.109259
1441.128724
1434.579663
1425.638965
1418.754628
1473.605808
1652.062136
1910.694171
2165.839334
2339.713554
2473.958132
2588.533174
2615.422322
2466.157373
2136.916177
1697.480881
1247.026175
1116.067304
1161.530752
1262.426527
1371.50304
1439.184122
1467.079099
1486.346303
1499.310315
1493.700027
1485.02755
1492.984771
1511.514367
1516.901137
1513.414265
1511.603774
1524.321917
1529.976908
1530.736867
1534.380202
1547.634786
1561.78344
1565.62794
1573.808679
1590.326618
1605.816377
1615.248813
1623.675421
1648.374098
1670.43527
1685.410939
1698.75493
1719.653811
1751.326233
1774.639103
1792.364036
1817.062714
1850.187999
1873.187944
1884.699092
1902.982819
1927.748552
1943.461829
1944.288843
1943.640643
1948.312157
1944.713526
1921.378305
1897.216069
1876.607761
1843.773048
1797.124958
1750.789791
1717.552747
1683.287523
1640.975671
1594.282877
1566.678472
1546.651309
1520.231547
1489.922582
1473.136422
1465.04509
1451.946968
1431.47277
1420.341601
1423.046162
1424.320212
1418.329944
1414.843072
1419.380476
1418.128779
1404.516566
1396.469938
1400.247383
1405.790616
1402.370799
1394.882964
1399.912107
1406.572927
1398.191023
1388.333903
1389.630305
1399.286258
1398.235726
1388.9374
1391.083168
1398.749816
1398.638058
1394.882964
1396.179366
1403.756607
1408.91986
1407.355238
1404.717732
1410.953869
1415.848901
1406.438816
1396.179366
1403.15311
1414.574851
1409.098674
1396.067607
1403.555441
1409.858633
1406.61763
1402.974296
1405.500043
1410.931517
1408.092845
1398.392188
1398.079264
1406.61763
1403.063703
1391.440796
1390.434967
1397.922802
1395.888793
1384.869383
1378.901467
1387.864517
1395.061778
1389.026807
1381.717787
1385.875211
1385.830508
1374.766394
1366.406842
1369.178458
1379.57202
1376.398072
1368.776127
1366.540953
1375.99574
1375.638113
1367.747947
1368.932589
1377.694473
1380.443738
1367.524429
1365.378662
1376.129851
1377.91799
1369.290217
1362.718804
1368.351444
1375.973389
1368.597313
1354.962749
1358.717842
1368.55261
1368.217333
1355.678005
1351.989967
1360.10365
1374.676987
1386.322246
1400.046217
1409.43395
1410.708
1408.316363
1415.133645
1421.213319
1412.742008
1391.820775
1380.175517
1378.29797
1378.409729
