 EMG Channel 
6164.231141
6171.450755
6171.048423
6161.571284
6156.028051
6171.897789
6169.260284
6160.051365
6160.878379
6168.142696
6159.291406
6150.484818
6154.35167
6161.90656
6164.119382
6166.153391
6155.402202
6160.252531
6165.482839
6164.499362
6164.365252
6168.276807
6170.266112
6171.473106
6164.700528
6158.889074
6162.130077
6159.693737
6160.565455
6159.805496
6172.948321
6168.902656
6166.91335
6161.995967
6163.739403
6170.444926
6164.611121
6158.71026
6162.867685
6169.886132
6164.566417
6160.431345
6164.029975
6166.935702
6164.409955
6160.073717
6160.721917
6167.427441
6169.126173
6159.961958
6160.185475
6162.599464
6160.878379
6158.598502
6156.810362
6161.928911
6165.862818
6164.678176
6155.648071
6166.533371
6170.668444
6165.482839
6157.860894
6155.648071
6164.365252
6163.761754
6161.794801
6160.341938
6167.852124
6166.26515
6162.845333
6161.683042
6165.929874
6160.341938
6160.990138
6162.957092
6164.521714
6156.117458
6153.278786
6156.251568
6164.521714
6165.326377
6156.452734
6157.458563
6162.085374
6163.739403
6161.39247
6151.378888
6149.657804
6151.848275
6152.272958
6157.436211
6157.54797
6157.369156
6152.183551
6150.663632
6156.363327
6159.336109
6151.937682
6140.828865
6148.294347
6156.519789
6159.850199
6158.017356
6153.636414
6159.827847
6154.508132
6152.518827
6151.065964
6152.965862
6150.440115
6143.444019
6141.879397
6129.585937
6127.797798
6154.21756
6166.91335
6160.788972
6164.633473
6163.06885
6149.277824
6151.267129
6155.357499
6152.764696
0
6432.764999
6431.558005
6431.312136
6430.820397
6430.239252
6428.540519
6432.966165
6432.474426
6428.942851
6427.288822
6426.730028
6433.502607
6434.821359
6434.240214
6430.395714
6426.528862
6428.764037
6431.692115
6429.121665
6431.468598
6436.698906
6434.374325
6427.422932
6425.970069
6430.663935
6432.407371
6429.658107
6427.445284
6431.11097
6433.636717
6430.127493
6428.093484
6433.480255
6438.93408
6434.664897
6434.150807
6435.804836
6437.704735
6433.815531
6431.893281
6439.224653
6446.310156
6441.437476
6430.909804
6428.831092
6433.368496
6435.961298
6432.474426
6434.553139
6439.269357
6442.957394
6437.056534
6432.854406
6436.318926
6434.039048
6429.389886
6425.746551
6433.569662
6436.87772
6435.08958
6430.261604
6430.73099
6434.307269
6433.4132
6431.356839
6431.200377
6435.223691
6433.010868
6429.926327
6427.802912
6428.048781
6429.211072
6428.16054
6429.725162
6435.201339
6434.195511
6430.842749
6430.485121
6433.524958
6434.843711
6430.842749
6430.172197
6436.810665
6443.896168
6445.013755
6442.085676
6449.171179
6456.144924
6460.615273
6461.531694
6460.347052
6458.938892
6456.837828
6452.12161
6453.14979
6459.967072
6466.22556
6460.212941
6456.368441
6462.202246
6463.923331
6462.917502
6461.509342
6463.498648
6464.929159
6462.314005
6457.776601
6459.117706
6460.302348
6458.625967
6456.323738
6456.659014
6461.241121
6460.414107
6458.044822
6460.905845
6464.258607
6462.738688
6457.731898
6459.251816
6464.526828
6464.705642
6460.861142
6459.117706
6466.516133
6468.773659
6463.096316
6462.716337
6466.314967
6467.678424
6466.426726
6465.040918
6467.63372
6468.885418
6465.532656
6463.543351
6464.102145
6470.405337
6472.014662
6468.572494
6461.464639
6464.258607
6469.779488
6468.058403
6470.695909
6475.613293
6474.205133
6469.891247
6468.684252
6476.261494
6474.830982
6467.253741
6469.55597
6473.579284
6476.619122
6471.545276
6470.852372
6472.171124
6471.120592
6468.371328
6466.650244
6468.594845
6474.071023
6471.008834
6462.403412
6459.94472
6464.727994
6466.784354
6466.270264
6466.896113
6466.426726
6466.583188
6470.584151
6476.708529
6477.066157
6468.773659
6465.107973
6461.062307
6460.034127
6464.817401
6465.733822
6463.476296
6466.270264
6472.23818
6472.193476
6467.857238
6468.237217
6469.891247
6467.030223
6462.693985
6466.538485
6478.027282
6480.083642
6470.204171
6464.258607
6466.337319
6463.14102
6458.938892
6462.962206
6474.093375
6479.390738
6472.819325
6467.566665
6473.601636
6479.658959
6475.143906
6467.901941
6471.679386
6472.193476
6468.304273
6465.420898
6463.051613
6465.532656
6467.186685
6470.226523
6475.926218
6481.447098
6477.468488
6472.707566
6474.115726
6476.261494
6476.350901
6473.691043
6473.042843
6474.898037
6475.613293
6475.143906
6478.407261
6478.295502
6479.748366
6478.295502
6474.428651
6479.144869
6483.838735
6481.33534
6475.032148
6477.557895
6479.860125
6480.463622
6481.760023
6482.765851
6482.028244
6476.842639
6470.248874
6476.663825
6482.87761
6485.559819
6484.688101
6479.636607
6476.663825
6478.943703
6482.430575
6481.33534
6481.536505
6481.581209
6474.026319
6469.734784
6476.21679
6482.899962
6481.178877
6479.994235
6482.162354
6486.163317
6478.787241
6475.143906
6475.434479
6482.542334
6483.101128
6479.524848
6473.802802
6476.328549
6476.619122
6474.316892
6471.075889
6470.785316
6476.820287
6477.870819
6477.222619
6478.742537
6481.916485
6480.463622
6478.809593
6476.887343
6476.753232
6479.480145
6477.155563
6472.640511
6473.467526
6472.841677
6477.289674
6484.956322
6476.999101
6464.862104
6454.759116
6449.260586
6451.518113
6447.852427
6435.827188
6426.305345
6425.053647
6425.433627
6413.475444
6402.456034
6406.479348
6410.346199
6406.546403
6406.948734
6405.473519
6406.524051
6408.222784
6403.506566
6406.702865
6412.961353
6412.111987
6409.385074
6408.468653
6411.687304
6411.553194
6404.981781
6405.853499
6410.659124
6411.687304
6408.155728
6408.446301
6415.129473
6418.772807
6416.425874
6412.134339
6408.267487
6406.702865
6402.836013
6406.814624
6412.849595
6415.330638
6412.290801
6410.212089
6412.40256
6411.955525
6410.681475
6407.306362
6407.641638
6413.676609
6418.392827
6414.101292
6413.140167
6419.71158
6420.158615
6413.341333
6408.155728
6412.447263
6414.056589
6412.134339
6414.213051
6419.286897
6421.276202
6412.134339
6402.590144
6402.187813
6402.545441
6395.817565
6387.055682
6388.910876
6392.710673
6388.240324
6384.239362
6387.145089
6395.504641
6397.181022
6393.940019
6393.023597
6394.901144
6392.665969
6389.804946
6387.860344
6388.597952
6393.895315
6395.594048
6395.862269
6400.600839
6397.918629
6394.118833
6392.688321
6398.209202
6396.108138
6392.665969
6392.621266
6391.928362
6395.348179
6393.850612
6391.883658
6394.677626
6402.008999
6407.28401
6401.360798
6394.185888
6396.756339
6399.684417
6396.599876
6392.889487
6396.666932
6394.878792
6394.051778
6396.018731
6400.645542
6399.572658
6394.968199
6393.582391
6398.05274
6397.225725
6395.482289
6396.309304
6398.276257
6401.047874
6399.103272
6395.147013
6394.655275
6401.494909
6401.070225
6396.510469
6396.577525
6404.244173
6405.965257
6398.879754
6392.80008
6393.850612
6402.41133
6408.580412
6403.841842
6398.477423
6397.829222
6399.259734
6399.773824
6402.008999
6407.28401
6403.797138
6401.584315
6404.311228
6398.745644
6400.511432
6406.76992
6412.782539
6418.862214
6426.126531
6433.122627
6443.985575
6451.004022
6453.865046
6446.019583
6443.605595
6448.210054
6453.485066
6452.367479
6448.098296
6451.182836
6457.597787
6448.567682
6443.650299
6451.22754
6456.591959
6456.4802
6450.445229
6445.527845
6451.272243
6455.541427
6447.941833
6450.132304
6454.021508
6449.662918
6438.397639
6436.855368
6443.985575
6452.501589
6455.474371
6455.787296
6454.200322
6454.781467
6451.808685
6448.679441
6450.154656
6453.909749
6453.909749
6450.378174
6450.445229
6450.780505
6456.256682
6454.982633
6451.831037
6453.239197
6452.903921
6446.891301
6444.43261
6450.400525
6456.435496
6454.379136
6450.422877
6453.105086
6456.390793
6454.580302
6448.41122
6447.830075
6455.921406
6458.178932
6457.709546
6455.139095
6451.026374
6454.110915
6457.731898
6461.129363
6465.689119
6457.597787
6450.244063
6452.859217
6461.062307
6462.895151
6455.630834
6453.686232
6452.948624
6456.279034
6461.755212
6462.135191
6457.50838
6454.803819
6455.876703
6456.368441
6457.910712
6460.972901
6456.949587
6453.14979
6457.553084
6456.882531
6452.881569
6448.120647
6449.931139
6456.927235
6461.174066
6456.99429
6464.079793
6463.029261
6457.240159
6451.249892
6451.205188
6456.770773
6456.882531
6452.814514
6451.585168
6454.200322
6458.290691
6455.809648
6455.697889
6456.949587
6458.871837
6462.023432
6463.14102
6464.705642
6461.844619
6457.977767
6453.909749
6453.306252
6457.553084
6458.290691
6451.36165
6452.143961
6460.190589
6461.039956
6460.078831
6458.491857
6459.631796
6457.933063
6452.456886
6453.2839
6460.727031
6457.798953
6454.826171
6458.089525
6465.555008
6467.097278
6462.358709
6459.29652
6458.000118
6460.972901
6460.391755
6457.977767
6459.274168
6467.320796
6465.175028
6459.274168
6459.341223
6467.589017
6464.370366
6459.29652
6459.073002
6460.950549
6462.38106
6460.548217
6465.085621
6464.437421
6462.738688
6457.418973
6453.797991
6456.61431
6459.676499
6460.436459
6460.503514
6462.314005
6460.011775
6458.424802
6462.783392
6474.361595
6472.394642
6459.631796
6452.725107
6457.486028
6464.325662
6465.867933
6463.118668
6455.787296
6458.491857
6463.409241
6459.676499
6457.441325
6459.162409
6463.811572
6461.889322
6456.10022
6455.429668
6460.3247
6461.934026
6460.078831
6464.817401
6464.906808
6455.429668
6452.12161
6456.61431
6461.330528
6462.515171
6461.241121
6460.347052
6466.940816
6466.896113
6461.129363
6456.882531
6457.642491
6455.697889
6448.388868
6442.175083
6447.494799
6458.558912
6469.131287
6468.550142
6466.538485
6470.785316
6472.975787
6475.501534
6481.067119
6487.839697
6490.633665
6495.394587
6492.466508
6487.727939
6484.375177
6481.357691
6484.196363
6490.074872
6494.858145
6491.728901
6493.338226
6494.634628
6496.176898
6492.690026
6488.018511
6489.113747
6490.030168
6491.214811
6487.638532
6489.091395
6493.718206
6489.493726
6485.381005
6490.879535
6495.036959
6490.834831
6487.638532
6486.856221
6490.119575
6491.415976
6489.650189
6490.097224
6490.410148
6488.13027
6482.631741
6480.687139
6487.593828
6493.137061
6489.203154
6484.822212
6487.325607
6488.107918
6483.302293
6479.770718
6485.604523
6486.878572
6480.843601
6481.871782
6483.212886
6483.212886
6481.670616
6478.921351
6476.172087
6475.769755
6479.457793
6482.564686
6486.185668
6488.040863
6483.816383
6479.077814
6476.149735
6480.553029
6482.207058
6478.943703
6476.037976
6480.173049
6480.508325
6482.87761
6485.917447
6476.395604
6468.080755
6469.533619
6468.192514
6470.651206
6469.891247
6471.969959
6477.177915
6480.307159
6478.183744
6473.065194
6467.432555
6469.131287
6474.428651
6475.032148
6467.991348
6462.202246
6464.236255
6468.594845
6470.517095
6470.137116
6469.019529
6465.57736
6460.503514
6454.423839
6457.284863
6465.532656
6466.560837
6461.151714
6467.834886
6468.617197
6459.251816
6451.384002
6455.608482
6459.94472
6461.196418
6459.900017
6461.822267
6461.710508
6456.99429
6452.456886
6453.708584
6463.185723
6465.331491
6461.35288
6455.831999
6458.827133
6458.827133
6454.870874
6451.428706
6455.831999
6463.588055
6464.772697
6453.596825
6447.89713
6452.412182
6453.038031
6450.177008
6452.278072
6453.306252
6460.749383
6466.426726
6459.520037
6453.999156
6452.434534
6450.020546
6456.703717
6464.772697
6461.911674
6458.78243
6453.999156
6451.965147
6455.183799
6453.596825
6448.053592
6448.500627
6451.808685
6451.071078
6447.315985
6445.885473
6449.506456
6453.686232
6452.725107
6457.955415
6460.615273
6451.138133
6441.884511
6444.633775
6453.082735
6458.625967
6456.927235
6454.826171
6458.603616
6460.525866
6458.491857
6453.976804
6454.267377
6458.894188
6458.40245
6449.148828
6445.5949
6456.033165
6465.264435
6459.654148
6452.322775
6448.41122
6447.852427
6445.796066
6447.673613
6451.696927
6453.842694
6456.390793
6459.43063
6457.754249
6459.363575
6452.926273
6448.500627
6450.355822
6450.33347
6449.014717
6445.639604
6445.371383
6461.062307
6463.208075
6455.608482
6455.20615
6460.83879
6460.83879
6455.228502
6454.669709
6459.922369
6456.279034
6438.28588
6440.476351
6453.52977
6459.05065
6454.289729
6453.954453
6454.848523
6452.479238
6444.767886
6444.18674
6450.758153
6456.793124
6457.597787
6455.049688
6450.109953
6444.879644
6444.969051
6449.707621
6456.279034
6458.648319
6454.580302
6453.127438
6449.126476
6448.165351
6446.712488
6439.381115
6437.660031
6449.998194
6454.602653
6444.969051
6443.382078
6451.138133
6446.980708
6438.218825
6438.79997
6443.873816
6451.294595
6450.042897
6440.789275
6441.683345
6440.744572
6435.268394
6433.614365
6445.036107
6449.126476
6448.567682
6443.605595
6440.677517
6443.873816
6442.912691
6440.610461
6442.488008
6442.957394
6442.398601
6439.626985
6441.057496
6449.104124
6450.959319
6443.404429
6439.112894
6441.213958
6445.371383
6444.164389
6439.448171
6448.388868
6453.462714
6444.924348
6438.66586
6442.666822
6445.550197
6446.10899
6442.935043
6441.795104
6443.180912
6446.936005
6448.590034
6445.97488
6447.00306
6447.092467
6436.050705
6430.328659
6438.554101
6447.51715
6444.589072
6443.739706
6447.315985
6448.210054
6437.794142
6434.910766
6439.895205
6446.757191
6442.689174
6441.035144
6445.863121
6446.176046
6441.728049
6440.85633
6443.985575
6448.03124
6450.780505
6445.796066
6437.525921
6431.356839
6433.346144
6434.307269
6434.709601
6441.23631
6440.990441
6434.128455
6432.250909
6438.710563
6444.343203
6441.415124
6438.218825
6440.163426
6439.068191
6431.848577
6433.92729
6444.700831
6446.913653
6443.069153
6436.229519
6430.619232
6427.154711
6433.212034
6439.716392
6440.118723
6440.051668
6439.068191
6435.603671
6434.039048
6436.318926
6437.548272
6433.457903
6435.313098
6442.085676
6439.492874
6428.719333
6424.852481
6430.663935
6438.062362
6437.592976
6437.972955
6442.018621
6438.710563
6425.634793
6415.509452
6426.88649
6443.091505
6445.930176
6440.275185
6438.732915
6441.526883
6443.583243
6435.46956
6429.70281
6432.13915
6435.201339
6437.168293
6438.28588
6439.336412
6439.291708
6434.150807
6426.998249
6427.489987
6437.168293
6443.404429
6437.123589
6430.641583
6429.903976
6429.456941
6432.183854
6436.36363
6437.548272
6437.369458
6432.228557
6430.954508
6434.754304
6441.146903
6432.630889
6427.154711
6432.250909
6435.760133
6429.613403
6424.651316
6431.580357
6439.716392
6441.012793
6436.385982
6436.050705
6434.463732
6430.663935
6426.819435
6436.475389
6445.103162
6444.007926
6440.34224
6442.175083
6442.309194
6439.716392
6429.434589
6426.148883
6447.673613
6458.715374
6448.210054
6431.11097
6431.356839
6441.012793
6438.911729
6437.838845
6443.203264
6445.281976
6437.592976
6433.681421
6439.157598
6443.382078
6439.626985
6434.687249
6435.46956
6442.398601
6450.422877
6443.315022
6434.687249
6434.486083
6435.804836
6434.419028
6441.795104
6447.539502
6440.699868
6434.866063
6430.842749
6434.776656
6441.348069
6440.453999
6433.793179
6435.804836
6442.13038
6440.811627
6437.078886
6430.59688
6437.056534
6444.767886
6441.057496
6440.945737
6444.522017
6440.297537
6434.821359
6440.006964
6441.124551
6439.358764
6436.274223
6433.703772
6435.313098
6438.554101
6441.61629
6437.704735
6432.228557
6437.615328
6439.112894
6437.883548
6437.168293
6437.101237
6433.860234
6433.100275
6432.094447
6439.604633
6435.804836
6427.110008
6425.34422
6428.786388
6433.92729
6436.028354
6439.448171
6441.571586
6443.739706
6436.833016
6435.08958
6438.710563
6439.068191
6437.436514
6436.520092
6441.303365
6440.565758
6435.804836
6434.530787
6438.66586
6441.61629
6439.17995
6440.677517
6442.957394
6443.471485
6439.626985
6437.749438
6437.123589
6438.844673
6441.348069
6438.330583
6439.336412
6442.778581
6441.23631
6437.615328
6435.916595
6440.163426
6442.845636
6434.351973
6427.467636
6435.46956
6440.275185
6443.136208
6440.543406
6440.789275
6441.169255
6434.150807
6432.116798
6436.430685
6442.689174
6445.393735
6442.018621
6438.397639
6439.582281
6438.732915
6430.328659
6431.49095
6442.197435
6443.851464
6435.268394
6435.938947
6439.17995
6436.765961
6432.362668
6436.006002
6437.995307
6441.415124
6439.112894
6436.74361
6443.985575
6446.645432
6442.800932
6438.062362
6440.677517
6445.796066
6443.426781
6435.402505
6439.604633
6446.198397
6449.30529
6452.389831
6450.042897
6445.97488
6440.968089
6437.503569
6444.834941
6452.233368
6445.08081
6431.893281
6438.487046
6444.969051
6442.063325
6437.77179
6441.884511
6444.633775
6444.477313
6445.5949
6441.61629
6440.118723
6444.56672
6445.885473
6441.728049
6442.197435
6446.48897
6450.534636
6450.288767
6449.059421
6445.527845
6446.757191
6439.626985
6440.565758
6448.880607
6452.009851
6449.104124
6446.980708
6445.170217
6449.126476
6448.657089
6447.092467
6454.379136
6452.680403
6446.891301
6444.231444
6449.014717
6453.038031
6447.271281
6446.041935
6449.4394
6453.820342
6455.228502
6450.221711
6448.344165
6448.008889
6447.941833
6445.103162
6447.204226
6450.512284
6450.892264
6447.830075
6441.348069
6442.465656
6451.36165
6452.479238
6448.947662
6449.30529
6453.395659
6451.182836
6445.97488
6442.040973
6447.450095
6445.237272
6442.756229
6445.661956
6446.019583
6441.593938
6439.515226
6442.867987
6450.601691
6444.074982
6435.536615
6435.871891
6441.146903
6440.074019
6437.324755
6445.237272
6450.221711
6448.880607
6448.612386
6441.973918
6444.410258
6446.265453
6441.795104
6443.896168
6444.365554
6446.556025
6447.248929
6447.740668
6448.545331
6449.238235
6449.774677
6443.02445
6441.973918
6446.48897
6448.455924
6444.253796
6441.772752
6445.952528
6444.924348
6443.180912
6442.51036
6445.550197
6444.320851
6438.241176
6434.307269
6437.2577
6434.754304
6430.060438
6428.115836
6432.720296
6439.738743
6440.006964
6429.70281
6428.428761
6433.234386
6434.821359
6438.93408
6444.477313
6443.762057
6440.118723
6431.334487
6425.366572
6434.799008
6442.912691
6439.82815
6432.407371
6433.480255
6440.677517
6438.28588
6431.021563
6432.764999
6436.900072
6436.251871
6429.658107
6429.5687
6441.862159
6442.219787
6430.686287
6429.278127
6432.13915
6442.622118
6446.220749
6437.481217
6435.827188
6438.554101
6434.396676
6435.178987
6437.816493
6436.87772
6432.586185
6434.195511
6440.677517
6444.611424
6440.990441
6438.688211
6445.773714
6442.353897
6434.016697
6431.021563
6433.301441
6437.704735
6435.98365
6434.754304
6435.067229
6443.695002
6444.209092
6437.212996
6436.341278
6444.18674
6444.544368
6433.502607
6433.03322
6441.437476
6444.43261
6439.470522
6431.826226
6435.581319
6445.192569
6443.627947
6438.889377
6444.879644
6448.41122
6450.84756
6450.735802
6454.289729
6457.687194
6451.540464
6452.233368
6458.648319
6463.409241
6462.314005
6454.647357
6450.802857
6452.702755
6452.948624
6452.009851
6450.445229
6455.764944
6457.955415
6453.753287
6450.959319
6450.892264
6453.865046
6452.970976
6450.624043
6454.379136
6459.140057
6457.553084
6447.76302
6446.779543
6455.407316
6456.211979
6449.68527
6448.590034
6452.702755
6456.279034
6456.144924
6453.775639
6453.909749
6460.257645
6455.049688
6455.541427
6457.620139
6453.596825
6449.349993
6446.757191
6452.12161
6458.871837
6457.1284
6455.58613
6460.436459
6460.928197
6449.059421
6435.111932
6430.887452
6438.822322
6436.318926
6428.942851
6425.232461
6432.586185
6437.369458
6436.49774
6437.39181
6433.592014
6431.692115
6429.211072
6425.99242
6431.066266
6433.971993
6434.530787
6434.217862
6435.000173
6434.642546
6429.546348
6426.171234
6430.418066
6431.49095
6428.652278
6426.3724
6429.32283
6432.854406
6432.362668
6426.707676
6424.45015
6433.055572
6432.966165
6426.305345
6421.656182
6425.925365
6429.70281
6426.3724
6424.96424
6428.227595
6430.686287
6430.798045
6432.385019
6439.559929
6440.409296
6432.809702
6421.902051
6422.840824
6427.869967
6431.423894
6429.278127
6430.574528
6429.792217
6428.540519
6427.087656
6427.64645
6435.201339
6432.362668
6423.377266
6420.292726
6422.572604
6426.327697
6425.612441
6428.831092
6433.659069
6433.815531
6424.897185
6425.031295
6430.641583
6434.217862
6431.893281
6423.354915
6421.387961
6426.975897
6430.932156
6427.355877
6426.88649
6429.211072
6427.422932
6425.746551
6421.857348
6422.863176
6423.354915
6421.231499
6420.47154
6423.533729
6431.24508
6428.227595
6424.986592
6426.037124
6428.339354
6424.405447
6424.673668
6426.685325
6423.824301
6421.767941
6420.203319
6423.869005
6424.248984
6421.432665
6419.733932
6422.371438
6426.171234
6429.859272
6430.395714
6428.898147
6437.458865
6447.830075
6443.650299
6435.357801
6439.783447
6448.970014
6444.074982
6440.096371
6447.00306
6451.562816
6445.751363
6444.410258
6447.047764
6449.349993
6449.707621
6448.210054
6448.321813
6448.634738
6444.007926
6439.984612
6447.137171
6451.674575
6449.484104
6447.539502
6445.036107
6448.366517
6445.550197
6437.212996
6437.280051
6444.097333
6447.584206
6444.097333
6440.945737
6447.338336
6455.653185
6450.668746
6446.891301
6447.047764
6446.086639
6445.907825
6441.169255
6439.872854
6443.404429
6442.711525
6437.034182
6436.251871
6441.683345
6443.426781
6439.381115
6441.951566
6446.801895
6446.824246
6441.772752
6438.28588
6441.1022
6445.661956
6448.321813
6444.790238
6441.348069
6446.377211
6446.801895
6438.330583
6434.642546
6437.212996
6439.649336
6440.275185
6447.606557
6444.723182
6436.475389
6436.587147
6439.269357
6442.532711
6440.901034
6436.408333
6441.728049
6452.6357
6456.211979
6451.071078
6441.862159
6439.336412
6443.985575
6443.069153
6438.531749
6447.76302
6456.368441
6450.780505
6442.242139
6442.867987
6443.695002
6443.695002
6441.951566
6444.879644
6448.232406
6442.935043
6438.66586
6439.17995
6438.889377
6434.419028
6429.144016
6428.607575
6435.357801
6440.051668
6437.77179
6434.039048
6432.51913
6431.200377
6433.03322
6427.422932
6428.384057
6437.883548
6441.079848
6431.066266
6423.667839
6430.909804
6435.536615
6432.832054
6436.050705
6434.977822
6433.681421
6429.211072
6430.887452
6435.357801
6434.128455
6430.283955
6427.825263
6433.457903
6437.77179
6430.351011
6431.401543
6431.915633
6430.2169
6430.194548
6431.49095
6428.182891
6430.529825
6429.725162
6427.042952
6430.552176
6435.626022
6434.128455
6429.054609
6429.725162
6436.050705
6435.313098
6426.975897
6426.037124
6427.668801
6422.617307
6421.678534
6428.093484
6432.630889
6431.781522
6431.043915
6431.043915
6432.072095
6430.798045
6426.864138
6424.137226
6430.954508
6435.916595
6427.154711
6417.588165
6426.417104
6434.799008
6432.340316
6425.500682
6425.746551
6430.239252
6429.456941
6429.635755
6432.452075
6429.434589
6424.852481
6424.696019
6426.819435
6430.395714
6436.989479
6433.815531
6431.021563
6430.775694
6429.233423
6422.01381
6423.42197
6437.056534
6437.056534
6428.831092
6426.573566
6428.495816
6428.607575
6427.579394
6425.321868
6429.83692
6436.274223
6437.77179
6431.803874
6427.534691
6433.703772
6439.112894
6434.396676
6425.657144
6427.959374
6431.24508
6430.060438
6427.378229
6434.396676
6442.26449
6439.269357
6429.769865
6433.54731
6438.263528
6436.676554
6429.546348
6431.580357
6438.487046
6438.107066
6438.710563
6443.203264
6445.930176
6438.442342
6433.726124
6437.592976
6443.069153
6442.890339
6441.415124
6441.973918
6441.348069
6439.470522
6435.894243
6436.698906
6437.77179
6436.385982
6433.837883
6438.040011
6449.573511
6447.852427
6436.721258
6431.379191
6437.458865
6446.712488
6450.892264
6447.271281
6442.242139
6438.196473
6440.833979
6444.611424
6445.036107
6445.84077
6444.007926
6438.710563
6438.375287
6442.085676
6446.600729
6446.511322
6446.556025
6449.528807
6455.273206
6451.987499
6447.561854
6447.38304
6446.913653
6444.18674
6438.66586
6442.085676
6450.981671
6454.401488
6453.52977
6455.340261
6455.317909
6447.338336
6442.666822
6444.589072
6445.818418
6447.293633
6447.673613
6445.527845
6446.779543
6451.60752
6453.507418
6452.367479
6443.449133
6444.454961
6448.142999
6446.377211
6446.600729
6454.55795
6456.61431
6446.913653
6439.671688
6437.369458
6442.577415
6443.739706
6447.494799
6453.306252
6449.126476
6443.203264
6440.185778
6442.085676
6440.677517
6445.036107
6452.367479
6455.429668
6448.612386
6444.410258
6445.527845
6451.249892
6451.540464
6451.004022
6445.729011
6452.479238
6448.768848
6440.655165
6441.124551
6445.773714
6449.193531
6451.518113
6447.450095
6444.879644
6449.640566
6449.081772
6440.945737
6444.209092
6447.204226
6443.918519
6443.695002
6446.533674
6449.014717
6447.137171
6445.907825
6448.679441
6447.651261
6447.204226
6449.729973
6447.338336
6450.556988
6452.702755
6451.540464
6443.337374
6439.202301
6444.365554
6448.500627
6450.400525
6451.339299
6455.831999
6454.93793
6443.53854
6443.605595
6448.433572
6451.875741
6446.533674
6442.465656
6448.053592
6449.282938
6440.543406
6441.191607
6449.238235
6452.456886
6443.605595
6439.649336
6444.320851
6450.914616
6446.265453
6442.756229
6449.037069
6452.523941
6449.081772
6444.320851
6445.438438
6448.299461
6448.567682
6444.857293
6445.371383
6451.875741
6454.826171
6452.680403
6447.986537
6449.215883
6455.116743
6455.094392
6450.512284
6455.407316
6458.491857
6453.239197
6444.164389
6444.387906
6453.976804
6453.14979
6448.545331
6449.327642
6452.233368
6454.155618
6453.708584
6452.76981
6452.076906
6454.714412
6452.814514
6450.288767
6450.020546
6450.445229
6450.489932
6450.802857
6455.273206
6456.882531
6451.674575
6448.165351
6455.608482
6459.341223
6453.932101
6449.729973
6453.261549
6458.983595
6459.29652
6452.300424
6450.221711
6449.841732
6451.585168
6446.734839
6441.437476
6441.392772
6447.561854
6449.394697
6446.511322
6449.238235
6454.602653
6448.835903
6443.963223
6446.667784
6452.613348
6450.556988
6443.918519
6446.310156
6444.298499
6444.030278
6444.857293
6451.875741
6452.25572
6448.567682
6446.198397
6443.806761
6447.271281
6452.25572
6448.344165
6445.505493
6447.271281
6448.902959
6443.359726
6435.313098
6440.901034
6440.565758
6438.040011
6442.555063
6449.752325
6447.76302
6447.092467
6443.02445
6441.459828
6440.409296
6435.558967
6429.479293
6437.168293
6448.232406
6445.773714
6434.016697
6431.401543
6438.732915
6441.325717
6438.777618
6437.369458
6437.637679
6434.754304
6428.875795
6431.24508
6437.883548
6439.783447
6433.524958
6427.557043
6431.62506
6434.553139
6430.686287
6426.193586
6432.072095
6444.410258
6439.537578
6432.787351
6435.268394
6439.068191
6435.156636
6431.356839
6436.609499
6443.069153
6441.929214
6433.54731
6428.384057
6431.736819
6434.0614
6435.98365
6434.329621
6438.822322
6436.922423
6432.854406
6432.206205
6437.2577
6443.136208
6439.492874
6431.200377
6433.636717
6439.939909
6438.487046
6430.619232
6436.564796
6445.5949
6446.779543
6437.123589
6431.446246
6435.961298
6437.615328
6435.178987
6433.234386
6438.196473
6440.498703
6437.525921
6431.736819
6432.183854
6437.704735
6439.448171
6435.871891
6435.693078
6440.34224
6438.621156
6434.307269
6434.195511
6438.040011
6436.028354
6430.283955
6431.602708
6436.49774
6432.385019
6427.378229
6426.88649
6432.809702
6432.00504
6428.451112
6427.311173
6427.333525
6426.595918
6423.779598
6427.624098
6434.150807
6436.922423
6429.032258
6430.172197
6433.815531
6430.619232
6425.612441
6425.34422
6432.429723
6433.569662
6430.909804
6428.629926
6430.127493
6434.933118
6442.823284
6441.571586
6437.9059
6439.269357
6445.170217
6446.891301
6447.986537
6450.109953
6447.494799
6440.699868
6436.49774
6440.20813
6445.483142
6440.766924
6430.194548
6429.099313
6432.966165
6435.201339
6434.977822
6439.224653
6443.985575
6444.767886
6437.190644
6435.246043
6439.31406
6438.263528
6436.36363
6438.554101
6447.450095
6450.71345
6442.420953
6435.268394
6435.84954
6435.804836
6434.039048
6434.642546
6437.324755
6440.543406
6442.040973
6438.017659
6439.783447
6440.118723
6437.548272
6433.279089
6438.308232
6441.728049
6435.648374
6430.038086
6433.994345
6444.18674
6446.958357
6442.398601
6441.817456
6443.069153
6440.565758
6431.803874
6431.021563
6437.056534
6439.336412
6436.475389
6432.697944
6430.753342
6434.083752
6434.530787
6428.428761
6426.975897
6430.820397
6425.657144
6417.297592
6419.532766
6417.699923
6421.007981
6417.699923
6418.392827
6419.510415
6417.78933
6412.134339
6411.106159
6416.38117
6420.337429
6418.370476
6417.051723
6418.482234
6417.208185
6411.597897
6410.681475
6414.704789
6412.827243
6410.10033
6410.703827
6416.045894
6421.276202
6417.856385
6414.168348
6419.041028
6427.445284
6424.092522
6410.949696
6413.363685
6421.231499
6422.729066
6418.929269
6413.318981
6416.425874
6418.661048
6414.011885
6409.340371
6416.917612
6423.42197
6421.63383
6421.142092
6419.510415
6421.678534
6419.71158
6418.593993
6421.857348
6421.857348
6417.431702
6414.078941
6413.698961
6417.834034
6419.376304
6414.928307
6417.096426
6425.634793
6432.340316
6428.652278
6427.311173
6429.144016
6431.915633
6433.636717
6433.793179
6436.117761
6433.748476
6426.081827
6427.199415
6431.24508
6429.948679
6424.673668
6425.634793
6434.843711
6434.553139
6425.143054
6419.935098
6423.399618
6429.5687
6428.652278
6423.533729
6426.126531
6429.412237
6428.875795
6423.846653
6419.219842
6422.594955
6423.980763
6420.98563
6423.086694
6431.021563
6434.508435
6430.686287
6427.333525
6428.16054
6426.573566
6422.01381
6421.969106
6423.757246
6427.110008
6430.127493
6422.282031
6423.690191
6427.847615
6423.958412
6425.210109
6426.595918
6431.043915
6433.904938
6417.968144
6413.073112
6409.697999
6404.802967
6391.101347
6387.837993
6392.554211
6388.419138
6379.724309
6372.281179
6369.934245
6368.906065
6366.02269
6368.213161
6372.392937
6377.243266
6376.192734
6375.432774
6377.623245
6377.42208
6371.78944
6363.787516
6361.708803
6368.771955
6372.057661
6367.922588
6367.140277
6372.549399
6372.459992
6364.905103
6362.535818
6367.073222
6371.834144
6368.034347
6368.749603
6373.33171
6373.287007
6368.97312
6362.625225
6368.481382
6374.136373
6372.661158
6365.441545
6366.91676
6370.38128
6368.079051
6362.714632
6363.563998
6369.598969
6375.075147
6372.459992
6368.771955
6371.834144
6372.392937
6369.755431
6365.955635
6367.922588
6365.016862
6357.640786
6357.976062
6364.905103
6370.76126
6369.978949
6367.095574
6369.688376
6370.805963
6366.514428
6361.932321
6365.687414
6369.040176
6364.413364
6361.977024
6368.034347
6370.224818
6368.302568
6365.910931
6364.770992
6371.588274
6377.399728
6375.700995
6373.018786
6371.78944
6373.085841
6370.113059
6368.32492
6371.454164
6369.844838
6365.88858
6367.028519
6370.493039
6372.728213
6372.281179
6370.76126
6373.421117
6378.07028
6375.879809
6370.89537
6376.416251
6387.9274
6391.436624
6392.621266
6399.237382
6409.094502
6413.698961
6413.073112
6409.630943
6412.514319
6412.626077
6416.984667
6415.151824
6413.386037
6411.933173
6411.620249
6412.491967
6415.576508
6418.16931
6416.291763
6412.827243
6411.709656
6409.183909
6407.216955
6407.976914
6414.123644
6417.185833
6418.124606
6415.621211
6412.380208
6412.983705
6414.928307
6414.883603
6412.871946
6410.279144
6411.284973
6410.793234
6408.379246
6415.911784
6420.493891
6410.726179
6405.428816
6409.094502
6413.184871
6413.363685
6411.776711
6412.134339
6418.16931
6418.504586
6408.468653
6408.69217
6413.006057
6411.463787
6405.160595
6402.813661
6404.512394
6408.245135
6409.07215
6409.116853
6416.157653
6423.645487
6415.084769
6408.267487
6412.782539
6413.520147
6410.212089
6409.07215
6413.162519
6418.81751
6417.901089
6410.770882
6412.693132
6415.911784
6418.54929
6416.023542
6415.911784
6417.27524
6415.241231
6412.067284
6412.357856
6416.470577
6417.498758
6415.800025
6416.045894
6417.319944
6414.481272
6409.608592
6411.106159
6419.488063
6425.813606
6424.986592
6421.700885
6423.869005
6422.080865
6415.621211
6409.675647
6410.837938
6417.431702
6418.750455
6417.521109
6418.661048
6421.209147
6422.751417
6418.482234
6409.832109
6403.9536
6413.184871
6422.729066
6431.289784
6438.66586
6436.229519
6432.966165
6429.747514
6428.317002
6433.212034
6430.351011
6424.785426
6427.713505
6436.833016
6441.437476
6433.748476
6430.015734
6430.507473
6431.334487
6429.121665
6429.121665
6428.406409
6430.127493
6429.993383
6427.221766
6429.009906
6430.574528
6430.708639
6420.359781
6417.923441
6424.271336
6427.937022
6427.78056
6429.255775
6430.909804
6430.574528
6426.506511
6429.926327
6430.351011
6425.813606
6424.539557
6428.16054
6434.620194
6434.106104
6429.948679
6424.159577
6426.998249
6431.513301
6426.081827
6420.650354
6428.629926
6432.049743
6426.998249
6421.209147
6420.136263
6421.611479
6423.757246
6420.292726
6425.746551
6431.513301
6433.92729
6430.373362
6428.696982
6432.988516
6429.5687
6423.846653
6421.63383
6425.433627
6431.669764
6425.746551
6426.595918
6429.725162
6425.813606
6418.593993
6417.208185
6420.851519
6420.628002
6414.078941
6411.843766
6412.201394
6417.319944
6418.661048
6419.465711
6427.26647
6423.734894
6414.436569
6410.882641
6413.341333
6418.370476
6416.180005
6416.135301
6420.046856
6421.946755
6416.76115
6411.329676
6416.24706
6422.594955
6421.320906
6421.49972
6421.49972
6425.701848
6430.59688
6423.846653
6418.929269
6423.869005
6428.942851
6429.32283
6422.192624
6418.079903
6417.945792
6421.298554
6425.523034
6427.534691
6428.339354
6430.418066
6428.831092
6419.041028
6417.834034
6422.885528
6421.007981
6420.270374
6422.505548
6427.065304
6423.533729
6417.856385
6419.018676
6422.282031
6425.746551
6424.204281
6426.528862
6427.445284
6420.22567
6418.884566
6423.980763
6423.779598
6419.19749
6415.285935
6426.730028
6435.000173
6424.092522
6415.35299
6415.241231
6422.997287
6423.176101
6418.437531
6420.672705
6427.512339
6425.232461
6415.822377
6417.878737
6421.142092
6421.522072
6419.778635
6415.017714
6418.839862
6424.047819
6422.214976
6418.862214
6415.241231
6419.331601
6423.064342
6416.425874
6406.099368
6404.132414
6404.802967
6406.658161
6404.981781
6406.25583
6407.932211
6407.328714
6403.059531
6406.099368
6407.887507
6406.926382
6405.74174
6410.949696
6413.922478
6416.492929
6414.593031
6410.592069
6408.736874
6404.802967
6405.629981
6411.776711
6412.849595
6411.50849
6408.200432
6407.66399
6415.129473
6417.610516
6405.294705
6403.461862
6409.809757
6409.340371
6407.574583
6407.999266
6410.726179
6408.04397
6405.853499
6407.462824
6412.179042
6412.111987
6411.732007
6410.949696
6414.168348
6417.945792
6413.587202
6409.697999
6409.094502
6409.049798
6400.131452
6401.852536
6413.29663
6419.152787
6412.40256
6407.105196
6405.585278
6408.423949
6406.524051
6403.841842
6406.926382
6412.804891
6417.454054
6415.308287
6405.540574
6400.265563
6405.652333
6411.217917
6413.520147
6414.97301
6413.587202
6410.949696
6407.753397
6405.629981
6410.077978
6410.48031
6411.37438
6412.91665
6415.308287
6414.011885
6412.514319
6414.078941
6412.223746
6408.602763
6406.032313
6405.36176
6410.882641
6416.448226
6411.664952
6407.015789
6408.736874
6408.356894
6410.122682
6410.010923
6413.788368
6416.045894
6414.257755
6409.049798
6406.926382
6409.20626
6409.899164
6407.999266
6411.463787
6418.281069
6417.834034
6411.284973
6404.221821
6407.216955
6410.346199
6406.702865
6409.228612
6411.866118
6408.781577
6408.535708
6409.787406
6410.413255
6408.55806
6403.461862
6403.104234
6409.20626
6416.492929
6415.062417
6409.295667
6410.301496
6418.839862
6423.243156
6417.856385
6412.804891
6407.954563
6407.507528
6408.334542
6416.045894
6419.488063
6416.984667
6414.637734
6414.213051
6422.550252
6425.47833
6422.863176
6418.057551
6418.705752
6424.248984
6425.835958
6421.879699
6417.588165
6419.264545
6425.634793
6424.181929
6426.104179
6430.261604
6431.401543
6427.624098
6421.589127
6421.410313
6421.276202
6419.845691
6423.846653
6428.831092
6430.105141
6426.126531
6423.310211
6427.154711
6427.892319
6421.365609
6414.525976
6416.828205
6422.952583
6422.662011
6422.5279
6426.75238
6428.942851
6427.668801
6421.857348
6426.148883
6432.943813
6425.500682
6417.923441
6417.476406
6425.143054
6429.523996
6424.07017
6422.840824
6425.880662
6426.931194
6425.031295
6426.662973
6429.613403
6428.652278
6423.846653
6421.007981
6421.209147
6424.07017
6422.684362
6419.957449
6420.851519
6423.310211
6423.511377
6415.710618
6416.582336
6426.439455
6431.915633
6428.495816
6422.550252
6418.705752
6423.399618
6424.763074
6426.975897
6430.619232
6422.885528
6419.57747
6421.253851
6425.500682
6430.283955
6426.75238
6421.544423
6426.215938
6430.440418
6423.399618
6418.705752
6424.584261
6429.993383
6428.227595
6424.383095
6424.31604
6427.467636
6428.384057
6423.645487
6420.069208
6424.137226
6426.595918
6425.545386
6426.014772
6425.768903
6426.841787
6429.434589
6431.960336
6439.336412
6433.189682
6421.834996
6423.757246
6433.726124
6434.284918
6431.356839
6430.105141
6429.903976
6434.843711
6432.899109
6425.947717
6426.327697
6431.222729
6433.077923
6427.78056
6429.546348
6431.803874
6435.760133
6431.401543
6429.5687
6434.0614
6432.787351
6431.356839
6433.92729
6434.620194
6432.630889
6431.446246
6429.83692
6435.022525
6436.788313
6431.066266
6432.049743
6432.072095
6435.313098
6437.101237
6425.143054
6420.449188
6427.489987
6430.775694
6427.333525
6427.802912
6429.099313
6434.419028
6432.027391
6431.379191
6432.921461
6431.781522
6426.707676
6423.645487
6427.333525
6430.842749
6428.384057
6427.534691
6424.696019
6427.445284
6426.640621
6422.90788
6419.666877
6426.3724
6423.578432
6420.069208
6423.913708
6426.193586
6427.042952
6421.678534
6423.712542
6426.774731
6424.740723
6420.851519
6422.170272
6421.186795
6418.839862
6413.162519
6414.749493
6422.5279
6426.931194
6429.054609
6428.987554
6432.13915
6431.088618
6422.058513
6416.157653
6419.756284
6425.098351
6423.690191
6420.873871
6425.970069
6429.434589
6428.361705
6425.433627
6426.707676
6430.663935
6432.742647
6428.227595
6420.918574
6424.45015
6436.430685
6433.4132
6424.383095
6425.523034
6428.987554
6428.853444
6429.412237
6435.670726
6434.351973
6426.037124
6422.438493
6429.769865
6435.804836
6429.278127
6422.974935
6423.846653
6427.422932
6424.472502
6427.087656
6430.060438
6435.84954
6436.765961
6429.456941
6429.523996
6430.194548
6427.937022
6422.863176
6429.345182
6435.894243
6430.395714
6426.282993
6426.417104
6429.881624
6433.480255
6431.334487
6421.11974
6421.611479
6428.272298
6427.624098
6424.96424
6423.913708
6423.958412
6425.634793
6425.925365
6425.299516
6430.172197
6425.299516
6423.04199
6425.366572
6427.445284
6428.942851
6429.389886
6432.116798
6428.339354
6430.395714
6424.696019
6419.286897
6428.16054
6437.950604
6431.222729
6423.980763
6417.27524
6422.5279
6426.88649
6423.399618
6422.125569
6422.840824
6420.22567
6417.78933
6419.219842
6419.935098
6420.069208
6419.957449
6422.416141
6425.031295
6424.293688
6415.308287
6407.7981
6410.212089
6419.219842
6425.277165
6428.272298
6423.198452
6420.270374
6418.571641
6410.972048
6412.894298
6418.012848
6417.834034
6415.263583
6416.738798
6418.638697
6417.27524
6418.146958
6417.990496
6419.890394
6422.080865
6416.425874
6409.876813
6414.749493
6418.258717
6421.49972
6417.699923
6415.844728
6417.096426
6413.251926
6409.116853
6414.905955
6423.757246
6425.031295
6418.884566
6417.14113
6417.65522
6418.482234
6412.53667
6412.559022
6418.236365
6421.857348
6421.253851
6424.159577
6424.405447
6424.092522
6419.443359
6415.531804
6419.108083
6424.785426
6425.634793
6426.037124
6430.172197
6429.881624
6426.595918
6422.90788
6424.919537
6421.857348
6416.872909
6416.783502
6423.42197
6430.887452
6427.892319
6423.176101
6417.923441
6421.164444
6423.04199
6418.884566
6418.16931
6422.885528
6424.740723
6421.745589
6417.27524
6420.851519
6426.864138
6423.801949
6414.436569
6416.805853
6421.879699
6417.968144
6416.023542
6422.617307
6426.461807
6426.864138
6421.410313
6421.902051
6425.187758
6424.628964
6420.672705
6417.990496
6419.644525
6418.839862
6417.543461
6420.851519
6421.477368
6426.350048
6428.987554
6428.696982
6428.361705
6428.249947
6425.634793
6420.22567
6423.734894
6431.602708
6430.351011
6424.137226
6427.378229
6435.558967
6435.357801
6426.595918
6422.058513
6426.774731
6426.394752
6427.020601
6428.652278
6430.999211
6431.043915
6433.077923
6428.115836
6425.701848
6430.73099
6434.262566
6433.592014
6432.295612
6435.357801
6433.54731
6432.541482
6437.749438
6436.006002
6429.054609
6426.260641
6427.489987
6430.820397
6432.228557
6431.066266
6430.373362
6432.921461
6432.832054
6431.736819
6437.168293
6442.756229
6434.910766
6424.003115
6422.505548
6430.909804
6435.46956
6433.726124
6431.960336
6431.312136
6437.548272
6434.150807
6427.735857
6423.757246
6429.099313
6432.027391
6431.021563
6430.686287
6430.507473
6431.222729
6429.792217
6430.015734
6436.49774
6429.725162
6422.14792
6421.700885
6425.411275
6428.048781
6423.533729
6422.483197
6428.898147
6429.456941
6427.758208
6425.500682
6429.948679
6431.759171
6427.154711
6424.561909
6426.595918
6428.473464
6430.574528
6426.528862
6422.684362
6426.75238
6427.333525
6424.763074
6422.840824
6430.127493
6432.966165
6428.317002
6427.199415
6427.869967
6427.713505
6425.232461
6422.997287
6426.215938
6431.759171
6425.679496
6422.796121
6427.154711
6426.059476
6423.354915
6420.069208
6426.640621
6433.904938
6431.446246
6418.102255
6416.425874
6427.221766
6429.83692
6423.109045
6417.096426
6419.890394
6423.869005
6425.947717
6426.662973
6436.810665
6432.764999
6421.834996
6417.811682
6417.923441
6417.051723
6415.375342
6418.392827
6425.880662
6426.327697
6419.733932
6416.38117
6420.784464
6422.974935
6421.49972
6417.722275
6421.611479
6428.875795
6427.40058
6419.957449
6415.330638
6416.716446
6415.174176
6411.799063
6419.666877
6427.78056
6425.143054
6420.22567
6415.800025
6417.431702
6419.733932
6417.454054
6413.654257
6413.94483
6428.540519
6432.742647
6429.434589
6439.492874
6449.4394
6449.394697
6446.801895
6455.049688
6466.784354
6464.638587
6462.023432
6462.470467
6468.706604
6469.354805
6465.57736
6464.638587
6464.482124
6467.723127
6466.046746
6463.386889
6464.68329
6468.863066
6463.744517
6461.464639
6468.572494
6471.277055
6467.141982
6465.264435
6468.885418
6468.840715
6465.219732
6461.017604
6462.984558
6462.62693
6461.062307
6463.65511
6472.126421
6473.40047
6469.019529
6472.908732
6476.932046
6482.698796
6489.247857
6488.487898
6493.360578
6503.172994
6512.203099
6511.599602
6506.793977
6516.092302
6518.193366
6514.058294
6510.124387
6509.252669
6511.130215
6508.023323
6504.78232
6508.224488
6513.320686
6514.259459
6509.565593
6514.01359
6519.959154
6516.047599
6508.671523
6506.4587
6511.845471
6515.980544
6515.131177
6512.650134
6513.767721
6514.102997
6510.996105
6513.052465
6523.289564
6524.228337
6515.55586
6516.069951
6517.455759
6515.578212
6510.750235
6505.452872
6512.538375
6521.1885
6522.864881
6518.461587
6515.734674
6521.322611
6525.502387
6517.567517
6510.213794
6515.533509
6520.205023
6520.473244
6517.902794
6515.309991
6510.750235
6506.726921
6508.962096
6510.906698
6511.264326
6511.018456
6511.264326
6508.671523
6513.790073
6517.969849
6512.828948
6508.738578
6514.304163
6516.606392
6512.60543
6510.750235
6512.761892
6514.39357
6512.314858
6510.750235
6511.420788
6512.270154
6512.404264
6511.152567
6508.157433
6506.413997
6506.659866
6506.883384
6514.661791
6514.840605
6512.247802
6510.906698
6513.924183
6519.020381
6520.450893
6516.44993
6513.454796
6515.377047
6516.405227
6508.023323
6510.929049
6521.210852
6523.200157
6516.673448
6513.164224
6516.584041
6516.31582
6512.046637
6509.14091
6510.839642
6508.559764
6506.145776
6510.571421
6516.114654
6518.662753
6512.98541
6507.531584
6510.146738
6513.678314
6513.924183
6510.280849
6513.521852
6513.745369
6510.370256
6508.515061
6509.006799
6516.069951
6519.981506
6517.075779
6507.419825
6498.188555
6492.198288
6482.49763
6475.859162
6474.026319
6471.679386
6470.807668
6468.550142
6468.170162
6471.34411
6468.952473
6463.699813
6464.482124
6470.248874
6469.220694
6465.800877
6468.52779
6473.691043
6475.926218
6473.981616
6468.840715
6470.628854
6469.980654
6467.365499
6465.778526
6467.611369
6464.616235
6464.370366
6474.80863
6475.389776
6472.573456
6468.0137
6464.035089
6465.420898
6467.968997
6466.717299
6466.136153
6473.311063
6481.089471
6483.101128
6476.999101
6470.561799
6472.506401
6473.825154
6468.550142
6467.365499
6473.914561
6477.289674
6473.109898
6469.444212
6471.969959
6477.24497
6477.937875
6478.340206
6481.067119
6482.296465
6479.077814
6476.149735
6477.62495
6481.357691
6480.910657
6482.028244
6482.207058
6482.36352
6479.524848
6476.194438
6478.563723
6484.375177
6484.576343
6478.384909
6475.0545
6478.451965
6488.018511
6495.551049
6488.823174
6482.452927
6483.861087
6482.385872
6475.836811
6477.669654
6484.531639
6485.760985
6484.866915
6486.565648
6489.001988
6486.990331
6479.256627
6477.848468
6481.961189
6483.101128
6479.010758
6474.562761
6478.273151
6480.664787
6479.5472
6479.770718
6482.564686
6483.078776
6481.312988
6481.089471
6482.385872
6478.943703
6476.261494
6477.401433
6479.92718
6485.224543
6484.106956
6480.083642
6483.704625
6485.626875
6481.715319
6478.228447
6486.34213
6489.136099
6483.950494
6479.904828
6484.196363
6491.885363
6487.794994
6481.46945
6484.822212
6488.957285
6487.906753
6482.810555
6481.312988
6487.213848
6489.404319
6484.28577
6485.045729
6494.277
6498.993218
6495.483994
6487.884401
6482.072947
6485.023378
6484.129308
6485.805689
6490.141927
6494.880497
6490.298389
6476.663825
6483.011721
6498.456776
6501.608372
6499.104977
6480.307159
6484.397529
6495.551049
6496.042788
6489.225505
6486.543296
6489.404319
6493.718206
6493.092357
6492.712378
6490.343093
6490.477203
6491.170107
6494.612276
6494.120538
6488.063215
6485.939799
6485.649226
6493.271171
6500.379026
6494.165241
6488.420843
6492.019474
6488.622008
6484.553991
6488.845526
6492.980599
6489.873706
6487.035035
6489.247857
6492.980599
6491.326569
6485.872744
6483.548162
6490.678369
6503.821195
6495.081663
6472.864029
6472.305235
6481.156526
6488.063215
6487.057386
6489.851354
6492.466508
6488.152622
6481.894133
6481.625912
6490.745424
6492.824136
6482.36352
6478.563723
6490.119575
6502.345979
6490.320741
6474.652168
6475.501534
6477.423784
6481.089471
6482.408223
6485.448061
6492.265343
6487.99616
6475.255665
6474.361595
6484.375177
6492.824136
6492.041825
6486.252723
6482.989369
6480.485973
6480.910657
6480.508325
6485.559819
6484.889267
6478.451965
6477.714357
6482.721148
6480.44127
6465.912636
6478.787241
6491.013645
6490.410148
6487.280904
6483.794032
6482.765851
6492.913543
6493.874668
6490.119575
6486.498593
6486.878572
6486.588
6491.706549
6492.310046
6487.459718
6482.430575
6482.631741
6482.587037
6488.242029
6493.360578
6489.069043
6487.571476
6494.254648
6491.59479
6483.346997
6482.408223
6486.878572
6488.599657
6483.302293
6482.587037
6487.10209
6488.577305
6486.856221
6487.124442
6489.963113
6489.359616
6485.559819
6480.485973
6480.731843
6485.604523
6485.82804
6480.888305
6480.709491
6484.889267
6490.365444
6487.504421
6481.625912
6482.587037
6483.592866
6477.915523
6470.472392
6471.47822
6478.831944
6487.146793
6479.41309
6477.669654
6486.923276
6481.536505
6477.647302
6483.838735
6487.660883
6477.11086
6474.898037
6474.741575
6475.367424
6479.524848
6483.235238
6480.888305
6480.016587
6476.820287
6473.936912
6476.663825
6485.872744
6490.365444
6485.090433
6471.411165
6470.785316
6478.228447
6480.508325
6481.089471
6485.425709
6488.13027
6485.246895
6477.334377
6465.934988
6468.773659
6478.563723
6482.810555
6484.039901
6481.201229
6476.753232
6472.349938
6473.892209
6481.760023
6484.978674
6483.592866
6477.736709
6470.360633
6471.388813
6466.359671
6458.268339
6462.202246
6464.191552
6452.680403
6449.215883
6455.943758
6458.760078
6447.986537
6448.433572
6453.797991
6455.139095
6454.110915
6450.735802
6448.634738
6452.859217
6454.982633
6456.144924
6454.55795
6452.6357
6456.346089
6456.547255
6455.273206
6458.558912
6458.245988
6452.233368
6453.418011
6459.94472
6467.834886
6464.482124
6458.40245
6459.341223
6460.078831
6459.29652
6454.826171
6451.965147
6453.485066
6450.467581
6450.959319
6458.603616
6463.811572
6463.208075
6458.067174
6455.094392
6458.178932
6457.642491
6456.234331
6454.401488
6455.809648
6458.111877
6451.026374
6452.032203
6459.29652
6456.055517
6453.932101
6454.535598
6459.721203
6461.330528
6459.721203
6458.670671
6461.621101
6458.134229
6455.630834
6452.456886
6453.194493
6455.250854
6450.489932
6449.171179
6452.658052
6460.503514
6457.441325
6453.66388
6451.22754
6456.547255
6464.102145
6460.83879
6454.669709
6453.932101
6454.490895
6453.350956
6448.210054
6452.143961
6453.440363
6451.071078
6454.714412
6457.955415
6460.034127
6460.637624
6457.37427
6450.624043
6446.064287
6448.344165
6455.519075
6463.163371
6468.728956
6460.83879
6452.25572
6446.846598
6452.6357
6459.497685
6451.74163
6447.874778
6453.418011
6460.123534
6457.910712
6452.970976
6458.894188
6461.576398
6456.770773
6450.981671
6450.71345
6456.055517
6455.675537
6455.943758
6458.849485
6458.961244
6457.329566
6452.970976
6455.96611
6456.949587
6458.558912
6453.306252
6443.180912
6446.578377
6453.418011
6453.574473
6457.329566
6460.83879
6457.307214
6448.522979
6441.23631
6439.001136
6443.717354
6449.461752
6451.093429
6453.485066
6457.553084
6458.156581
6450.601691
6445.5949
6446.913653
6448.590034
6444.56672
6442.197435
6446.176046
6449.551159
6448.232406
6447.315985
6452.300424
6452.143961
6448.947662
6448.768848
6447.830075
6448.098296
6449.059421
6447.38304
6446.86895
6450.735802
6452.25572
6448.098296
6450.020546
6455.139095
6449.417049
6440.275185
6435.648374
6442.733877
6452.300424
6455.943758
6453.574473
6454.915578
6454.04386
6447.628909
6442.666822
6451.763982
6456.502552
6454.69206
6453.865046
6452.479238
6454.133267
6453.14979
6447.494799
6453.641528
6464.191552
6460.592921
6450.445229
6454.312081
6460.861142
6461.777563
6456.636662
6451.808685
6456.591959
6459.587092
6453.932101
6449.059421
6451.518113
6459.81061
6462.828095
6464.102145
6458.514209
6445.214921
6447.740668
6461.241121
6467.745479
6466.717299
6460.995252
6458.044822
6458.000118
6456.949587
6448.947662
6455.608482
6461.308177
6472.349938
6476.954398
6447.226578
6446.086639
6464.638587
6472.640511
6464.996215
6447.874778
6447.986537
6461.308177
6461.531694
6458.737726
6462.693985
6468.058403
6462.917502
6457.240159
6460.749383
6466.963168
6464.504476
6461.062307
6458.514209
6461.688156
6465.219732
6460.950549
6460.548217
6463.14102
6463.27513
6460.637624
6456.971938
6458.558912
6450.624043
6447.561854
6456.569607
6466.493781
6472.104069
6469.131287
6461.576398
6461.308177
6459.05065
6459.609444
6461.710508
6459.117706
6460.279996
6456.636662
6454.580302
6453.239197
6457.553084
6458.53656
6457.88836
6456.457848
6459.520037
6459.29652
6453.797991
6451.428706
6456.301386
6461.35288
6458.089525
6455.429668
6462.62693
6461.822267
6452.143961
6445.326679
6450.244063
6457.709546
6460.347052
6458.849485
6456.927235
6461.688156
6461.799915
6458.53656
6454.669709
6461.196418
6461.174066
6453.105086
6449.372345
6452.211017
6455.921406
6455.429668
6454.110915
6456.971938
6460.548217
6457.664842
6458.178932
6458.156581
6456.457848
6452.523941
6450.065249
6451.36165
6457.50838
6461.464639
6463.14102
6460.905845
6459.520037
6458.156581
6454.267377
6453.596825
6457.597787
6457.910712
6450.825209
6451.763982
6455.384964
6455.250854
6450.132304
6448.590034
6449.68527
6449.908787
6448.433572
6446.153694
6444.231444
6452.412182
6461.621101
6451.294595
6444.924348
6446.265453
6444.343203
6442.689174
6440.72222
6441.057496
6440.699868
6437.525921
6437.950604
6439.895205
6439.604633
6437.525921
6435.648374
6436.006002
6438.621156
6435.648374
6432.563833
6435.380153
6438.062362
6437.928252
6439.448171
6440.20813
6436.87772
6432.832054
6426.88649
6429.993383
6439.336412
6438.643508
6434.195511
6438.375287
6443.940871
6435.380153
6426.439455
6430.395714
6436.274223
6434.620194
6431.021563
6430.574528
6434.664897
6437.034182
6432.65324
6430.73099
6436.140112
6434.083752
6434.396676
6437.302403
6439.559929
6438.174121
6431.446246
6426.417104
6426.931194
6438.218825
6442.577415
6436.989479
6433.92729
6432.340316
6428.205243
6428.607575
6430.619232
6428.406409
6431.24508
6436.788313
6437.056534
6434.977822
6434.463732
6433.346144
6429.501644
6429.926327
6432.586185
6430.887452
6428.227595
6429.479293
6435.938947
6437.056534
6427.91467
6432.340316
6435.08958
6432.854406
6433.346144
6434.240214
6438.129418
6435.000173
6432.943813
6438.241176
6442.242139
6435.201339
6426.215938
6427.110008
6435.156636
6436.765961
6430.954508
6431.043915
6435.067229
6433.346144
6429.725162
6427.601746
6433.055572
6435.558967
6434.486083
6435.402505
6433.346144
6434.799008
6432.250909
6424.584261
6420.292726
6423.109045
6434.240214
6436.542444
6431.580357
6431.513301
6432.273261
6431.334487
6430.73099
6431.066266
6435.246043
6437.01183
6431.602708
6430.08279
6432.429723
6428.67463
6424.07017
6426.528862
6425.634793
6426.975897
6429.501644
6427.422932
6424.785426
6419.331601
6417.588165
6418.839862
6421.432665
6421.790292
6424.718371
6427.355877
6428.495816
6425.232461
6418.661048
6422.058513
6430.462769
6431.848577
6424.740723
6418.504586
6417.319944
6419.309249
6419.175138
6417.476406
6421.387961
6428.004077
6424.159577
6413.274278
6416.939964
6420.717409
6423.287859
6420.851519
6422.349086
6427.557043
6424.31604
6419.152787
6415.062417
6415.35299
6416.783502
6419.845691
6422.214976
6422.90788
6423.198452
6417.386999
6420.538595
6426.037124
6423.869005
6420.560947
6423.04199
6426.551214
6423.153749
6422.416141
6421.857348
6424.763074
6433.636717
6435.313098
6423.913708
6419.57747
6418.504586
6413.94483
6414.034237
6423.086694
6426.595918
6422.058513
6417.543461
6416.939964
6420.136263
6422.326734
6423.623136
6421.678534
6424.137226
6426.953545
6422.192624
6423.198452
6426.774731
6424.338391
6424.137226
6425.99242
6429.166368
6429.658107
6425.254813
6421.812644
6423.578432
6426.260641
6424.003115
6422.796121
6420.73976
6424.539557
6425.254813
6418.035199
6419.421008
6421.186795
6421.969106
6418.862214
6413.587202
6417.029371
6421.164444
6422.103217
6418.81751
6421.477368
6423.310211
6416.045894
6413.743664
6423.533729
6429.792217
6427.758208
6421.097388
6421.097388
6422.751417
6421.276202
6415.777673
6412.491967
6413.989534
6417.029371
6423.533729
6427.311173
6430.127493
6425.634793
6418.30342
6417.565813
6417.007019
6416.939964
6418.661048
6424.092522
6426.148883
6421.745589
6414.593031
6412.514319
6421.522072
6428.071133
6423.265508
6421.455016
6420.560947
6417.252888
6409.899164
6410.256792
6422.39379
6426.797083
6422.662011
6418.370476
6414.883603
6415.397694
6411.307324
6415.040066
6421.566775
6424.897185
6423.690191
6415.844728
6413.184871
6413.363685
6420.315077
6417.901089
6414.32481
6417.990496
6420.337429
6415.800025
6411.441435
6417.029371
6421.745589
6422.684362
6417.878737
6414.794196
6417.543461
6418.214013
6414.123644
6411.039103
6414.593031
6422.639659
6423.801949
6418.906917
6416.738798
6417.834034
6414.414217
6411.352028
6414.727141
6420.046856
6422.617307
6415.263583
6416.38117
6418.951621
6417.699923
6416.202356
6406.971086
6410.547365
6417.007019
6413.587202
6413.631906
6417.163481
6416.157653
6410.770882
6409.832109
6417.029371
6421.969106
6419.510415
6417.878737
6422.036162
6418.482234
6416.336467
6414.97301
6417.65522
6421.879699
6420.22567
6417.834034
6416.582336
6417.78933
6414.637734
6406.747568
6408.580412
6417.543461
6416.180005
6408.401598
6405.071188
6414.078941
6418.035199
6414.771845
6411.910821
6414.235403
6420.337429
6420.22567
6416.716446
6415.308287
6419.264545
6422.349086
6423.958412
6429.881624
6433.234386
6427.378229
6415.330638
6409.027446
6422.01381
6429.83692
6426.707676
6425.455979
6426.081827
6422.639659
6422.349086
6421.298554
6421.879699
6426.730028
6423.533729
6421.522072
6429.18872
6428.272298
6422.706714
6419.175138
6421.790292
6426.081827
6426.461807
6425.679496
6421.432665
6421.030333
6423.444322
6423.131397
6425.47833
6427.601746
6426.595918
6427.288822
6428.249947
6431.870929
6430.999211
6427.333525
6422.751417
6424.405447
6424.405447
6419.510415
6418.035199
6422.14792
6422.796121
6424.181929
6422.594955
6426.595918
6432.116798
6430.283955
6424.45015
6422.170272
6417.699923
6416.582336
6417.319944
6421.544423
6428.339354
6428.115836
6423.757246
6422.751417
6431.11097
6428.227595
6418.526938
6413.073112
6417.476406
6421.522072
6418.54929
6418.728103
6424.651316
6427.333525
6423.980763
6416.492929
6417.632868
6426.417104
6429.792217
6426.23829
6424.673668
6427.221766
6424.092522
6416.24706
6417.208185
6423.019638
6422.684362
6421.857348
6423.734894
6423.757246
6424.137226
6422.729066
6421.790292
6425.053647
6428.004077
6430.552176
6433.793179
6434.374325
6431.49095
6422.706714
6419.488063
6420.248022
6427.445284
6428.227595
6428.026429
6429.971031
6435.290746
6433.122627
6425.835958
6423.734894
6427.735857
6430.2169
6429.83692
6430.038086
6435.313098
6435.201339
6426.953545
6419.398656
6420.963278
6426.215938
6430.507473
6426.282993
6425.85831
6428.562871
6426.819435
6425.47833
6426.3724
6429.635755
6429.881624
6424.003115
6421.007981
6427.422932
6432.675592
6433.368496
6435.871891
6438.66586
6435.938947
6426.953545
6425.232461
6430.440418
6428.629926
6428.048781
6428.384057
6436.36363
6439.336412
6435.156636
6429.903976
6431.468598
6434.866063
6428.898147
6425.008944
6428.898147
6431.558005
6431.334487
6430.708639
6432.072095
6430.552176
6429.434589
6426.88649
6426.215938
6431.24508
6434.553139
6432.407371
6429.233423
6427.624098
6425.7242
6426.260641
6431.62506
6433.793179
6435.581319
6433.03322
6429.434589
6431.513301
6435.022525
6426.551214
6413.564851
6416.716446
6419.443359
6418.906917
6415.934135
6415.509452
6413.564851
6415.598859
6408.848632
6408.088673
6416.716446
6418.16931
6413.341333
6408.334542
6410.748531
6409.630943
6408.982743
6410.010923
6412.357856
6414.525976
6412.02258
6410.927345
6409.72035
6410.077978
6412.223746
6413.363685
6416.336467
6418.795159
6412.760188
6409.429778
6418.258717
6425.34422
6421.142092
6408.625115
6406.546403
6412.648429
6410.9944
6406.993438
6409.20626
6416.492929
6419.175138
6414.928307
6413.408388
6418.772807
6415.844728
6414.436569
6419.935098
6419.666877
6419.398656
6426.059476
6422.237327
6410.010923
6408.580412
6407.842804
6409.496833
6411.016752
6413.833071
6418.593993
6411.843766
6413.251926
6417.342295
6418.996324
6414.816548
6408.826281
6413.117816
6416.492929
6415.263583
6409.049798
6405.987609
6408.870984
6405.831147
6402.880717
6405.831147
6411.396731
6412.469615
6409.832109
6411.217917
6410.726179
6408.155728
6409.943868
6409.20626
6410.681475
6408.535708
6403.037179
6406.166423
6411.396731
6409.943868
6404.400635
6401.047874
6406.300534
6406.099368
6400.645542
6403.931249
6411.977877
6411.12851
6406.747568
6403.059531
6409.20626
6410.882641
6400.131452
6398.253906
6403.014827
6404.378284
6405.495871
6403.327752
6398.924458
6399.59501
6407.239307
6404.802967
6401.070225
6402.79131
6402.903068
6398.43272
6399.192679
6406.077016
6412.357856
6410.234441
6403.841842
6407.976914
6410.10033
6406.658161
6402.500737
6404.33358
6412.559022
6418.728103
6411.352028
6411.463787
6414.078941
6412.581374
6403.886545
6408.602763
6417.029371
6419.532766
6415.576508
6409.45213
6411.754359
6411.776711
6409.318019
6411.441435
6414.056589
6415.263583
6412.134339
6409.988571
6417.744627
6419.443359
6411.396731
6404.065359
6406.76992
6410.279144
6408.982743
6407.619286
6412.40256
6416.738798
6415.710618
6414.816548
6417.699923
6416.448226
6412.961353
6412.670781
6411.329676
6415.755321
6416.045894
6411.352028
6409.988571
6415.531804
6419.309249
6413.855423
6407.485176
6410.837938
6420.516243
6417.074074
6410.860289
6408.714522
6409.429778
6411.12851
6403.730083
6405.540574
6407.932211
6408.334542
6405.652333
6403.618324
6408.468653
6408.982743
6404.981781
6406.144071
6414.570679
6416.023542
6407.999266
6404.110063
6409.116853
6408.915688
6404.19947
6401.89724
6409.921516
6417.677571
6415.934135
6409.07215
6411.284973
6416.716446
6413.654257
6411.843766
6415.889432
6421.142092
6415.040066
6405.22765
6400.153804
6403.372455
6399.125624
6398.723292
6406.25583
6412.02258
6411.88847
6409.049798
6407.753397
6414.302458
6416.023542
6409.563888
6406.613458
6413.386037
6417.476406
6418.325772
6416.738798
6413.743664
6412.067284
6407.753397
6404.981781
6407.418121
6411.284973
6412.447263
6412.559022
6410.435606
6415.084769
6418.6834
6417.230537
6418.258717
6419.175138
6414.213051
6411.329676
6410.457958
6412.670781
6412.179042
6411.240269
6418.035199
6422.438493
6422.214976
6416.358819
6413.453092
6417.878737
6421.410313
6413.900127
6410.882641
6414.682438
6413.631906
6414.481272
6413.766016
6411.016752
6415.598859
6415.017714
6411.039103
6410.927345
6417.297592
6416.224708
6415.040066
6414.928307
6418.214013
6415.464749
6415.643563
6411.620249
6411.597897
6414.570679
6413.698961
6409.295667
6413.676609
6417.27524
6415.710618
6418.616345
6419.823339
6415.710618
6410.055627
6408.535708
6410.860289
6414.302458
6416.694095
6416.090598
6417.677571
6420.73976
6415.934135
6404.087711
6401.830185
6408.893336
6414.794196
6413.788368
6411.486138
6412.424912
6413.386037
6413.29663
6412.156691
6413.564851
6415.956487
6414.570679
6412.871946
6410.837938
6412.179042
6412.111987
6405.250002
6400.936115
6405.451167
6410.502662
6407.7981
6407.373417
6409.385074
6405.674685
6400.287914
6400.578487
6406.948734
6409.832109
6404.735911
6398.879754
6399.930286
6407.038141
6405.428816
6399.393845
6400.734949
6409.630943
6411.530842
6404.870022
6405.093539
6411.12851
6413.274278
6407.216955
6406.479348
6407.820452
6406.747568
6400.310266
6401.338446
6407.462824
6407.485176
6404.557098
6404.244173
6405.808795
6408.334542
6404.400635
6402.27722
6404.288877
6405.071188
6406.434644
6407.239307
6404.981781
6405.764092
6403.014827
6400.019693
6400.556135
6402.567792
6397.829222
6394.007074
6399.59501
6408.289839
6412.424912
6412.447263
6409.541537
6409.474481
6404.534746
6400.444377
6402.634847
6407.418121
6408.915688
6404.870022
6401.629019
6406.032313
6408.379246
6403.506566
6400.444377
6406.501699
6412.246098
6408.491005
6407.619286
6406.211127
6408.267487
6407.373417
6403.350103
6401.070225
6405.786443
6408.133377
6402.701903
6398.723292
6403.663028
6407.216955
6403.283048
6397.940981
6407.038141
6410.323848
6407.239307
6401.047874
6400.1091
6402.634847
6404.534746
6402.27722
6401.852536
6404.646504
6404.959429
6402.947772
6400.824356
6406.077016
6406.099368
6399.907935
6405.540574
6413.587202
6412.871946
6403.573621
6398.879754
6399.773824
6404.579449
6404.244173
6403.9536
6406.702865
6407.66399
6402.679551
6396.756339
6404.624153
6411.463787
6411.150862
6409.653295
6408.289839
6409.675647
6407.552231
6405.652333
6408.446301
6411.933173
6411.441435
6410.860289
6409.765054
6410.882641
6410.055627
6402.612496
6404.132414
6410.793234
6415.241231
6410.681475
6407.842804
6409.407426
6407.708693
6408.088673
6408.379246
6411.419083
6412.983705
6409.116853
6399.192679
6399.729121
6404.065359
6406.456996
6401.51726
6402.433682
6407.909859
6407.216955
6402.232516
6400.734949
6409.273316
6407.865156
6402.165461
6403.260696
6408.982743
6409.45213
6403.528917
6398.94681
6402.500737
6408.334542
6409.809757
6404.33358
6401.941943
6405.74174
6401.673722
6393.671798
6396.018731
6404.065359
6403.193641
6401.830185
6408.423949
6413.900127
6411.441435
6406.144071
6402.232516
6407.507528
6411.955525
6418.325772
6423.757246
6428.29465
6432.742647
6427.042952
6424.181929
6428.339354
6430.194548
6427.91467
6424.427798
6427.244118
6432.295612
6433.681421
6430.328659
6426.595918
6429.658107
6430.574528
6427.065304
6426.931194
6429.70281
6431.870929
6431.513301
6427.244118
6431.021563
6437.458865
6431.043915
6428.987554
6431.937984
6433.435551
6432.317964
6431.960336
6437.950604
6438.442342
6435.871891
6423.444322
6423.958412
6431.312136
6433.457903
6440.364592
6446.10899
6447.271281
6442.13038
6436.430685
6436.095409
6441.258662
6446.801895
6443.918519
6443.493836
6445.5949
6447.830075
6445.639604
6443.203264
6447.450095
6445.259624
6441.7504
6439.269357
6443.516188
6447.606557
6442.800932
6439.045839
6443.806761
6449.998194
6449.729973
6447.651261
6450.959319
6446.198397
6442.443304
6443.471485
6447.047764
6445.237272
6446.220749
6443.493836
6440.923386
6442.465656
6445.483142
6445.125514
6440.990441
6446.511322
6452.702755
6454.200322
6448.567682
6445.170217
6443.583243
6442.13038
6438.442342
6435.760133
6441.795104
6443.583243
6438.28588
6438.93408
6446.377211
6441.169255
6436.765961
6439.448171
6446.35486
6446.824246
6442.420953
6440.72222
6443.829113
6447.204226
6442.040973
6437.950604
6443.516188
6447.315985
6443.963223
6441.996269
6446.064287
6448.7912
6442.085676
6441.437476
6450.355822
6451.808685
6450.020546
6443.985575
6445.371383
6452.009851
6452.188665
6448.008889
6447.159522
6450.579339
6453.239197
6448.545331
6444.857293
6448.344165
6449.618214
6449.104124
6451.138133
6455.921406
6458.737726
6454.915578
6450.087601
6453.350956
6453.976804
6450.19936
6443.627947
6444.589072
6459.743555
6460.302348
6456.882531
6455.250854
6458.491857
6457.798953
6454.446191
6450.400525
6455.027336
6456.301386
6452.658052
6451.831037
6456.055517
6457.955415
6456.502552
6453.641528
6455.764944
6455.764944
6450.288767
6448.835903
6452.948624
6461.285825
6460.45881
6455.384964
6452.814514
6455.384964
6459.385927
6454.759116
6454.334432
6460.816438
6459.385927
6452.367479
6455.675537
6461.017604
6464.079793
6460.615273
6460.212941
6465.644415
6464.079793
6457.307214
6452.233368
6458.000118
6466.203209
6465.264435
6455.697889
6457.083697
6458.067174
6459.609444
6459.564741
6460.816438
6460.414107
6452.859217
6454.200322
6456.4802
6457.173104
6456.457848
6452.993328
6455.988461
6458.961244
6457.50838
6454.960281
6460.078831
6462.224598
6462.939854
6459.162409
6454.55795
6454.110915
6460.078831
6460.391755
6456.167275
6457.709546
6458.424802
6455.809648
6452.6357
6455.317909
6465.778526
6465.867933
6456.368441
6451.249892
6458.581264
6466.069098
6459.94472
6458.044822
6463.968034
6465.018566
6457.530732
6454.021508
6457.731898
6462.828095
6461.509342
6461.084659
6463.632758
6459.43063
6449.95349
6444.857293
6454.200322
6465.420898
6462.403412
6456.033165
6459.877665
6461.755212
6457.106049
6451.205188
6455.429668
6461.375232
6462.805744
6457.620139
6457.441325
6462.358709
6462.336357
6454.468543
6452.6357
6457.195456
6459.028299
6453.418011
6455.161447
6457.955415
6455.07204
6454.803819
6455.45202
6449.886435
6457.37427
6456.882531
6453.194493
6460.212941
6463.252778
6456.748421
6443.471485
6444.030278
6447.76302
6448.768848
6447.494799
6450.914616
6457.262511
6443.02445
6431.066266
6430.619232
6434.57549
6438.844673
6436.207168
6430.283955
6431.021563
6434.977822
6436.74361
6437.503569
6438.554101
6445.326679
6452.702755
6452.233368
6448.880607
6450.780505
6451.74163
6446.757191
6447.38304
6457.620139
6461.196418
6464.68329
6450.84756
6447.852427
6453.686232
6453.708584
6457.217807
6459.676499
6459.497685
6462.224598
6459.900017
6456.144924
6463.900979
6470.248874
6472.23818
6475.0545
6487.549125
6493.919372
6499.283791
6505.117596
6512.046637
6524.563613
6529.860977
6534.174864
6550.692803
6551.318652
6546.736544
6548.815256
6554.380841
6560.661681
6561.734565
6563.455649
6571.79285
6579.750071
6575.369129
6578.140745
6583.192239
6589.428376
6595.016312
6592.110585
6592.892896
6590.523611
6591.507088
6596.178603
6596.022141
6597.698521
6603.44292
6603.755844
6602.146518
6597.497356
6603.44292
6608.717931
6610.014333
6613.814129
6613.836481
6611.511899
6606.862737
6610.707237
6609.589649
6604.024065
6598.525536
6602.772367
6611.288382
6614.797606
6611.489548
6608.248545
6609.701408
6604.582859
6598.123204
6600.268972
6604.4711
6604.694617
6606.236888
6604.560507
6607.957972
6609.433187
6606.192184
6603.219402
6603.040588
6603.353513
6604.024065
6606.303943
6608.762635
6614.730551
6613.903536
6607.466234
6614.46233
6620.899632
6615.311696
6590.389501
6579.347739
6575.078556
6563.142724
6554.537303
6541.372125
6530.531529
6522.73077
6512.359561
6505.542279
6505.408168
6493.025302
6477.155563
6468.170162
6462.76104
6463.588055
6456.413145
6454.647357
6461.442287
6465.286787
6462.157543
6459.229464
6464.012738
6465.599712
6465.443249
6459.318871
6456.971938
6468.684252
6467.87959
6450.691098
6453.932101
6463.945683
6462.291653
6463.923331
6463.833924
6465.510305
6461.554046
6453.373307
6457.776601
6466.538485
6470.114764
6490.119575
6487.705587
6490.611314
6476.037976
6476.842639
6461.956377
6448.567682
6453.753287
6470.181819
6472.439345
6468.594845
6460.078831
6476.328549
6484.844564
6476.641473
6459.29652
6449.215883
6466.314967
6481.178877
6486.520944
6481.804726
6455.653185
6449.95349
6458.000118
6458.156581
6466.002043
6487.727939
6479.949532
6475.546238
6473.579284
6485.716282
6468.550142
6464.593883
6478.899
6469.399508
6451.60752
6461.397584
6486.409186
6480.798898
6473.132249
6460.3247
6471.589979
6472.416994
6460.481162
6466.829058
6480.709491
6471.8582
6466.449078
6466.113802
6473.311063
6462.716337
6459.967072
6462.984558
6463.632758
6468.438383
6475.747404
6486.118613
6468.348976
6458.178932
6467.052575
6452.367479
6464.035089
6487.504421
6469.913598
6460.503514
6467.343148
6481.022415
6469.578322
6476.105032
6477.379081
6477.24497
6465.778526
6450.668746
6451.965147
6462.872799
6476.105032
6455.407316
6462.38106
6482.855258
6478.854296
6457.038993
6455.921406
6466.270264
6460.391755
6457.933063
6458.223636
6476.73088
6477.021453
6469.04188
6465.420898
6460.481162
6482.117651
6481.46945
6467.231389
6470.092412
6472.215828
6474.562761
6484.174011
6473.378119
6467.723127
6465.778526
6477.066157
6475.434479
6479.278979
6478.742537
6469.980654
6462.693985
6464.30331
6458.849485
6465.622063
6468.214866
6475.0545
6462.202246
6466.784354
6481.134174
6497.003913
6487.951456
6462.984558
6461.442287
6465.130325
6473.244008
6472.551104
6467.387851
6468.796011
6477.960226
6489.15845
6479.591904
6466.963168
6460.794087
6464.54918
6468.058403
6470.226523
6468.751308
6463.78922
6463.744517
6469.80184
6472.998139
6476.820287
6475.747404
6468.90777
6468.170162
6474.182781
6467.544313
6458.78243
6460.615273
6465.979691
6463.409241
6461.956377
6466.046746
6465.040918
6466.829058
6465.979691
6458.044822
6467.141982
6473.020491
6478.451965
6472.841677
6461.934026
6473.422822
6472.484049
6463.006909
6468.997177
6477.62495
6471.34411
6458.044822
6468.550142
6476.753232
6483.704625
6481.290636
6470.606502
6459.318871
6469.779488
6478.51902
6478.675482
6473.981616
6468.214866
6468.661901
6472.729918
6480.374215
6472.059366
6465.666767
6474.428651
6477.043805
6487.973808
6474.003968
6458.044822
6469.511267
6480.843601
6481.201229
6475.881514
6478.407261
6478.720186
6481.603561
6480.709491
6481.000064
6480.754194
6478.183744
6474.607465
6475.389776
6475.769755
6472.908732
6474.741575
6477.49084
6479.502497
6471.209999
6469.846543
6473.378119
6481.067119
6478.65313
6469.354805
6469.824191
6477.915523
6477.468488
6472.081718
6469.399508
6468.90777
6468.460735
6468.170162
6473.825154
6471.902904
6475.32272
6482.095299
6472.975787
6467.343148
6466.069098
6463.409241
6474.16043
6475.948569
6463.833924
6463.610406
6476.485011
6474.719223
6464.772697
6468.281921
6473.288712
6467.656072
6462.62693
6457.061345
6468.214866
6475.255665
6479.234276
6476.842639
6476.507363
6467.276092
6470.405337
6469.578322
6470.628854
6476.932046
6474.741575
6468.281921
6468.728956
6466.963168
6470.807668
6467.87959
6471.388813
6474.652168
6474.920389
6471.634683
6472.193476
6467.834886
6469.153639
6475.032148
6473.691043
6476.842639
6478.00493
6468.281921
6465.912636
6468.930122
6471.657034
6469.958302
6472.037014
6476.08268
6474.562761
6475.166258
6477.066157
6474.138078
6470.628854
6468.818363
6470.606502
6463.029261
6462.671633
6468.237217
6481.536505
6482.475279
6472.014662
6471.142944
6467.857238
6474.920389
6468.214866
6454.759116
6455.921406
6461.576398
6463.096316
6474.093375
6473.087546
6458.760078
6455.362613
6462.358709
6470.003005
6468.52779
6469.511267
6460.637624
6455.250854
6457.396621
6453.14979
6458.335395
6465.912636
6468.617197
6471.388813
6466.09145
6459.587092
6456.99429
6460.436459
6463.029261
6459.967072
6459.788258
6456.815476
6456.882531
6456.99429
6460.592921
6461.755212
6461.710508
6457.933063
6458.78243
6452.434534
6456.033165
6458.78243
6458.670671
6460.682328
6468.170162
6466.873761
6459.609444
6455.407316
6452.859217
6455.384964
6462.872799
6466.158505
6468.192514
6463.364537
6457.262511
6449.729973
6439.269357
6442.867987
6451.920444
6452.814514
6458.044822
6454.222674
6448.522979
6442.085676
6435.84954
6444.723182
6449.282938
6443.315022
6448.970014
6446.667784
6440.789275
6440.252833
6438.509397
6441.459828
6443.851464
6445.863121
6447.137171
6445.796066
6441.169255
6446.86895
6449.327642
6443.315022
6433.480255
6445.304328
6447.874778
6444.209092
6443.359726
6432.407371
6428.67463
6434.486083
6448.366517
6453.887398
6450.33347
6444.812589
6435.491912
6436.430685
6443.918519
6449.349993
6449.506456
6445.170217
6444.454961
6437.503569
6426.104179
6423.623136
6426.88649
6436.184816
6436.698906
6431.535653
6419.398656
6418.616345
6433.614365
6436.184816
6427.445284
6418.638697
6408.088673
6408.759225
6405.764092
6403.059531
6403.931249
6396.801042
6408.513356
6409.541537
6403.171289
6407.574583
6413.117816
6406.926382
6407.015789
6398.767996
6404.981781
6413.207223
6402.143109
6394.096481
6403.126586
6396.868097
6411.284973
6417.990496
6413.698961
6412.469615
6404.355932
6399.192679
6400.064397
6407.194603
6411.843766
6412.201394
6410.547365
6411.173214
6413.29663
6409.96622
6409.005095
6410.256792
6414.794196
6419.622173
6416.38117
6414.145996
6401.718426
6403.148938
6404.601801
6413.028409
6417.543461
6415.688266
6413.654257
6408.334542
6412.469615
6401.181984
6406.434644
6416.917612
6419.733932
6414.995362
6405.629981
6403.484214
6400.62319
6403.506566
6406.881679
6406.881679
6407.932211
6406.76992
6406.322885
6404.981781
6399.282086
6409.094502
6411.106159
6415.643563
6419.800987
6421.678534
6422.863176
6426.640621
6428.518168
6419.957449
6416.805853
6412.246098
6412.000228
6419.443359
6420.382133
6423.064342
6416.738798
6409.250964
6407.66399
6411.061455
6420.024505
6422.349086
6426.305345
6425.657144
6420.024505
6416.738798
6417.699923
6419.286897
6416.984667
6412.737836
6423.265508
6427.26647
6417.588165
6412.357856
6412.559022
6420.73976
6419.666877
6416.090598
6420.180967
6420.113912
6412.246098
6412.335505
6407.820452
6411.843766
6415.688266
6409.787406
6410.949696
6413.475444
6414.481272
6412.156691
6411.843766
6410.726179
6408.423949
6404.355932
6408.200432
6408.155728
6418.102255
6418.214013
6402.79131
6404.802967
6410.9944
6407.820452
6407.999266
6404.981781
6405.160595
6408.714522
6409.20626
6406.412292
6408.423949
6405.831147
6406.25583
6406.747568
6400.712597
6405.87585
6408.535708
6405.965257
6407.52988
6408.200432
6409.005095
6410.547365
6416.269412
6415.464749
6403.417159
6391.90601
6395.370531
6406.792272
6415.598859
6409.07215
6409.340371
6406.926382
6406.322885
6407.820452
6401.070225
6402.992475
6409.630943
6409.742702
6407.015789
6404.244173
6401.271391
6402.612496
6402.836013
6405.406464
6408.55806
6411.396731
6413.028409
6410.323848
6406.568755
6401.181984
6402.992475
6404.311228
6414.950659
6420.449188
6408.401598
6403.417159
6406.591106
6412.246098
6410.323848
6408.625115
6413.743664
6414.704789
6419.19749
6412.469615
6404.154766
6412.134339
6420.113912
6422.349086
6417.029371
6423.869005
6430.59688
6436.587147
6428.67463
6421.656182
6415.308287
6418.929269
6426.484159
6430.641583
6430.820397
6434.933118
6440.409296
6434.374325
6427.378229
6427.869967
6434.642546
6431.692115
6428.719333
6432.116798
6431.513301
6429.278127
6435.98365
6446.86895
6432.697944
6416.314115
6420.851519
6430.261604
6435.044877
6435.246043
6434.910766
6429.099313
6427.199415
6429.501644
6433.234386
6430.351011
6433.256737
6438.28588
6438.41999
6431.133322
6428.205243
6430.686287
6432.675592
6430.08279
6426.171234
6434.106104
6437.458865
6434.530787
6430.619232
6434.016697
6445.773714
6442.778581
6430.954508
6430.798045
6436.698906
6435.134284
6438.084714
6439.492874
6440.051668
6438.352935
6433.994345
6439.001136
6437.01183
6436.698906
6435.357801
6433.457903
6434.128455
6434.821359
6443.873816
6448.366517
6443.069153
6437.369458
6432.340316
6439.783447
6441.862159
6434.642546
6431.11097
6436.989479
6442.040973
6439.872854
6433.323793
6438.330583
6439.448171
6437.503569
6440.275185
6443.762057
6443.292671
6434.620194
6431.580357
6428.585223
6432.13915
6439.537578
6440.409296
6441.057496
6443.762057
6443.516188
6435.156636
6430.820397
6432.250909
6435.536615
6434.910766
6438.129418
6440.141075
6440.744572
6440.498703
6433.971993
6432.452075
6429.5687
6428.67463
6428.987554
6430.239252
6432.362668
6440.632813
6443.046801
6437.145941
6432.474426
6431.334487
6427.244118
6431.915633
6444.633775
6442.063325
6438.174121
6440.20813
6437.39181
6432.116798
6433.860234
6435.760133
6440.409296
6433.16733
6426.439455
6431.915633
6431.24508
6428.361705
6429.613403
6435.558967
6440.051668
6433.4132
6423.600784
6421.924403
6427.758208
6426.23829
6426.104179
6431.62506
6431.580357
6428.898147
6426.484159
6426.171234
6424.181929
6429.434589
6433.636717
6430.015734
6427.869967
6430.954508
6426.148883
6427.981726
6426.774731
6432.407371
6432.966165
6430.753342
6433.4132
6437.592976
6439.381115
6431.334487
6421.298554
6427.601746
6431.759171
6437.436514
6437.458865
6435.357801
6434.307269
6435.268394
6440.766924
6427.713505
6424.025467
6431.937984
6428.987554
6425.813606
6420.829167
6428.80874
6430.887452
6433.860234
6428.048781
6422.840824
6427.221766
6434.307269
6437.369458
6440.655165
6435.201339
6430.08279
6433.636717
6431.960336
6432.630889
6440.543406
6441.839807
6435.648374
6434.530787
6434.374325
6434.709601
6439.157598
6447.673613
6441.392772
6435.514264
6432.742647
6437.592976
6442.219787
6434.016697
6435.938947
6440.297537
6431.379191
6432.51913
6438.576453
6443.963223
6438.777618
6431.62506
6434.486083
6435.84954
6437.39181
6439.82815
6444.969051
6444.454961
6437.503569
6437.034182
6433.077923
6437.056534
6438.66586
6431.960336
6439.470522
6440.006964
6435.022525
6436.318926
6429.501644
6432.474426
6433.703772
6428.696982
6432.13915
6434.731953
6438.084714
6437.950604
6429.70281
6421.991458
6431.222729
6440.074019
6435.804836
6421.410313
6428.384057
6430.753342
6430.552176
6437.212996
6439.001136
6431.11097
6431.848577
6433.346144
6432.452075
6432.899109
6432.116798
6432.340316
6435.134284
6437.078886
6429.389886
6425.299516
6432.072095
6435.268394
6433.904938
6436.028354
6436.229519
6433.681421
6431.289784
6433.234386
6434.910766
6427.199415
6428.29465
6436.810665
6443.67265
6439.403467
6426.439455
6427.512339
6428.540519
6430.194548
6432.13915
6430.127493
6427.26647
6432.116798
6429.434589
6422.416141
6422.706714
6427.869967
6424.494854
6428.115836
6426.774731
6420.046856
6410.592069
6409.295667
6417.610516
6423.757246
6423.801949
6413.788368
6409.541537
6410.033275
6407.596935
6406.904031
6407.306362
6405.652333
6404.512394
6406.747568
6407.127548
6400.734949
6399.215031
6404.84767
6403.685379
6398.030388
6403.484214
6404.802967
6406.25583
6403.685379
6396.085786
6399.4609
6406.099368
6405.719388
6411.664952
6408.759225
6398.030388
6396.935153
6408.222784
6408.647467
6408.222784
6409.429778
6405.965257
6408.356894
6409.541537
6405.965257
6401.941943
6404.467691
6411.620249
6410.167385
6404.557098
6406.971086
6409.161557
6411.150862
6408.55806
6412.179042
6419.130435
6421.790292
6417.990496
6417.431702
6430.842749
6429.680458
6424.673668
6427.512339
6430.775694
6429.792217
6429.680458
6428.361705
6434.262566
6438.41999
6436.698906
6434.799008
6433.524958
6439.850502
6442.733877
6438.911729
6438.41999
6439.247005
6438.621156
6436.989479
6435.46956
6437.660031
6435.000173
6435.268394
6441.638642
6438.040011
6433.480255
6436.251871
6436.654203
6440.297537
6439.515226
6437.682383
6444.276147
6440.945737
6442.622118
6437.39181
6439.023487
6443.627947
6444.365554
6441.392772
6443.471485
6444.454961
6443.963223
6437.2577
6431.960336
6442.197435
6449.618214
6446.712488
6443.829113
6442.175083
6444.969051
6440.833979
6434.217862
6435.804836
6442.353897
6442.063325
6444.745534
6445.639604
6451.451057
6449.95349
6444.611424
6437.101237
6434.754304
6437.39181
6438.93408
6438.040011
6440.878682
6445.192569
6440.632813
6443.404429
6448.500627
6449.014717
6447.450095
6462.582226
6471.679386
6477.066157
6473.914561
6472.908732
6459.117706
6467.209037
6471.232351
6465.867933
6470.114764
6475.143906
6478.071985
6473.981616
6470.517095
6472.595808
6474.942741
6474.652168
6471.925255
6468.997177
6468.326624
6469.354805
6472.148773
6474.205133
6473.042843
6477.49084
6476.663825
6472.171124
6471.232351
6474.29454
6471.142944
6471.925255
6477.312026
6473.042843
6468.036052
6471.142944
6479.368386
6478.00493
6480.508325
6481.067119
6474.987444
6470.248874
6471.835848
6475.836811
6475.881514
6472.305235
6466.002043
6471.925255
6474.316892
6475.523886
6469.913598
6471.075889
6479.569552
6478.630779
6469.019529
6467.320796
6474.182781
6475.948569
6479.435441
6481.648264
6481.201229
6472.081718
6465.95734
6466.538485
6473.244008
6481.178877
6487.347959
6479.591904
6469.55597
6462.515171
6464.660938
6471.455869
6481.201229
6478.00493
6467.074927
6470.092412
6474.048671
6481.938837
6486.319779
6478.451965
6468.594845
6477.692005
6481.581209
6472.059366
6469.690081
6473.489877
6481.603561
6482.184706
6472.349938
6468.90777
6468.952473
6476.887343
6476.529715
6480.754194
6487.213848
6482.654093
6479.524848
6483.011721
6480.731843
6476.105032
6483.749328
6487.347959
6474.652168
6478.161392
6483.816383
6473.691043
6473.78045
6491.907715
6496.802747
6485.872744
6479.904828
6483.659921
6487.415014
6482.765851
6484.710453
6479.614255
6479.703662
6479.793069
6480.150697
6485.403357
6488.018511
6481.916485
6479.234276
6480.910657
6479.726014
6473.154601
6468.281921
6464.839752
6466.22556
6462.649281
6451.898092
6438.308232
6434.240214
6432.675592
6421.343258
6416.716446
6419.555118
6415.710618
6411.195566
6403.685379
6394.364702
6388.039158
6387.525068
6387.837993
6385.848687
6388.396786
6386.295722
6390.207278
6391.682493
6392.733025
6389.760243
6384.172307
6387.435661
6389.424967
6383.926437
6385.736929
6393.872964
6395.459938
6380.618379
6372.616455
6369.889542
6372.862324
6382.719443
6385.289894
6379.791365
6380.953655
6376.259789
6374.002263
6375.231609
6375.432774
6373.108193
6367.676719
6367.252036
6366.40267
6375.678644
6376.01392
6374.426946
6376.90799
6377.42208
6379.210219
6378.204391
6372.68351
6374.628112
6374.248132
6373.845801
6366.648539
6365.732117
6372.012958
6380.730138
6383.099423
6376.237437
6371.163591
6372.839972
6375.678644
6369.263693
6373.108193
6376.393899
6373.33171
6372.437641
6377.0421
6380.171344
6379.34433
6382.29476
6378.986702
6378.58437
6383.993493
6387.972103
6385.24519
6386.742757
6380.976007
6379.411385
6376.997397
6384.619341
6393.135356
6388.821469
6381.937132
6380.283103
6379.210219
6378.025577
6386.094557
6385.692225
6388.821469
6389.916705
6383.479402
6381.713615
6384.619341
6374.695167
6368.906065
6378.472612
6384.708748
6386.228667
6382.80885
6386.385129
6386.183964
6385.513411
6388.95558
6386.318074
6380.059586
6378.807888
6380.528972
6377.310321
6379.545495
6382.361815
6381.177173
6375.656292
6375.209257
6371.65533
6369.844838
6375.812754
6381.713615
6386.765109
6382.183001
6374.784574
6377.824411
6375.835106
6374.337539
6373.108193
6371.610626
6373.242304
6378.941998
6375.008091
6372.348234
6375.946865
6378.31615
6377.019748
6375.857458
6380.037234
6379.813716
6382.16065
6380.37251
6373.912856
6371.543571
6370.716556
6368.704899
6369.800135
6377.712652
6384.574638
6375.857458
6370.068356
6368.168458
6373.935208
6375.298664
6369.934245
6376.639769
6377.019748
6379.813716
6379.500792
6380.663083
6378.092632
6363.876923
6363.698109
6367.699071
6364.681585
6362.066431
6371.677681
6371.051833
6362.021728
6363.496943
6365.016862
6360.211237
6358.914835
6362.155838
6362.401707
6366.849705
6366.02269
6360.479457
6365.083917
6368.034347
6366.313263
6360.144181
6362.714632
6361.954673
6359.093649
6355.852646
6359.026594
6365.665062
6366.648539
6364.078088
6359.630091
6356.79142
6357.551379
6355.89735
6359.585388
6360.904141
6349.057716
6359.428925
6360.948844
6361.306472
6359.607739
6352.05285
6352.276367
6350.756449
6354.220969
6355.89735
6354.824466
6350.667042
6350.152951
6352.097553
6356.567902
6360.881789
6359.719498
6344.252091
6344.453257
6350.823504
6357.43962
6362.960501
6348.34246
6348.633033
6354.399783
6362.938149
6356.679661
6344.49796
6350.309414
6358.020766
6356.344385
6351.382297
6348.744792
6345.347326
6349.75062
6356.590254
6350.64469
6346.777838
6348.655385
6348.118943
6350.1306
6350.935263
6344.36385
6346.241396
6348.543626
6348.498922
6352.321071
6346.755486
6342.799228
6347.627204
6346.688431
6345.079106
6353.21514
6353.796286
6350.242358
6348.633033
6342.151027
6342.799228
6346.353155
6346.80019
6341.368716
6344.296794
6340.474646
6344.073277
6344.944995
6339.826446
6336.004297
6341.324012
6352.343422
6349.23653
6338.373582
6338.105361
6339.871149
6331.869225
6332.539777
6340.027611
6342.396896
6334.37262
6334.37262
6338.708858
6343.961518
6342.665117
6347.895425
6343.872111
6341.703992
6340.072315
6325.901309
6332.159797
6341.458123
6345.704954
6349.214178
6348.387164
6349.661213
6347.716611
6343.46978
6341.145198
6342.083972
6342.396896
6349.638861
6355.38326
6348.074239
6344.36385
6342.106323
6344.36385
6347.917777
6348.543626
6341.838103
6346.084934
6349.661213
6348.565978
6349.527103
6343.693297
6345.190864
6351.739925
6355.874998
6348.297757
6346.241396
6348.230701
6347.157818
6348.990661
6350.443524
6353.684527
6354.131562
6349.437696
6347.046059
6354.10921
6354.466838
6353.21514
6356.657309
6359.697146
6362.222894
6356.992585
6352.768106
6351.896388
6347.783667
6347.426039
6352.678699
6353.282196
6357.95371
6359.160705
6351.739925
6352.56694
6358.132524
6361.954673
6352.902216
6355.651481
6362.960501
6365.463896
6360.188885
6350.555283
6354.399783
6362.401707
6358.870132
6357.417268
6362.066431
6360.300643
6362.826391
6364.949806
6358.691318
6363.943978
6368.436678
6364.346309
6360.948844
6360.501809
6365.933283
6366.581484
6366.201504
6364.413364
6354.757411
6358.423097
6371.342405
6376.282141
6368.593141
6364.055737
6366.134449
6360.658271
6363.429888
6369.084879
6372.437641
6380.998359
6375.410423
6372.772917
6371.185943
6367.542609
6372.929379
6377.153859
6371.029481
6374.583408
6373.57758
6368.771955
6372.907027
6374.583408
6375.455126
6373.890504
6370.604798
6374.471649
6378.696129
6376.103327
6365.218027
6355.696184
6364.972158
6375.611588
6375.835106
6370.224818
6377.086804
6384.351121
6376.639769
6371.029481
6368.928417
6369.107231
6371.856495
6372.68351
6374.024615
6369.308396
6367.184981
6362.468763
6360.971196
6373.57758
6379.254923
6371.677681
6370.470687
6371.454164
6370.113059
6363.228722
6358.490152
6370.76126
6371.431812
6363.474591
6365.732117
6366.447373
6362.04408
6369.822487
6369.151934
6363.631053
6361.842914
6361.507638
6361.440582
6364.860399
6360.322995
6364.681585
6367.43085
6369.21899
6361.351175
6355.51737
6358.758373
6365.12862
6363.519295
6358.981891
6355.740888
6361.775859
6364.212199
6363.742812
6362.669928
6360.099478
6368.995472
6370.38128
6362.915798
6357.998414
6360.881789
6366.603835
6364.458068
6358.043117
6361.239417
6366.53678
6366.089745
6362.3123
6362.915798
6368.369623
6369.755431
6366.559132
6363.519295
6360.054774
6356.903178
6357.149048
6368.660196
6374.046966
6369.442507
6362.982853
6360.993548
6365.866228
6363.228722
6363.474591
6363.496943
6360.725327
6364.48042
6364.368661
6368.526085
6368.436678
6370.560094
6370.873019
6363.921626
6370.89537
6380.998359
6373.532876
6370.515391
6363.96633
6365.821524
6376.483306
6378.763184
6376.416251
6370.940074
6371.543571
6373.130545
6368.347271
6370.001301
6373.823449
6370.76126
6368.593141
6371.677681
6379.880772
6382.451222
6379.925475
6382.741795
6384.7311
6392.442452
6401.51726
6420.024505
6423.086694
6415.196528
6416.850557
6428.652278
6431.62506
6441.906862
6445.639604
6450.400525
6455.004985
6457.821305
6452.970976
6453.596825
6454.513246
6457.620139
6458.134229
6456.882531
6460.950549
6456.726069
6451.093429
6449.640566
6455.675537
6459.676499
6461.174066
6461.956377
6457.642491
6458.849485
6456.703717
6454.93793
6459.162409
6463.051613
6458.201284
6455.720241
6457.88836
6466.47143
6462.448116
6454.870874
6464.929159
6471.321758
6466.896113
6467.186685
6465.19738
6464.370366
6469.265398
6468.952473
6465.599712
6464.772697
6468.885418
6476.395604
6471.321758
6460.235293
6458.40245
6471.075889
6480.754194
6471.366462
6465.040918
6464.124496
6467.276092
6460.235293
6466.002043
6470.159467
6470.293578
6477.155563
6471.902904
6465.666767
6465.934988
6464.727994
6461.35288
6463.029261
6467.231389
6468.281921
6466.583188
6467.767831
6471.299406
6466.98552
6466.270264
6467.991348
6465.644415
6459.788258
6456.055517
6461.241121
6460.749383
6458.648319
6462.62693
6464.862104
6469.332453
6462.872799
6459.005947
6461.196418
6459.900017
6463.342185
6465.622063
6463.252778
6465.689119
6461.844619
6464.236255
6466.113802
6460.771735
6465.219732
6458.670671
6453.909749
6462.112839
6452.926273
6452.836866
6463.364537
6468.997177
6469.332453
6462.984558
6458.134229
6464.191552
6460.816438
6454.401488
6460.011775
6472.707566
6464.370366
6456.256682
6454.334432
6459.520037
6461.911674
6454.982633
6460.190589
6470.695909
6473.959264
6469.846543
6456.61431
6462.023432
6467.589017
6458.245988
6459.698851
6458.290691
6464.973863
6458.894188
6464.213903
6458.53656
6450.624043
6464.415069
6464.482124
6455.317909
6460.078831
6463.14102
6460.928197
6458.514209
6459.452982
6452.76981
6461.643453
6462.023432
6461.86697
6467.49961
6460.190589
6460.235293
6452.143961
6457.061345
6471.8582
6465.264435
6462.135191
6469.153639
6454.155618
6455.407316
6463.476296
6458.961244
6455.20615
6450.33347
6459.117706
6466.449078
6462.425764
6460.794087
6444.454961
6434.553139
6454.826171
6475.278017
6467.946645
6480.933008
6482.967017
6448.254758
6454.356784
6469.332453
6457.776601
6448.120647
6465.934988
6471.835848
6459.005947
6458.961244
6459.989424
6463.766869
6464.593883
6466.337319
6464.482124
6457.083697
6464.102145
6467.007872
6453.932101
6450.33347
6470.137116
6474.652168
6473.78045
6461.934026
6455.362613
6461.643453
6443.449133
6449.886435
6460.794087
6467.097278
6457.284863
6448.7912
6458.178932
6459.162409
6456.4802
6446.332508
6458.02247
6452.76981
6444.857293
6455.474371
6449.618214
6459.877665
6457.329566
6449.931139
6451.339299
6435.491912
6449.148828
6465.219732
6459.564741
6457.418973
6446.533674
6434.351973
6444.387906
6435.715429
6444.544368
6458.380098
6458.02247
6442.867987
6440.766924
6448.053592
6441.526883
6440.364592
6449.886435
6455.541427
6460.45881
6446.623081
6447.047764
6443.002098
6448.835903
6447.695964
6455.20615
6447.092467
6448.210054
6444.43261
6442.733877
6444.991403
6448.053592
6455.630834
6455.653185
6445.818418
6447.718316
6452.25572
6449.551159
6449.729973
6445.036107
6449.484104
6449.595863
6448.701793
6462.649281
6460.168238
6454.021508
6455.139095
6456.4802
6446.466618
6448.970014
6458.178932
6449.908787
6436.900072
6440.453999
6439.448171
6442.443304
6443.426781
6443.337374
6444.119685
6432.586185
6428.451112
6420.382133
6413.073112
6410.502662
6412.603726
6406.680513
6398.343313
6390.296685
6385.424004
6387.346254
6385.424004
6370.023652
6358.020766
6359.205408
6363.787516
6355.964405
6351.53876
6355.249149
6363.563998
6369.777783
6369.777783
6358.825428
6354.556245
6355.338556
6354.265672
6345.682603
6356.657309
6371.320053
6363.340481
6353.192789
6343.693297
6349.482399
6359.898312
6356.41144
6356.769068
6357.685489
6360.591216
6365.732117
6363.407536
6351.829332
6348.565978
6348.677736
6352.857513
6361.485286
6368.771955
6359.786553
6355.740888
6358.914835
6365.195676
6355.964405
6352.030498
6359.093649
6357.037289
6360.546513
6365.732117
6361.306472
6356.79142
6357.707841
6360.859437
6360.837085
6356.41144
6352.94692
6356.523199
6360.39005
6365.933283
6360.211237
6363.474591
6368.704899
6369.755431
6367.587312
6365.419193
6364.458068
6355.942053
6359.585388
6365.977987
6371.878847
6369.375452
6369.86719
6360.032423
6359.495981
6365.285082
6362.535818
6361.619396
6363.362832
6363.631053
6362.289949
6360.658271
6364.234551
6367.632016
6364.391013
6363.96633
6357.43962
6359.250111
6365.530952
6360.613568
6361.887617
6368.32492
6360.524161
6355.785591
6367.117926
6363.563998
6361.597045
6365.463896
6352.276367
6354.466838
6360.837085
6365.575655
6369.151934
6366.53678
6365.530952
6360.501809
6363.362832
6372.81762
6368.414327
6372.348234
6372.348234
6367.140277
6363.988681
6360.948844
6364.122792
6362.289949
6364.256902
6368.526085
6378.092632
6372.907027
6374.114022
6373.018786
6369.844838
6367.207333
6368.97312
6373.219952
6358.892484
6359.317167
6368.123754
6377.55619
6378.58437
6381.825373
6380.908952
6370.805963
6362.736984
6366.91676
6373.666987
6373.912856
6375.142202
6359.831257
6360.971196
6364.234551
6359.943016
6361.820562
6372.16942
6378.159687
6370.113059
6368.995472
6372.661158
6372.080013
6371.208295
6372.862324
6364.659234
6363.161667
6375.700995
6379.903123
6377.109155
6372.459992
6364.748641
6371.722385
6369.084879
6373.801097
6378.96435
6368.548437
6368.168458
6371.163591
6376.371548
6373.041138
6375.365719
6379.657254
6377.265618
6375.432774
6380.260751
6373.309359
6372.996434
6375.700995
6379.947827
6381.154821
6379.433737
6374.896333
6373.018786
6368.861362
6376.863286
6385.692225
6386.116908
6375.946865
6380.841897
6380.8866
6379.210219
6387.9274
6395.191717
6389.715539
6386.943923
6386.13926
6380.774841
6381.981836
6384.507583
6378.494963
6375.253961
6383.658216
6383.434699
6383.635865
6389.98376
6388.665007
6387.54742
6384.194658
6382.16065
6380.081937
6378.517315
6381.333635
6380.50662
6381.311283
6386.429833
6391.660141
6385.133432
6371.163591
6372.549399
6378.025577
6378.025577
6379.880772
6388.508545
6391.213106
6389.022635
6393.649446
6396.242249
6382.80885
6367.296739
6372.974083
6384.172307
6381.557152
6382.987664
6385.446356
6388.463841
6379.523144
6380.819545
6381.825373
6386.51924
6391.682493
6390.721368
6384.820507
6384.194658
6388.642655
6381.490097
6375.723347
6385.424004
6393.805908
6396.577525
6393.470632
6382.965312
6387.860344
6396.152842
6391.727196
6381.40069
6386.13926
6390.207278
6390.788423
6390.989589
6387.390958
6388.888525
6386.586295
6385.75928
6387.212144
6395.348179
6398.142147
6382.183001
6380.439565
6385.356949
6385.021673
6387.122737
6389.000283
6390.319036
6395.594048
6396.711635
6378.204391
6380.059586
6378.629074
6374.628112
6385.178135
6388.933228
6395.370531
6395.281124
6382.741795
6381.26658
6386.072205
6383.725272
6383.389996
6380.260751
6382.272408
6393.291818
6385.289894
6384.395824
6386.51924
6384.284065
6382.16065
6395.817565
6404.467691
6405.115891
6390.810775
6378.137336
6382.562981
6382.853554
6389.044987
6400.958467
6392.733025
6381.087766
6378.986702
6379.679606
6379.545495
6376.125679
6384.686397
6387.100385
6393.001246
6392.241286
6388.128565
6379.321978
6371.901199
6372.571751
6375.231609
6382.317112
6391.213106
6387.54742
6387.636827
6379.590199
6379.411385
6379.389033
6376.52801
6372.638806
6377.265618
6396.64458
6404.422987
6379.970179
6365.687414
6376.416251
6379.210219
6375.253961
6379.925475
6390.944885
6378.204391
6359.965367
6376.259789
6381.423042
6381.445394
6379.612551
6383.255885
6377.600894
6386.094557
6391.302513
6382.898257
6389.872001
6405.540574
6412.40256
6413.676609
6418.929269
6423.086694
6429.725162
6437.123589
6438.442342
6449.864084
6459.341223
6458.357746
6463.543351
6478.496668
6482.609389
6472.931084
6469.086584
6471.366462
6473.825154
6473.892209
6474.316892
6476.21679
6471.47822
6478.675482
6484.352825
6484.397529
6480.284808
6486.118613
6483.101128
6490.968942
6487.459718
6471.098241
6473.26636
6492.287694
6488.577305
6487.884401
6486.610351
6483.972846
6490.119575
6481.402395
6489.449023
6493.561744
6485.381005
6476.842639
6463.252778
6474.629816
6487.079738
6489.739596
6490.94659
6477.557895
6480.530677
6486.163317
6488.420843
6486.096261
6479.748366
6478.429613
6488.018511
6473.668691
6477.312026
6495.104014
6488.867878
6486.520944
6484.66575
6486.498593
6476.753232
6477.915523
6488.845526
6491.259514
6486.364482
6486.34213
6484.41988
6481.178877
6477.826116
6475.434479
6480.865953
6488.465546
6501.854241
6501.809538
6492.310046
6468.594845
6475.076851
6492.310046
6484.375177
6479.41309
6488.040863
6496.355712
6486.319779
6480.977712
6477.826116
6483.972846
6492.064177
6492.757081
6499.172032
6503.977657
6496.311008
6497.920334
6490.186631
6487.057386
6491.013645
6496.825099
6493.427633
6494.008779
6499.239087
6509.923221
6507.509232
6496.355712
6492.667674
6495.841622
6495.17107
6494.79109
6499.239087
6494.858145
6500.781357
6511.644305
6503.798843
6495.595753
6491.371273
6487.772642
6492.198288
6492.019474
6485.17984
6500.021398
6496.690988
6491.192459
6494.813442
6492.600619
6486.386834
6488.51025
6483.279941
6488.174974
6499.373197
6495.30518
6483.212886
6487.057386
6488.711415
6488.577305
6482.408223
6483.637569
6488.912581
6489.337264
6489.627837
6494.165241
6490.119575
6488.554953
6486.945628
6490.499555
6485.425709
6483.458755
6481.782375
6488.063215
6491.371273
6492.913543
6489.806651
6487.392662
6492.779433
6495.014607
6489.203154
6476.663825
6475.635645
6482.251761
6488.353787
6493.874668
6497.36154
6497.830927
6484.933971
6488.51025
6490.454851
6496.84745
6492.35475
6487.482069
6489.784299
6495.104014
6493.986427
6482.654093
6479.278979
6494.835793
6499.484956
6495.036959
6487.2362
6489.806651
6495.17107
6493.941724
6495.30518
6487.057386
6491.684197
6489.180802
6490.477203
6491.214811
6487.99616
6491.84066
6501.898945
6499.641418
6492.377101
6490.901886
6496.512174
6505.497575
6498.657942
6494.366407
6501.07193
6499.976695
6499.060273
6489.091395
6488.733767
6498.009741
6496.378064
6500.356674
6501.07193
6502.368331
6504.983485
6501.809538
6505.184651
6502.435386
6494.254648
6497.272134
6500.647247
6494.254648
6495.059311
6497.518003
6494.589924
6509.409131
6511.845471
6497.830927
6494.232296
6502.927125
6499.239087
6492.555915
6502.591849
6498.657942
6502.435386
6502.770663
6504.961134
6514.930012
6503.195346
6498.434424
6499.01557
6502.301276
6500.535488
6501.407206
6504.715264
6506.861032
6508.358599
6508.76093
6503.038884
6498.25561
6501.429558
6501.340151
6503.195346
6505.43052
6507.129253
6503.038884
6499.194384
6500.960171
6497.070968
6503.217698
6505.94461
6497.205078
6484.933971
6471.232351
6471.098241
6468.326624
6456.569607
6451.428706
6453.52977
6445.237272
6436.006002
6416.24706
6409.429778
6410.681475
6410.10033
6407.082845
6401.718426
6397.248077
6392.017769
6388.597952
6377.869115
6380.618379
6392.129528
6391.682493
6396.242249
6388.374435
6387.726234
6391.660141
6393.31417
6389.894353
6385.24519
6389.000283
6395.571696
6395.817565
6396.041083
6391.280161
6388.597952
6389.939057
6393.113004
6393.001246
6390.631961
6395.526993
6401.964295
6394.878792
6396.219897
6390.296685
6383.524106
6392.397749
6404.735911
6402.456034
6389.782594
6385.021673
6385.066376
6388.083862
6393.560039
6394.521164
6397.695112
6400.936115
6395.23642
6392.621266
6400.891411
6394.588219
6387.435661
6387.748586
6381.981836
6388.463841
6403.908897
6403.573621
6395.169365
6387.860344
6390.631961
6395.415234
6395.10231
6397.359836
6391.615437
6399.97499
6400.042045
6389.715539
6389.313208
6393.247115
6394.431757
6393.291818
6385.692225
6387.770937
6397.337484
6401.159632
6396.376359
6393.001246
6397.471595
6395.996379
6391.682493
6395.683455
6406.904031
6412.626077
6405.384112
6400.466728
6400.1091
6403.640676
6403.014827
6403.975952
6402.567792
6406.971086
6410.346199
6408.088673
6405.071188
6411.195566
6408.982743
6397.940981
6396.063435
6394.588219
6410.055627
6417.543461
6411.329676
6400.399673
6403.081882
6415.084769
6414.302458
6412.067284
6408.602763
6403.730083
6408.491005
6417.252888
6411.463787
6407.909859
6411.977877
6415.151824
6414.302458
6405.428816
6396.845746
6399.662065
6408.870984
6412.156691
6412.715484
6405.562926
6397.53865
6409.943868
6412.827243
6407.753397
6410.681475
6405.540574
6403.931249
6398.030388
6402.567792
6410.234441
6410.9944
6412.559022
6417.454054
6414.45892
6404.892374
6404.870022
6413.274278
6411.575545
6405.786443
6407.440473
6407.842804
6408.491005
6416.649391
6414.257755
6404.244173
6406.009961
6411.061455
6413.251926
6411.664952
6414.145996
6417.476406
6414.32481
6410.435606
6416.515281
6419.845691
6428.696982
6426.327697
6421.857348
6421.589127
6412.179042
6416.157653
6421.253851
6425.210109
6429.792217
6421.49972
6411.977877
6410.569717
6422.416141
6427.132359
6426.707676
6431.11097
6417.431702
6414.257755
6414.213051
6411.955525
6407.172252
6414.481272
6424.584261
6429.769865
6429.881624
6428.339354
6419.06338
6411.530842
6413.229574
6413.006057
6414.257755
6416.515281
6419.935098
6418.281069
6415.263583
6410.972048
6413.140167
6419.219842
6418.862214
6414.190699
6410.346199
6413.475444
6411.843766
6409.697999
6408.647467
6417.007019
6421.790292
6418.482234
6411.463787
6416.403522
6415.86708
6407.820452
6406.702865
6415.084769
6419.778635
6412.000228
6410.882641
6413.564851
6419.510415
6422.103217
6427.512339
6422.39379
6417.498758
6420.158615
6421.589127
6411.664952
6409.250964
6417.722275
6429.255775
6429.948679
6427.892319
6415.576508
6421.790292
6425.679496
6422.818473
6419.488063
6413.631906
6418.281069
6430.105141
6427.132359
6420.940926
6411.396731
6416.805853
6429.032258
6425.679496
6421.611479
6416.537633
6421.834996
6428.831092
6422.036162
6418.884566
6415.86708
6419.443359
6428.115836
6430.842749
6425.053647
6421.343258
6421.097388
6424.07017
6424.159577
6424.226633
6427.959374
6429.211072
6423.019638
6427.333525
6428.987554
6422.90788
6421.767941
6429.792217
6430.798045
6430.440418
6431.468598
6430.999211
6426.908842
6423.93606
6427.154711
6431.803874
6430.574528
6422.505548
6425.880662
6424.383095
6426.327697
6431.602708
6431.379191
6431.580357
6425.7242
6426.260641
6425.85831
6433.614365
6431.24508
6426.573566
6428.741685
6430.507473
6435.581319
6435.111932
6426.439455
6426.75238
6426.685325
6428.29465
6427.735857
6421.946755
6431.62506
6433.457903
6423.064342
6431.021563
6440.677517
6436.810665
6420.963278
6418.079903
6427.489987
6425.768903
6420.829167
6422.706714
6426.059476
6420.493891
6427.869967
6427.713505
6431.580357
6438.375287
6426.148883
6421.320906
6422.952583
6422.617307
6424.874833
6418.772807
6412.380208
6422.237327
6433.16733
6433.793179
6434.866063
6435.000173
6428.406409
6427.981726
6425.187758
6419.130435
6430.887452
6434.776656
6439.559929
6437.816493
6428.875795
6425.299516
6425.031295
6432.966165
6441.61629
6435.648374
6427.668801
6432.452075
6436.36363
6428.764037
6424.360743
6434.083752
6439.291708
6443.963223
6443.247967
6447.092467
6439.269357
6420.538595
6426.014772
6438.93408
6441.325717
6442.845636
6442.175083
6440.521054
6447.964185
6443.650299
6435.827188
6431.446246
6434.486083
6432.340316
6442.867987
6446.041935
6439.962261
6440.833979
6434.396676
6430.328659
6435.804836
6449.551159
6438.79997
6440.655165
6441.057496
6441.683345
6445.393735
6436.587147
6426.819435
6433.815531
6445.706659
6449.349993
6444.253796
6435.871891
6443.940871
6450.065249
6434.910766
6437.503569
6449.68527
6451.138133
6444.834941
6440.565758
6441.728049
6440.386944
6441.348069
6446.86895
6449.215883
6447.785371
6447.427743
6448.7912
6449.886435
6453.239197
6458.268339
6456.569607
6453.127438
6456.591959
6448.813552
6450.758153
6450.244063
6446.332508
6450.780505
6457.776601
6465.756174
6458.044822
6453.038031
6455.183799
6455.653185
6458.625967
6458.044822
6455.58613
6457.016642
6457.642491
6452.903921
6454.602653
6451.36165
6448.27711
6453.730935
6457.597787
6466.47143
6464.571531
6461.598749
6454.915578
6455.116743
6459.94472
6453.797991
6454.647357
6457.754249
6458.02247
6462.872799
6465.979691
6461.017604
6457.351918
6461.285825
6463.65511
6454.312081
6437.525921
6442.64447
6454.647357
6455.831999
6458.000118
6460.235293
6460.034127
6453.462714
6454.04386
6451.384002
6460.503514
6462.76104
6460.816438
6461.308177
6457.843656
6452.680403
6451.786334
6464.973863
6469.667729
6468.930122
6460.682328
6452.456886
6455.407316
6456.144924
6461.822267
6463.543351
6466.940816
6463.699813
6453.418011
6454.379136
6458.357746
6456.659014
6456.927235
6464.973863
6470.382985
6472.104069
6466.382023
6466.829058
6467.387851
6470.181819
6479.301331
6473.601636
6465.040918
6470.114764
6474.853334
6472.707566
6472.461697
6468.751308
6469.243046
6465.040918
6466.963168
6473.199305
6477.043805
6473.244008
6468.572494
6470.025357
6470.874723
6475.903866
6484.263418
6476.462659
6473.981616
6477.49084
6470.427688
6467.566665
6472.573456
6479.681311
6481.312988
6471.701738
6471.925255
6477.848468
6471.925255
6468.639549
6473.981616
6474.652168
6480.284808
6474.763927
6476.909694
6474.763927
6481.514154
6473.623988
6468.617197
6471.388813
6479.368386
6483.414052
6484.598694
6483.77168
6483.861087
6481.357691
6479.055462
6478.340206
6477.289674
6484.889267
6488.465546
6483.436404
6489.67254
6485.425709
6479.971883
6478.966055
6484.889267
6486.833869
6486.565648
6486.990331
6485.269247
6487.549125
6493.271171
6493.159413
6486.431537
6485.470412
6493.807613
6494.880497
6494.321703
6496.355712
6496.735692
6496.825099
6488.331436
6481.067119
6479.636607
6478.474316
6488.890229
6499.127328
6503.687084
6498.568535
6486.006854
6488.912581
6487.191497
6483.436404
6486.543296
6495.796918
6496.109843
6497.205078
6491.863011
6490.141927
6491.863011
6488.622008
6494.053482
6495.931029
6489.359616
6493.941724
6493.941724
6498.501479
6506.391645
6502.211869
6496.601581
6495.059311
6490.030168
6490.790128
6492.891192
6490.924238
6497.786224
6498.1215
6497.987389
6489.001988
6488.532601
6488.823174
6496.467471
6504.759968
6508.515061
6495.036959
6492.377101
6494.589924
6494.500517
6499.730825
6501.45191
6493.919372
6497.048616
6500.580192
6500.803709
6498.479128
6490.007817
6490.477203
6491.930067
6494.612276
6499.462604
6505.207003
6495.126366
6479.882476
6476.149735
6473.713395
6466.292616
6468.572494
6472.528752
6468.930122
6456.279034
6457.262511
6455.340261
6464.906808
6472.349938
6474.942741
6474.316892
6466.739651
6465.309139
6464.146848
6478.608427
6483.168183
6471.232351
6472.014662
6468.930122
6471.791145
6476.552066
6473.221656
6474.406299
6473.378119
6476.440308
6476.417956
6478.966055
6471.679386
6463.208075
6466.829058
6474.383947
6481.067119
6474.830982
6467.566665
6477.669654
6480.620084
6487.325607
6483.25759
6479.726014
6475.0545
6475.166258
6481.827078
6479.770718
6472.864029
6474.495706
6468.818363
6470.83002
6478.049633
6482.855258
6483.90579
6478.295502
6475.725052
6480.150697
6480.776546
6487.124442
6484.732805
6476.552066
6475.523886
6480.731843
6486.72211
6481.46945
6479.189572
6477.669654
6466.314967
6466.784354
6476.194438
6478.071985
6478.899
6470.897075
6474.920389
6484.41988
6482.631741
6474.249837
6472.37229
6472.305235
6481.84943
6479.971883
6477.11086
6475.233313
6478.831944
6482.184706
6478.675482
6472.75227
6481.737671
6484.978674
6479.971883
6480.262456
6483.77168
6481.625912
6480.642436
6481.290636
6487.794994
6488.577305
6495.372235
6490.074872
6483.615218
6482.519982
6484.397529
6489.02434
6491.125404
6485.895096
6492.399453
6493.472337
6491.572439
6489.583133
6493.829965
6492.332398
6494.232296
6499.976695
6497.406244
6499.216735
6505.452872
6505.676389
6500.088453
6495.506346
6498.054445
6500.17786
6505.788148
6503.754139
6503.262401
6504.245878
6501.58602
6499.484956
6510.012628
6517.768683
6518.305125
6514.415921
6508.515061
6506.391645
6507.017494
6510.16909
6512.672485
6522.328439
6523.043695
6520.361486
6517.925145
6520.406189
6529.860977
6529.190425
6536.007707
6531.045619
6534.040753
6534.957175
6543.540245
6555.565483
6545.708364
6536.678259
6533.057276
6522.529605
6532.990221
6547.340041
6550.759858
6549.843436
6551.095134
6540.008669
6537.728791
6543.719058
6544.523721
6544.680183
6544.63548
6545.730715
6544.903701
6533.884291
6539.829855
6547.384745
6552.726811
6548.34587
6551.9445
6553.754992
6549.709326
6544.143742
6542.914396
6545.574253
6549.262291
6556.593663
6560.080535
6562.8298
6560.773439
6557.621844
6555.230207
6549.575216
6552.682108
6551.832742
6548.703497
6553.285605
6557.599492
6559.097059
6554.783172
6555.073745
6559.477038
6560.415812
6564.796754
6563.232131
6558.582969
6556.124277
6562.382765
6566.003748
6564.506181
6562.762745
6566.517838
6570.585855
6563.165076
6565.512009
6559.812314
6556.16898
6563.835628
6565.847285
6564.170905
6566.495486
6565.154381
6567.546018
6571.748146
6573.46923
6571.591684
6570.13882
6571.457573
6573.603341
6572.999844
6576.28555
6570.608207
6566.182562
6577.649007
6586.567353
6578.833649
6573.044547
6570.13882
6574.765632
6572.709271
6573.491582
6579.437146
6582.94637
6583.058129
6588.355492
6591.395329
6582.924018
6578.811297
6575.346777
6566.584893
6575.235018
6576.218495
6578.632483
6587.148498
6586.053262
6586.254428
6575.972626
6576.754937
6583.996902
6584.846268
6585.583876
6591.194164
6591.328274
6580.822954
6594.792795
6594.99396
6587.729643
6582.611094
6577.023158
6574.787983
6590.478908
6605.029894
6609.656705
6601.65478
6601.252449
6598.257315
6595.798623
6598.547888
6602.392388
6600.179565
6594.569277
6600.738359
6595.038664
6598.413777
6604.895783
6601.565373
6603.57703
6599.061978
6597.229135
6604.180527
6604.180527
6598.011446
6587.953161
6598.592591
6599.285495
6603.979362
6616.51869
6607.130957
6586.701463
6584.890972
6599.553716
6605.812205
6602.392388
6607.689751
6618.128016
6611.534251
6612.1601
6619.044437
6615.512862
6614.618792
6610.439016
6611.757769
6610.707237
6616.965725
6613.94824
6615.512862
6618.530347
6623.537138
6623.268917
6617.077484
6614.305867
6612.830652
6616.697504
6607.779158
6613.232984
6611.847176
6610.595478
6609.321428
6613.05417
6620.944336
6625.302926
6624.744132
6616.362228
6610.729588
6605.521632
6610.886051
6615.244641
6621.681943
6625.012353
6625.280574
6622.263088
6620.832577
6606.169832
6599.173736
6614.059998
6629.393295
6627.739266
6606.706274
6586.746167
6613.56826
6634.645955
6632.030801
6629.885033
6625.48174
6618.30683
6621.748998
6624.677077
6610.640181
6609.522594
6619.223251
6633.506016
6624.230042
6613.94824
6616.786911
6621.614888
6620.944336
6618.798568
6619.782045
6625.727609
6626.442865
6628.968612
6627.247528
6630.332068
6628.834501
6624.900594
6617.882147
6616.295173
6621.927812
6626.420513
6620.474949
6610.774292
6613.009466
6620.944336
6626.688734
6612.987115
6613.925888
6602.079463
6589.562486
6590.478908
6587.68494
6593.295228
6593.697559
6594.926905
6595.396292
6587.349664
6567.791887
6569.937655
6594.792795
6595.306885
6581.605265
6578.923056
6587.640236
6592.199992
6593.541097
6584.958027
6588.109623
6608.427359
6604.046417
6584.35453
6568.08246
6567.635425
6592.065882
6604.4711
6604.381693
6603.465271
6594.904553
6589.160155
6588.489603
6590.50126
6587.841402
6587.68494
6591.417681
6599.933696
6605.208707
6605.141652
6600.157213
6592.468213
6588.646065
6597.363245
6591.171812
6593.675207
6597.653818
6594.301056
6583.058129
6587.260257
6599.196088
6604.247582
6603.599382
6598.279667
6594.949257
6591.507088
6591.350626
6596.580934
6601.721835
6600.134861
6590.814184
6584.756861
6594.926905
6597.072672
6590.25539
6592.892896
6603.241754
6600.447786
6594.524574
6594.613981
6587.796699
6588.869582
6596.715045
6598.212611
6601.923001
6602.16887
6589.473079
6588.422547
6589.495431
6590.992998
6592.468213
6597.653818
6605.812205
6602.660609
6586.857925
6585.740338
6585.181544
6588.646065
6591.484736
6597.363245
6596.7821
6593.027007
6591.551792
6593.339931
6593.049358
6588.221382
6586.209725
6582.164059
6584.108661
6587.997864
6598.257315
6601.364207
6601.699484
6602.772367
6596.133899
6589.137803
6579.928884
6581.314693
6588.824879
6587.483774
6592.669379
6597.966742
6596.312713
6593.049358
6597.698521
6589.853059
6586.477946
6596.357417
6592.334103
6584.801565
6587.327312
6600.961876
6605.566335
6598.972571
6592.959952
6592.04353
6593.96578
6590.702425
6588.422547
6596.379768
6609.991981
6600.090158
6592.42351
6591.976475
6600.224268
6603.733492
6601.878298
6594.636332
6591.998827
6591.261219
6586.79087
6588.355492
6589.495431
6587.841402
6587.349664
6592.624675
6600.648952
6596.40212
6589.942466
6596.223306
6598.614943
6597.519707
6601.565373
6595.865678
6586.679111
6588.33314
6588.467251
6584.287475
6599.374902
6601.855946
6605.454577
6604.180527
6592.624675
6589.316617
6583.393405
6577.537248
6583.706329
6593.295228
6604.135824
6604.068769
6602.16887
6595.351588
6591.261219
6587.416719
6575.25737
6578.699539
6594.725739
6600.872469
6600.157213
6599.017274
6595.284533
6590.769481
6591.730606
6601.319504
6595.463347
6587.416719
6581.873486
6584.175716
6588.243733
6595.083367
6591.507088
6591.283571
6597.407949
6592.17764
6579.727719
6578.341911
6586.65676
6590.925943
6583.281646
6586.366187
6594.122242
6583.773385
6578.990111
6581.605265
6587.036739
6588.154326
6586.634408
6586.299132
6574.676225
6569.691786
6577.604303
6586.299132
6595.016312
6600.201917
6602.54885
6601.341856
6588.601361
6588.71312
6597.81028
6608.248545
6608.44971
6607.198013
6609.835519
6606.415702
6606.840385
6605.968667
6602.839423
6601.565373
6603.554678
6604.582859
6601.364207
6605.789853
6600.470138
6598.100853
6601.475966
6605.275763
6608.136786
6606.192184
6604.292286
6600.11251
6595.038664
6593.295228
6597.497356
6599.263143
6598.994923
6601.118338
6608.270896
6608.472062
6602.191222
6601.587725
6600.000751
6599.374902
6597.095024
6592.512917
6595.37394
6590.523611
6598.570239
6606.594516
6601.610077
6594.613981
6597.877335
6594.613981
6592.334103
6595.642161
6599.196088
6601.118338
6603.889955
6603.085292
6595.843327
6591.887068
6593.406986
6597.854984
6604.739321
6610.953106
6612.204803
6607.086254
6600.268972
6596.290361
6596.156251
6602.191222
6608.516766
6608.270896
6615.62462
6609.85787
6610.550774
6610.170795
6602.638257
6600.783062
6599.017274
6602.68296
6606.169832
6601.028931
6599.821937
6603.867603
6609.164966
6608.3156
6614.618792
6611.690713
6600.872469
6597.765577
6611.847176
6609.276725
6600.537193
6603.219402
6606.862737
6603.44292
6608.382655
6611.176623
6599.710178
6591.216515
6586.232076
6582.611094
6585.986207
6589.875411
6598.771405
6592.445861
6590.702425
6587.975513
6583.952198
6590.389501
6593.272876
6588.958989
6589.98717
6592.155289
6591.082405
6598.816109
6608.047379
6593.45169
6579.079518
6574.028024
6580.442975
6589.271914
6588.847231
6582.834611
6590.836536
6593.116414
6599.844289
6591.14946
6580.241809
6582.186411
6583.616922
6583.996902
6587.662588
6591.998827
6593.518745
6593.138765
6584.309826
6588.467251
6592.9376
6590.25539
6588.400196
6590.165983
6593.138765
6593.250524
6588.288437
6594.166946
6596.692693
6590.903591
6586.79087
6581.649969
6579.660664
6582.611094
6584.466289
6600.313675
6596.737396
6582.544039
6587.81905
6597.095024
6591.194164
6585.069786
6588.422547
6591.127108
6595.038664
6590.613018
6595.977437
6600.872469
6597.184431
6588.981341
6584.220419
6582.879315
6587.059091
6584.198068
6590.948295
6597.385597
6589.7413
6580.867658
6585.203896
6596.759748
6591.305922
6586.254428
6584.510992
6580.420623
6584.779213
6589.763652
6592.155289
6586.679111
6582.0523
6578.856001
6576.084384
6580.554733
6586.142669
6586.679111
6594.85985
6589.316617
6583.281646
6569.714137
6562.203951
6554.514951
6545.484846
6544.099038
6552.257425
6557.19716
6559.968777
6556.280739
6552.659756
6552.659756
6556.392498
6564.059146
6563.656815
6559.164114
6555.27491
6547.943538
6548.032945
6547.58591
6556.481905
6562.31571
6564.059146
6560.52757
6556.236035
6551.788038
6544.881349
6557.688899
6557.688899
6552.279777
6558.158285
6563.276835
6560.304053
6558.582969
6556.481905
6549.239939
6550.40223
6559.186466
6561.913378
6562.069841
6561.779268
6558.672376
6557.040698
6548.077649
6539.271061
6544.836646
6557.621844
6558.225341
6557.308919
6559.320576
6551.653928
6551.989204
6553.710288
6554.738468
6553.822047
6554.76082
6562.896855
6547.474152
6549.955195
6555.744297
6548.189407
6549.932843
6556.012518
6557.979471
6555.677242
6552.056259
6552.503294
6558.9853
6563.075669
6556.750125
6550.40223
6549.128181
6551.653928
6549.686974
6549.485809
6554.291434
6567.680129
6578.140745
6570.764669
6567.166038
6562.494524
6557.241864
6556.571312
6564.282663
6567.680129
6572.999844
6582.164059
6575.793812
6567.791887
6568.350681
6565.601416
6565.579065
6564.908512
6565.78023
6569.11064
6566.115506
6567.791887
6560.371108
6561.019309
6562.31571
6553.307957
6561.645158
6567.948349
6568.753012
6564.953216
6567.210742
6570.071765
6568.149515
6564.863809
6563.008614
6570.809373
6569.49062
6567.680129
6571.681091
6572.30694
6569.602379
6569.557675
6563.388594
6561.198123
6562.047489
6562.539227
6563.679166
6568.931826
6572.552809
6561.555751
6556.481905
6561.064012
6573.268065
6579.99594
6576.017329
6569.870599
6564.148553
6562.248655
6564.103849
6562.852152
6568.59655
6570.228227
6572.619864
6566.517838
6568.797716
6566.853114
6566.450783
6561.645158
6558.962948
6568.641254
6579.884181
6577.738414
6569.468268
6561.488695
6564.841457
6567.076631
6567.478963
6568.864771
6570.362338
6563.500352
6566.6743
6562.941559
6563.567408
6565.690823
6565.333195
6566.473134
6565.579065
6570.205876
6566.450783
6564.975567
6568.037756
6565.534361
6565.64612
6566.428431
6560.214646
6563.030966
6569.378861
6571.055242
6569.065937
6573.648044
6570.988187
6563.008614
6563.388594
6568.037756
6572.150477
6567.546018
6569.848248
6575.123259
6559.342928
6558.761782
6564.215608
6568.417736
6570.049413
6568.194219
6568.59655
6564.930864
6572.105774
6575.056204
6565.757879
6563.20978
6562.561579
6560.52757
6554.716117
6556.079573
6561.086364
6559.834666
6565.579065
6564.662643
6561.108716
6556.280739
6560.818143
6562.874503
6564.081498
6568.97653
6567.009576
6559.074707
6552.995032
6559.477038
6561.756916
6558.068878
6563.567408
6572.597512
6569.356509
6566.517838
6560.438163
6555.856056
6558.247692
6564.595588
6563.790925
6562.919207
6563.589759
6558.650024
6551.989204
6551.095134
6555.386669
6564.126201
6564.796754
6559.186466
6561.04166
6561.242826
6559.611149
6561.80162
6563.120373
6561.779268
6562.472172
6568.909474
6566.562541
6559.857018
6555.587835
6552.235073
6560.818143
6565.199085
6569.49062
6569.132992
6561.220474
6562.606283
6565.109678
6560.974605
6557.018346
6556.370146
6562.44982
6560.371108
6552.369184
6552.771515
6557.644195
6562.785097
6557.331271
6557.778306
6560.90755
6564.416774
6554.693765
6549.262291
6554.827875
6557.755954
6560.214646
6562.785097
6562.136896
6563.098021
6558.582969
6556.303091
6555.230207
6558.426506
6559.812314
6564.640291
6570.317634
6564.215608
6555.27491
6551.653928
6551.229245
6558.851189
6563.545056
6560.885198
6556.906588
6555.967814
6561.667509
6560.236998
6560.125239
6555.498428
6555.006689
6559.87937
6558.068878
6560.773439
6560.236998
6558.314748
6554.984338
6559.477038
6562.986262
6561.376937
6559.253521
6560.639329
6555.744297
6556.928939
6557.688899
6561.756916
6568.283626
6563.947387
6561.265178
6563.321538
6557.353623
6564.059146
6569.647082
6564.439126
6559.454687
6551.497466
6549.821085
6556.16898
6571.099945
6568.305977
6561.04166
6559.208817
6553.263253
6562.047489
6570.183524
6569.088288
6563.388594
6560.304053
6571.815201
6572.373995
6566.897817
6566.29432
6566.808411
6568.998881
6567.456611
6562.785097
6563.925035
6567.456611
6574.072727
6572.239884
6570.116469
6565.757879
6566.406079
6565.489658
6569.937655
6578.051338
6583.907495
6581.02412
6571.390518
6566.249617
6567.143687
6561.712213
6560.371108
6569.423565
6574.206838
6577.5596
6576.017329
6576.263198
6570.205876
6567.881294
6568.350681
6566.562541
6567.411908
6564.573236
6563.098021
6568.574198
6574.273893
6575.659701
6572.396347
6573.938617
6571.323463
6561.779268
6561.42164
6565.959044
6569.334158
6576.643178
6572.30694
6574.117431
6577.134916
6569.021233
6558.09123
6559.857018
6561.958082
6564.595588
6571.904608
6577.581951
6571.122297
6565.757879
6566.227265
6562.427469
6558.739431
6562.986262
6572.95514
6576.330254
6571.949312
6567.590722
6562.31571
6565.333195
6569.803544
6564.729698
6568.730661
6566.361376
6567.948349
6563.545056
6570.719966
6576.062033
6574.74328
6568.641254
6560.974605
6561.756916
6569.62473
6576.28555
6574.653873
6570.854076
6569.758841
6565.243788
6561.868675
6565.020271
6571.748146
6575.614998
6572.753975
6569.915303
6566.6743
6563.992091
6564.282663
6559.298224
6569.691786
6574.452707
6570.764669
6567.724832
6568.864771
6565.333195
6570.38469
6583.08048
6577.380786
6571.055242
6572.508105
6571.479925
6570.496448
6572.642216
6567.233094
6569.736489
6570.13882
6568.350681
6570.831725
6572.105774
6574.273893
6568.797716
6566.048451
6560.818143
6572.709271
6576.084384
6571.54698
6573.737451
6576.464364
6567.367204
6567.747184
6567.590722
6578.476021
6578.990111
6573.178658
6571.055242
6568.395384
6572.150477
6578.230152
6575.190315
6568.909474
6572.284588
6577.224323
6578.297207
6580.755899
6583.281646
6582.253466
6587.282608
6593.45169
6588.266085
6586.924981
6578.028986
6581.113527
6579.794774
6584.466289
6592.9376
6589.875411
