Detector 2,,,,,,,,Detector 4,,,,,,,,Detector 6,,,,,,,,Detector 8,,,,,,,,Detector 10,,,,,,,,Detector 12,,,,,,,,Detector 14,,,,,,,,Detector 16,,,,,,,
"RED1,2,3,4","IR1,2,3,4 ","RED5,6,7,8","IR5,6,7,8 ","RED9,10,11,12","IR9,10,11,12 ","RED13,14,15,16","IR13,14,15,16 ","RED1,2,3,4","IR1,2,3,4 ","RED5,6,7,8","IR5,6,7,8 ","RED9,10,11,12","IR9,10,11,12 ","RED13,14,15,16","IR13,14,15,16 ","RED1,2,3,4","IR1,2,3,4 ","RED5,6,7,8","IR5,6,7,8 ","RED9,10,11,12","IR9,10,11,12 ","RED13,14,15,16","IR13,14,15,16 ","RED1,2,3,4","IR1,2,3,4 ","RED5,6,7,8","IR5,6,7,8 ","RED9,10,11,12","IR9,10,11,12 ","RED13,14,15,16","IR13,14,15,16 ","RED1,2,3,4","IR1,2,3,4 ","RED5,6,7,8","IR5,6,7,8 ","RED9,10,11,12","IR9,10,11,12 ","RED13,14,15,16","IR13,14,15,16 ","RED1,2,3,4","IR1,2,3,4 ","RED5,6,7,8","IR5,6,7,8 ","RED9,10,11,12","IR9,10,11,12 ","RED13,14,15,16","IR13,14,15,16 ","RED1,2,3,4","IR1,2,3,4 ","RED5,6,7,8","IR5,6,7,8 ","RED9,10,11,12","IR9,10,11,12 ","RED13,14,15,16","IR13,14,15,16 ","RED1,2,3,4","IR1,2,3,4 ","RED5,6,7,8","IR5,6,7,8 ","RED9,10,11,12","IR9,10,11,12 ","RED13,14,15,16","IR13,14,15,16 "
445,4908,204,159,155,153,153,154,10893,37581,762,170,163,162,159,158,3723,28662,565,198,165,165,159,158,26684,61036,1068,345,229,217,221,220,195,261,33898,38249,18783,14132,403,218,182,201,25833,21737,13611,11123,322,191,2835,10937,24299,41891,31923,31513,34023,39317,3118,8094,34437,35782,34766,35914,28592,16673
437,4919,202,157,156,154,154,153,10743,37660,755,168,163,155,148,158,3675,28691,560,199,166,157,158,163,26451,61144,1062,344,228,218,221,217,200,265,34004,38417,18811,14170,405,221,184,205,25899,21807,13631,11149,324,195,3300,10987,24358,42007,31960,31574,34047,39345,3296,8139,34490,35851,34817,35987,28620,16693
437,4911,207,155,153,154,153,156,10747,37595,762,174,163,156,161,155,3681,28669,563,199,166,163,159,163,26488,61150,1071,344,224,225,221,218,200,266,33838,38034,18753,14041,405,219,185,203,25818,21660,13602,11076,324,194,3300,10969,24327,41867,31905,31432,34004,39239,3298,8105,34477,35759,34773,35811,28615,16673
437,4894,200,157,155,154,154,152,10730,37479,753,169,161,159,153,157,3673,28574,559,197,165,161,162,159,26458,60997,1060,346,223,225,220,218,199,268,33695,37804,18708,13998,405,220,184,202,25731,21543,13566,11038,323,194,3295,10894,24284,41743,31882,31383,33983,39198,3286,8038,34426,35677,34747,35758,28609,16668
434,4891,206,157,155,154,151,153,10731,37461,762,177,165,158,158,159,3672,28543,563,200,167,161,158,157,26427,60928,1066,342,227,226,220,213,200,265,33686,37781,18701,13983,404,219,185,204,25717,21525,13557,11025,320,192,3293,10881,24280,41717,31868,31365,33969,39185,3283,8029,34406,35647,34742,35735,28609,16663
438,4891,204,156,155,153,151,152,10734,37469,754,170,165,157,159,159,3671,28524,557,199,165,161,162,155,26412,60897,1060,338,231,224,220,215,205,263,33705,37830,18695,13994,405,218,186,202,25722,21547,13557,11037,320,191,3295,10879,24286,41735,31871,31375,33980,39195,3287,8033,34404,35657,34739,35761,28608,16666
439,4893,203,156,158,154,154,153,10749,37499,761,172,162,157,157,158,3672,28519,562,201,165,167,160,159,26419,60929,1070,343,233,225,219,217,200,265,33714,37832,18697,13990,404,219,184,203,25722,21554,13556,11038,323,194,3294,10882,24291,41734,31847,31358,33977,39195,3289,8041,34417,35673,34733,35759,28607,16668
440,4894,203,157,154,158,152,156,10754,37505,755,171,160,160,161,157,3673,28520,557,200,163,164,162,157,26431,60931,1055,345,234,227,218,219,203,265,33729,37873,18702,14007,403,223,187,203,25729,21569,13563,11051,321,192,3298,10887,24295,41747,31851,31375,33983,39211,3293,8040,34414,35691,34730,35789,28611,16671
437,4899,203,156,154,155,156,153,10758,37527,762,173,166,158,157,158,3675,28538,561,199,167,164,163,160,26495,61086,1066,349,230,225,220,218,201,267,33796,38008,18731,14052,410,219,186,203,25755,21622,13579,11080,330,192,3299,10901,24316,41822,31867,31419,33994,39242,3295,8067,34444,35742,34741,35846,28620,16685
439,4910,199,159,155,155,156,152,10771,37585,757,173,162,158,158,160,3680,28571,560,200,164,162,160,154,26533,61183,1067,347,234,223,224,215,202,264,33883,38159,18769,14096,407,221,184,202,25800,21692,13593,11104,323,195,3305,10929,24350,41907,31896,31471,34019,39292,3303,8093,34463,35800,34765,35916,28632,16699
439,4918,202,160,155,157,157,151,10780,37645,764,171,163,159,155,153,3686,28619,563,198,166,159,163,157,26567,61277,1075,349,232,225,221,216,200,263,33963,38308,18803,14147,410,222,185,204,25838,21750,13614,11135,325,193,3308,10955,24373,41988,31925,31535,34034,39329,3309,8119,34493,35858,34794,35990,28647,16714
440,4929,203,157,158,158,153,153,10790,37695,761,171,163,159,158,154,3691,28676,561,199,171,165,166,160,26582,61347,1069,349,227,225,220,216,201,268,34047,38457,18837,14193,410,221,187,205,25887,21809,13631,11161,326,195,3313,10982,24416,42086,31961,31595,34059,39381,3315,8144,34515,35914,34825,36067,28664,16733
439,4939,203,157,156,157,154,156,10806,37783,766,174,161,158,159,162,3697,28745,566,199,164,162,159,162,26582,61393,1079,348,230,227,219,215,193,268,34143,38622,18868,14236,411,225,183,206,25940,21887,13659,11191,325,194,3315,11012,24456,42203,31989,31652,34085,39430,3318,8168,34529,35969,34866,36151,28684,16748
440,4945,203,158,155,156,157,156,10823,37828,761,170,162,160,157,156,3707,28767,562,203,168,167,157,158,26603,61432,1069,346,230,227,221,211,199,270,34100,38465,18848,14151,409,219,185,205,25934,21835,13646,11155,324,195,3321,11027,24458,42159,31966,31567,34055,39339,3324,8175,34535,35934,34863,36047,28684,16739
440,4922,207,156,155,155,155,153,10803,37650,765,175,165,160,157,156,3703,28660,565,199,163,166,163,157,26605,61269,1075,344,229,223,218,209,203,267,33840,38024,18766,14057,407,218,185,205,25787,21644,13599,11091,324,192,3310,10938,24394,41951,31913,31468,34025,39267,3306,8082,34459,35788,34809,35924,28671,16721
439,4915,202,158,158,155,157,151,10802,37611,758,171,166,159,158,159,3698,28628,561,200,165,157,157,159,26576,61199,1062,348,231,225,216,216,200,266,33813,37978,18745,14034,406,220,184,204,25753,21601,13583,11069,322,194,3309,10912,24384,41917,31893,31440,34016,39243,3303,8059,34447,35754,34798,35899,28663,16711
440,4908,206,157,155,152,153,155,10799,37580,764,168,159,163,157,157,3695,28589,563,199,167,163,160,159,26558,61145,1070,346,229,223,215,216,200,265,33775,37933,18726,14027,403,223,189,203,25731,21580,13573,11068,323,194,3307,10895,24369,41883,31877,31425,34002,39247,3299,8046,34425,35729,34794,35893,28660,16713
444,4914,204,157,157,155,154,156,10811,37617,757,169,163,159,157,157,3699,28602,563,197,174,153,156,159,26546,61131,1062,347,230,224,219,221,203,267,33813,37979,18733,14035,406,221,186,203,25741,21611,13573,11071,325,194,3313,10901,24388,41901,31862,31427,34006,39245,3306,8061,34432,35762,34791,35907,28661,16713
441,4914,206,157,154,155,153,156,10815,37607,766,168,166,159,161,155,3701,28588,564,199,166,164,160,159,26579,61170,1071,346,230,219,222,218,206,265,33799,37980,18731,14036,408,222,185,205,25728,21610,13576,11077,323,197,3309,10905,24387,41907,31854,31430,34009,39246,3311,8064,34439,35765,34775,35917,28663,16714
442,4918,204,156,155,154,155,153,10814,37603,756,171,162,159,155,157,3699,28596,559,200,168,161,163,158,26585,61235,1069,345,230,221,221,218,203,267,33852,38088,18753,14074,409,221,188,204,25740,21644,13579,11097,324,195,3315,10919,24409,41967,31854,31451,34018,39283,3312,8077,34473,35827,34823,36005,28673,16723
441,4925,203,156,155,156,154,152,10795,37569,763,170,157,159,157,157,3701,28629,566,198,167,159,158,160,26577,61231,1073,345,225,226,221,217,197,266,33930,38228,18773,14114,410,222,185,202,25777,21709,13590,11123,325,195,3318,10943,24441,42052,31857,31490,34039,39323,3315,8100,34481,35862,34847,36073,28681,16737
441,4935,206,156,159,155,154,153,10811,37643,759,171,165,159,156,154,3705,28663,558,201,168,161,160,161,26576,61243,1066,344,225,225,220,217,201,268,34011,38370,18800,14153,410,220,185,205,25829,21781,13615,11157,326,197,3322,10970,24470,42140,31879,31538,34058,39368,3320,8125,34499,35913,34869,36140,28692,16750
442,4942,204,158,154,154,151,154,10839,37775,768,172,161,163,157,158,3716,28761,568,199,166,162,158,159,26491,61107,1071,343,229,226,220,217,202,267,34079,38503,18839,14201,413,221,184,208,25858,21836,13647,11189,326,194,3325,10993,24495,42225,31928,31608,34081,39413,3325,8149,34515,35972,34878,36183,28711,16768
443,4952,205,160,155,155,153,153,10858,37855,762,175,164,159,157,160,3723,28821,563,202,166,161,157,160,26537,61247,1062,340,232,226,222,216,202,266,34164,38645,18877,14247,412,221,186,205,25905,21896,13673,11223,327,195,3330,11020,24527,42316,31970,31684,34101,39465,3331,8177,34588,36065,34885,36245,28723,16785
444,4962,207,157,157,155,156,153,10879,37959,771,170,162,156,157,156,3730,28872,569,199,166,162,165,159,26566,61331,1073,347,232,226,218,220,202,268,34239,38794,18903,14278,414,221,187,204,25951,21959,13693,11253,328,194,3330,11047,24552,42396,32005,31743,34119,39486,3335,8202,34610,36122,34911,36305,28743,16803
443,4953,202,163,154,153,153,151,10880,37869,763,168,162,159,160,160,3731,28818,563,198,166,162,162,163,26632,61375,1061,347,230,225,218,215,203,268,34026,38340,18837,14141,408,220,187,206,25838,21779,13665,11169,325,194,3333,11018,24503,42206,31943,31589,34072,39360,3336,8164,34604,36021,34855,36095,28732,16775
442,4933,205,157,155,155,155,157,10856,37728,769,171,162,157,158,155,3726,28739,566,200,171,164,159,163,26615,61262,1069,349,232,224,220,215,200,265,33849,38082,18791,14090,410,223,188,204,25727,21640,13625,11127,323,194,3322,10945,24453,42066,31919,31539,34051,39319,3316,8091,34541,35913,34828,36033,28713,16765
442,4927,203,157,155,157,153,153,10848,37663,758,170,157,159,156,153,3726,28704,561,199,165,166,157,155,26612,61213,1065,346,231,223,220,215,201,262,33803,37970,18757,14050,409,220,185,203,25683,21587,13605,11100,325,197,3320,10918,24437,41987,31891,31493,34031,39279,3313,8069,34503,35855,34811,35981,28710,16757
444,4921,204,156,155,156,156,153,10843,37622,765,170,161,159,157,155,3719,28647,564,199,163,151,160,158,26620,61186,1075,346,231,226,221,217,201,261,33770,37950,18739,14053,409,220,186,203,25653,21577,13590,11099,325,194,3319,10900,24420,41965,31871,31492,34035,39283,3314,8057,34483,35835,34797,35983,28702,16752
443,4923,203,155,156,155,154,153,10857,37666,759,169,162,159,155,156,3722,28661,563,199,167,163,162,159,26591,61166,1066,348,228,225,221,216,199,266,33779,37956,18726,14043,407,219,184,207,25656,21592,13591,11103,324,193,3319,10905,24435,41975,31841,31471,34031,39281,3315,8059,34479,35837,34786,35989,28700,16751
443,4923,204,159,156,154,157,158,10863,37681,764,167,159,156,157,155,3718,28650,565,199,170,163,164,163,26580,61127,1074,348,230,225,221,217,199,266,33773,37972,18729,14055,411,220,183,204,25652,21603,13593,11113,325,197,3322,10906,24428,41973,31837,31483,34037,39299,3315,8062,34470,35829,34778,36012,28697,16752
446,4927,203,159,155,154,153,154,10875,37735,759,174,162,156,157,155,3728,28703,560,199,166,161,159,163,26561,61123,1064,346,231,225,220,211,204,267,33828,38075,18750,14089,410,217,186,205,25672,21648,13605,11137,325,193,3326,10922,24451,42037,31855,31526,34047,39329,3319,8079,34465,35865,34787,36061,28701,16760
442,4937,207,155,155,157,154,151,10884,37789,769,174,161,159,155,158,3731,28737,566,201,166,160,161,155,26602,61226,1074,345,230,225,219,212,203,266,33891,38203,18782,14129,410,219,185,206,25708,21709,13626,11166,328,194,3326,10943,24473,42102,31869,31573,34064,39375,3324,8100,34500,35933,34799,36114,28709,16773
444,4942,203,159,156,155,154,155,10897,37844,761,174,163,160,156,156,3735,28778,562,199,168,163,172,163,26622,61302,1064,348,231,224,215,218,203,267,33972,38340,18807,14175,408,221,185,205,25744,21772,13645,11195,327,194,3331,10969,24495,42179,31894,31621,34082,39407,3330,8126,34517,35978,34816,36175,28721,16787
445,4954,203,159,155,155,154,154,10910,37911,769,172,162,158,160,159,3740,28819,567,200,167,160,159,160,26660,61391,1075,345,229,226,218,217,203,267,34029,38452,18842,14213,408,222,185,205,25777,21828,13666,11225,325,193,3333,10992,24517,42243,31922,31681,34103,39449,3334,8147,34544,36031,34834,36235,28738,16799
444,4961,205,158,154,155,156,154,10924,37975,763,172,161,156,161,160,3741,28853,564,200,154,159,156,159,26686,61482,1067,351,231,222,220,219,203,267,34101,38593,18869,14257,414,223,186,206,25825,21891,13689,11257,326,195,3337,11015,24547,42338,31958,31742,34125,39501,3335,8171,34573,36084,34861,36307,28748,16818
447,4970,207,158,155,153,155,153,10937,38053,774,172,165,163,158,158,3748,28898,570,200,167,162,160,156,26739,61613,1078,350,231,216,221,220,201,268,34187,38752,18898,14292,417,222,191,207,25878,21967,13712,11286,328,193,3339,11045,24576,42427,31993,31811,34142,39520,3340,8195,34587,36141,34899,36389,28763,16836
445,4968,204,159,156,158,157,153,10942,38009,764,175,163,162,157,155,3751,28859,564,201,172,163,161,159,26765,61623,1069,347,231,223,223,223,202,269,34015,38355,18841,14161,412,219,186,205,25797,21823,13689,11214,327,198,3342,11031,24540,42267,31934,31666,34103,39408,3337,8168,34564,36038,34857,36202,28756,16814
445,4943,205,155,155,154,153,156,10919,37863,770,174,162,158,157,156,3744,28783,569,200,169,162,158,169,26728,61429,1075,347,225,220,221,219,200,268,33800,38025,18770,14092,411,221,186,208,25675,21667,13653,11165,326,197,3333,10944,24482,42089,31902,31600,34070,39359,3321,8081,34479,35903,34823,36115,28746,16799
445,4935,203,159,156,152,156,156,10918,37809,762,173,163,156,158,156,3745,28750,562,202,171,159,161,159,26683,61304,1069,346,227,224,223,222,202,264,33743,37905,18741,14051,411,220,188,205,25629,21605,13633,11143,325,195,3330,10912,24457,41998,31879,31558,34059,39327,3315,8055,34442,35837,34809,36060,28734,16789
448,4928,207,157,156,154,154,155,10912,37750,767,171,162,156,157,156,3744,28708,566,198,165,164,162,157,26657,61217,1076,342,235,224,220,214,202,264,33687,37837,18723,14041,410,222,185,204,25591,21579,13618,11133,326,194,3324,10889,24438,41945,31857,31546,34055,39331,3314,8032,34419,35811,34792,36059,28722,16782
446,4933,203,156,153,155,156,153,10914,37773,761,169,159,160,157,155,3745,28718,561,199,163,163,160,160,26631,61182,1063,340,234,225,225,216,203,267,33692,37840,18719,14039,409,219,187,205,25596,21595,13625,11138,323,198,3330,10891,24435,41937,31834,31533,34056,39324,3317,8043,34420,35819,34783,36060,28722,16785
445,4929,205,157,158,156,154,154,10916,37768,768,168,162,159,153,160,3743,28699,569,199,167,158,161,156,26639,61169,1070,346,231,227,218,218,201,263,33673,37839,18715,14043,408,219,186,206,25584,21603,13627,11146,327,194,3326,10891,24428,41928,31825,31540,34055,39334,3318,8038,34410,35812,34770,36063,28714,16786
445,4931,205,157,155,153,151,154,10923,37798,762,171,162,155,161,153,3745,28712,561,200,165,160,161,161,26623,61167,1057,346,231,228,224,215,202,263,33718,37917,18725,14075,408,219,184,204,25603,21647,13638,11169,325,196,3327,10902,24438,41963,31834,31577,34067,39360,3321,8055,34414,35847,34783,36108,28719,16790
445,4937,205,160,153,155,155,154,10930,37837,772,169,166,159,157,158,3746,28730,566,199,167,165,163,160,26666,61262,1071,350,232,223,218,223,201,264,33776,38042,18755,14112,414,221,185,203,25635,21702,13659,11199,327,193,3328,10917,24451,42006,31846,31618,34080,39399,3326,8075,34437,35899,34793,36166,28726,16802
447,4945,203,157,155,156,154,153,10940,37889,761,173,161,162,156,159,3751,28769,562,202,167,165,163,161,26671,61295,1065,349,231,225,221,215,202,262,33855,38166,18786,14158,410,221,187,202,25670,21762,13676,11226,329,195,3335,10942,24479,42073,31871,31668,34096,39435,3333,8097,34449,35933,34822,36221,28735,16813
449,4951,205,157,155,154,152,152,10952,37941,771,172,161,155,158,156,3756,28818,568,203,169,165,158,156,26694,61371,1074,349,234,224,219,223,203,263,33909,38269,18815,14197,412,221,185,202,25710,21822,13699,11255,326,193,3334,10966,24493,42141,31896,31721,34115,39479,3335,8117,34463,35982,34849,36289,28739,16824
447,4962,204,156,155,155,152,154,10959,37995,766,170,161,158,160,156,3762,28853,566,200,166,161,163,158,26691,61416,1070,350,231,225,214,216,198,268,33985,38405,18852,14239,412,222,185,203,25752,21878,13721,11287,327,196,3338,10985,24523,42218,31934,31787,34139,39525,3337,8134,34465,36015,34881,36363,28756,16836
450,4967,204,157,155,154,156,153,10978,38079,773,168,163,160,157,161,3765,28910,570,202,169,164,161,159,26715,61522,1081,350,231,225,219,210,199,268,34066,38557,18891,14285,415,220,183,205,25799,21952,13750,11319,329,194,3341,11011,24553,42311,31964,31851,34161,39572,3340,8159,34482,36073,34925,36444,28769,16858
447,4975,203,158,157,154,154,156,10993,38117,766,168,165,156,157,156,3769,28929,568,198,168,160,157,159,26758,61621,1072,347,231,227,221,211,202,268,34033,38411,18874,14208,412,218,187,203,25797,21919,13753,11290,328,194,3343,11029,24551,42265,31947,31774,34133,39476,3343,8169,34497,36055,34916,36338,28769,16844
446,4946,204,160,154,155,156,153,10962,37913,771,171,166,162,155,160,3760,28807,568,199,166,162,162,160,26774,61459,1077,348,231,223,222,214,202,266,33729,37912,18777,14095,409,219,186,205,25631,21694,13703,11213,330,193,3333,10935,24474,42014,31889,31657,34103,39418,3326,8069,34415,35886,34862,36189,28749,16827
452,4939,205,156,155,152,155,154,10956,37852,762,171,161,157,157,158,3761,28761,561,199,165,160,159,163,26745,61375,1064,347,229,229,215,217,202,265,33669,37793,18738,14054,407,219,185,206,25586,21633,13681,11186,324,195,3329,10894,24447,41926,31861,31615,34079,39376,3321,8033,34383,35833,34852,36143,28742,16813
446,4929,204,159,156,158,154,155,10945,37777,767,171,159,159,159,157,3757,28703,564,199,169,162,159,161,26729,61295,1073,347,231,228,213,215,203,263,33591,37673,18707,14027,405,223,185,203,25535,21589,13668,11170,325,195,3324,10861,24415,41827,31831,31581,34076,39371,3316,8006,34349,35774,34829,36107,28734,16803
447,4927,203,157,155,157,155,153,10945,37788,764,171,161,162,159,155,3758,28706,564,199,166,163,160,163,26703,61253,1066,347,231,222,222,219,206,263,33608,37699,18702,14029,410,220,185,199,25546,21612,13674,11181,326,195,3326,10865,24417,41837,31819,31577,34079,39369,3318,8017,34364,35806,34823,36107,28727,16801
447,4924,205,156,155,158,155,156,10942,37750,769,171,159,159,154,156,3756,28678,569,198,169,162,161,162,26715,61227,1073,346,231,221,225,217,203,263,33580,37673,18696,14025,409,222,187,203,25537,21608,13676,11178,328,197,3323,10857,24412,41809,31799,31569,34080,39368,3319,8015,34374,35799,34791,36091,28716,16794
446,4927,203,159,153,155,157,155,10943,37762,761,168,161,158,158,157,3755,28701,563,197,164,162,160,158,26676,61159,1064,347,231,226,223,220,202,263,33618,37741,18706,14051,413,221,193,204,25543,21643,13681,11199,327,197,3326,10864,24423,41852,31801,31591,34087,39399,3324,8024,34377,35823,34807,36126,28715,16803
447,4935,204,158,155,154,155,156,10951,37808,769,169,160,159,158,155,3761,28732,566,201,165,163,162,163,26667,61175,1072,347,223,227,219,219,196,264,33679,37861,18734,14090,412,221,185,204,25571,21694,13701,11231,327,197,3328,10878,24442,41902,31807,31634,34103,39435,3327,8045,34398,35879,34814,36175,28719,16803
450,4939,204,161,154,157,154,156,10959,37840,765,173,162,162,154,160,3765,28769,563,201,165,163,162,160,26681,61243,1067,347,230,229,221,212,202,266,33749,37993,18772,14137,412,220,185,205,25609,21753,13725,11256,327,194,3330,10899,24467,41975,31839,31679,34122,39470,3330,8063,34416,35925,34823,36235,28724,16817
447,4950,204,160,156,155,154,155,10966,37891,773,171,161,163,154,157,3770,28821,571,199,165,163,160,160,26694,61282,1074,343,232,234,226,214,203,269,33817,38114,18802,14176,413,224,186,205,25641,21810,13746,11288,328,195,3331,10926,24494,42054,31861,31730,34135,39507,3333,8085,34439,35973,34848,36285,28727,16829
447,4953,203,156,157,158,153,156,10975,37952,766,170,165,163,160,157,3777,28863,566,198,169,166,164,157,26704,61335,1069,342,233,228,222,218,202,264,33881,38233,18839,14223,413,221,187,204,25679,21865,13769,11320,328,196,3335,10944,24519,42122,31895,31789,34157,39550,3336,8104,34455,36015,34864,36345,28739,16845
447,4965,204,157,156,158,151,154,10986,38020,772,170,159,160,157,159,3782,28917,570,199,170,163,159,160,26731,61419,1073,348,232,229,219,218,201,267,33961,38389,18871,14270,414,222,186,209,25720,21931,13799,11357,328,194,3338,10967,24548,42219,31933,31863,34183,39600,3337,8127,34467,36069,34908,36419,28753,16855
447,4971,203,157,154,154,154,147,11004,38111,771,170,159,159,156,156,3789,28969,565,200,165,162,161,157,26750,61499,1061,351,233,225,221,218,201,268,34051,38553,18905,14309,414,222,185,207,25780,22009,13830,11391,330,196,3339,10992,24581,42314,31978,31925,34201,39626,3341,8148,34503,36139,34947,36500,28771,16871
449,4967,204,156,157,154,152,152,11007,38047,773,171,161,159,158,157,3789,28933,569,199,166,165,159,159,26807,61531,1077,349,233,223,224,219,202,265,33865,38139,18852,14172,413,222,189,205,25691,21850,13808,11311,327,194,3340,10977,24545,42151,31914,31767,34158,39507,3340,8119,34501,36051,34901,36300,28759,16845
449,4945,203,157,155,156,155,157,10979,37889,763,171,161,161,156,156,3784,28839,565,199,165,162,164,159,26782,61371,1068,349,233,224,220,223,203,262,33682,37847,18791,14114,410,222,186,202,25574,21701,13775,11270,329,193,3328,10892,24488,41982,31879,31715,34142,39481,3325,8046,34458,35959,34862,36210,28748,16827
450,4939,203,157,152,156,154,156,10975,37849,770,170,161,162,159,155,3783,28810,572,199,166,163,159,163,26735,61233,1075,349,229,226,222,218,202,263,33628,37753,18765,14079,410,221,185,203,25531,21655,13759,11249,326,196,3323,10865,24471,41908,31862,31676,34122,39443,3321,8017,34434,35910,34842,36159,28727,16813
449,4929,205,157,158,155,160,154,10968,37809,763,170,165,159,161,158,3777,28782,562,199,169,161,160,164,26685,61127,1066,348,231,221,219,217,202,264,33610,37735,18755,14082,411,220,186,203,25512,21641,13756,11253,326,195,3324,10847,24463,41891,31853,31679,34127,39455,3319,8002,34410,35886,34830,36161,28716,16808
449,4935,207,155,155,155,157,154,10977,37830,769,171,161,159,157,159,3783,28795,567,202,165,159,162,158,26647,61069,1073,349,235,224,220,212,203,265,33609,37744,18758,14081,411,219,184,204,25510,21653,13764,11257,328,193,3323,10853,24467,41893,31838,31665,34121,39447,3322,8010,34418,35896,34817,36155,28710,16802
447,4931,206,159,158,154,163,154,10973,37815,764,173,165,157,153,159,3782,28774,563,202,169,160,163,159,26647,61036,1063,347,231,227,214,211,202,266,33619,37761,18767,14099,411,221,185,207,25502,21656,13774,11271,327,193,3325,10846,24459,41886,31839,31683,34129,39458,3320,8008,34411,35892,34810,36164,28702,16803
449,4933,205,157,155,157,153,157,10980,37847,769,173,164,159,159,155,3783,28781,569,201,166,162,159,161,26649,61049,1073,348,234,225,220,219,203,265,33664,37869,18789,14131,407,220,184,203,25522,21702,13788,11294,326,196,3323,10859,24474,41931,31847,31722,34133,39483,3323,8023,34410,35927,34815,36207,28701,16803
448,4939,204,157,152,144,155,154,10983,37884,763,170,161,158,159,153,3783,28809,565,200,167,161,160,165,26648,61066,1059,347,232,227,216,218,203,265,33739,37991,18812,14168,410,226,188,205,25558,21758,13807,11326,326,194,3328,10882,24494,42001,31871,31773,34149,39519,3329,8045,34417,35958,34825,36257,28699,16812
449,4945,204,157,154,157,159,153,10992,37946,769,175,165,159,161,157,3785,28839,569,201,167,161,160,158,26633,61070,1071,347,230,229,216,224,203,265,33808,38125,18848,14212,412,222,189,204,25591,21818,13828,11351,328,194,3329,10901,24520,42066,31897,31825,34166,39548,3330,8061,34398,35970,34854,36320,28703,16818
448,4953,199,160,154,151,153,155,11005,38003,767,174,166,159,161,155,3790,28858,565,199,170,162,163,158,26638,61123,1066,348,231,220,220,219,202,265,33875,38247,18883,14247,410,221,186,205,25633,21875,13850,11385,329,197,3332,10923,24543,42137,31923,31877,34174,39586,3335,8081,34412,36003,34887,36399,28708,16827
449,4961,202,159,157,153,153,149,11011,38063,771,171,161,162,161,158,3789,28886,569,200,165,161,160,160,26672,61215,1074,349,231,219,223,220,203,265,33954,38385,18916,14301,415,222,186,204,25679,21938,13876,11419,329,194,3334,10943,24567,42215,31961,31942,34194,39629,3338,8098,34389,36015,34921,36469,28717,16840
448,4969,204,155,154,155,155,155,11018,38108,767,169,164,158,159,157,3787,28889,567,199,166,161,164,161,26731,61361,1066,350,229,227,223,219,203,268,34043,38542,18946,14341,413,219,187,206,25743,22019,13900,11455,331,195,3336,10972,24603,42308,31998,32004,34209,39650,3339,8119,34406,36065,34959,36546,28725,16850
452,4966,206,160,155,152,154,156,11018,38059,773,171,162,161,160,156,3792,28870,569,200,164,163,161,162,26761,61356,1072,351,224,226,223,217,205,267,33879,38188,18897,14217,414,223,185,205,25670,21883,13879,11385,329,197,3337,10959,24569,42172,31941,31863,34174,39548,3342,8091,34382,35972,34926,36377,28708,16828
450,4946,205,157,153,154,156,154,11000,37939,766,171,163,159,158,159,3785,28797,563,199,165,162,161,160,26728,61191,1064,346,232,228,221,215,205,266,33723,37955,18843,14167,417,220,187,204,25579,21767,13848,11354,329,195,3330,10885,24527,42040,31913,31819,34161,39529,3324,8014,34319,35870,34911,36323,28701,16816
449,4941,204,156,154,155,156,151,11001,37917,770,170,162,158,155,157,3786,28771,567,197,163,167,161,157,26682,61097,1070,344,233,227,222,217,202,264,33698,37895,18829,14144,411,221,185,203,25556,21737,13850,11341,331,194,3323,10867,24512,41993,31903,31800,34145,39508,3321,8001,34293,35830,34914,36299,28685,16808
449,4939,206,157,156,153,153,153,10994,37891,765,170,158,156,160,160,3781,28737,562,199,165,159,163,160,26690,61094,1064,344,232,229,219,216,203,267,33699,37919,18827,14159,410,221,187,205,25552,21747,13851,11353,327,195,3326,10857,24511,41999,31900,31814,34148,39525,3323,7999,34303,35843,34919,36322,28679,16805
447,4942,204,159,158,153,153,153,10997,37895,769,172,162,164,157,160,3779,28714,564,199,167,162,157,159,26701,61110,1067,350,233,227,220,216,201,267,33710,37939,18838,14159,414,222,189,204,25555,21764,13855,11356,328,193,3325,10871,24517,42000,31891,31801,34153,39529,3319,8004,34294,35839,34919,36331,28675,16799
449,4939,201,159,157,154,154,154,10999,37904,762,175,165,158,157,156,3779,28723,564,199,169,163,158,163,26671,61027,1054,349,232,226,219,216,202,264,33722,37977,18840,14177,413,221,186,203,25562,21783,13861,11373,328,194,3327,10866,24526,42023,31894,31822,34157,39541,3324,8006,34281,35835,34931,36359,28669,16799
450,4944,205,158,156,154,152,153,11010,37953,772,172,162,157,155,157,3782,28743,569,199,167,165,160,158,26665,61051,1070,350,235,222,221,215,206,262,33787,38106,18866,14217,413,222,186,204,25592,21833,13882,11409,330,193,3328,10883,24543,42087,31911,31870,34173,39570,3329,8024,34292,35879,34952,36421,28667,16805
449,4952,200,156,154,157,155,153,11017,38003,766,169,159,163,154,156,3783,28779,563,199,164,165,163,156,26667,61090,1064,348,232,226,219,217,202,263,33871,38243,18899,14265,414,221,187,202,25635,21896,13907,11441,333,197,3332,10910,24571,42161,31937,31919,34191,39607,3332,8051,34320,35932,34984,36492,28678,16812
452,4960,203,157,158,157,151,153,11029,38065,774,172,165,159,158,153,3790,28825,570,203,165,162,159,160,26681,61168,1073,349,227,228,220,219,205,265,33939,38382,18942,14306,415,221,185,204,25673,21962,13932,11479,330,194,3334,10932,24593,42239,31967,31977,34198,39645,3339,8078,34346,35992,35015,36563,28685,16823
448,4966,204,161,155,155,157,156,11035,38114,767,174,162,163,157,157,3793,28859,565,200,167,164,161,159,26693,61229,1066,351,229,226,223,218,199,266,34011,38507,18977,14356,415,225,185,205,25713,22022,13963,11511,329,195,3338,10955,24613,42315,32005,32039,34225,39686,3340,8095,34359,36037,35054,36642,28695,16836
450,4978,205,157,154,154,154,156,11046,38189,777,171,159,157,161,157,3798,28927,571,199,170,165,161,163,26713,61303,1075,348,230,225,221,213,197,268,34089,38661,19016,14404,417,220,185,205,25760,22086,13995,11549,330,195,3340,10982,24657,42419,32049,32103,34246,39726,3346,8115,34378,36086,35094,36726,28711,16849
453,4986,205,151,156,159,147,154,11063,38281,771,172,163,163,154,157,3801,28966,565,204,165,166,163,158,26743,61373,1068,348,232,226,221,210,207,267,34183,38816,19042,14436,419,217,187,205,25813,22156,14021,11583,335,197,3346,11012,24685,42502,32081,32157,34245,39734,3348,8143,34395,36139,35141,36790,28722,16862
451,4978,207,160,158,154,155,152,11058,38182,775,170,163,162,160,156,3799,28906,570,200,164,162,161,156,26793,61396,1079,351,231,225,219,216,205,267,33947,38348,18972,14288,410,221,185,206,25711,21976,13991,11503,331,194,3342,10983,24631,42311,32012,31994,34207,39631,3343,8100,34372,36020,35083,36585,28706,16835
449,4961,205,158,155,154,147,155,11037,38054,767,172,161,158,158,158,3796,28813,559,203,166,160,164,165,26769,61269,1065,346,230,228,214,218,201,268,33799,38124,18922,14239,412,220,189,204,25622,21860,13962,11466,328,194,3335,10909,24579,42177,31991,31945,34189,39605,3330,8028,34312,35923,35068,36521,28691,16815
452,4955,207,156,154,157,153,154,11027,37994,773,170,166,158,158,157,3792,28783,568,204,166,163,157,159,26747,61168,1071,347,230,226,219,217,203,266,33757,38031,18898,14204,413,225,181,207,25586,21817,13946,11445,327,195,3328,10892,24564,42107,31965,31902,34177,39575,3324,8009,34276,35869,35051,36475,28669,16797
449,4947,204,155,156,157,155,156,11025,37974,765,170,163,164,158,157,3791,28761,561,198,167,165,160,160,26717,61090,1063,347,231,218,223,221,205,263,33742,38037,18897,14212,414,222,185,205,25569,21814,13943,11456,328,194,3333,10877,24563,42103,31954,31903,34180,39579,3323,7997,34256,35850,35055,36493,28662,16792
449,4952,205,157,154,155,154,155,11031,38001,772,170,163,160,161,155,3794,28791,569,193,165,165,160,162,26697,61073,1070,347,231,220,222,218,203,264,33743,38038,18894,14207,419,222,186,204,25569,21827,13951,11462,331,195,3330,10885,24570,42106,31935,31883,34174,39575,3327,8011,34265,35853,35047,36486,28651,16781
450,4951,200,156,156,161,153,154,11035,37996,767,178,162,158,162,159,3794,28795,566,200,165,160,161,163,26683,61036,1062,348,225,229,222,218,202,263,33750,38065,18898,14225,414,217,185,205,25569,21834,13955,11478,329,195,3331,10886,24575,42108,31932,31888,34177,39587,3327,8010,34261,35858,35050,36502,28641,16776
449,4958,205,155,156,158,159,155,11039,38035,772,167,157,159,157,151,3797,28815,568,199,169,161,164,162,26696,61092,1073,346,224,227,223,219,201,266,33805,38175,18918,14262,417,222,189,205,25594,21886,13975,11508,331,195,3332,10899,24586,42165,31941,31920,34187,39609,3330,8027,34270,35895,35055,36549,28636,16779
452,4965,204,157,159,152,154,155,11048,38077,767,169,162,163,158,157,3798,28842,570,199,166,165,160,161,26726,61181,1063,345,231,227,221,216,203,267,33868,38296,18951,14303,415,219,186,207,25637,21946,13999,11539,331,194,3337,10922,24601,42220,31957,31966,34197,39646,3335,8051,34293,35941,35069,36606,28634,16787
451,4971,206,151,157,156,153,152,11055,38131,778,174,162,159,162,155,3806,28895,569,202,165,163,161,160,26742,61254,1072,342,230,229,222,220,205,266,33935,38427,18985,14342,417,222,185,205,25671,22003,14020,11575,333,197,3338,10944,24624,42297,31981,32015,34213,39676,3341,8072,34299,35983,35091,36664,28641,16795
451,4979,204,159,156,155,153,154,11064,38186,769,172,163,159,171,153,3807,28935,569,199,167,162,161,162,26778,61339,1065,349,232,225,217,218,203,267,33998,38549,19014,14382,412,221,186,205,25712,22064,14042,11605,332,196,3343,10969,24648,42361,32011,32061,34220,39713,3341,8091,34311,36023,35119,36739,28650,16804
450,4987,203,161,158,154,152,152,11075,38253,777,171,159,157,157,157,3814,28999,570,200,166,162,159,160,26801,61422,1071,352,233,226,221,218,201,269,34069,38696,19053,14434,419,221,184,209,25756,22127,14069,11643,331,195,3343,10997,24675,42450,32048,32125,34244,39758,3344,8112,34320,36067,35150,36815,28658,16815
452,4999,207,157,157,155,152,154,11091,38345,773,169,166,159,169,157,3822,29049,567,200,169,163,160,164,26812,61471,1061,351,232,226,219,217,204,268,34146,38815,19077,14454,419,222,186,204,25814,22197,14097,11671,337,196,3346,11019,24699,42521,32073,32161,34246,39747,3347,8134,34332,36109,35184,36860,28667,16820
450,4985,207,156,155,158,156,154,11082,38222,777,171,160,159,157,155,3815,28976,571,197,167,162,164,161,26861,61469,1075,349,233,225,220,220,201,264,33886,38301,18990,14295,417,221,188,205,25693,21991,14057,11576,333,194,3343,10979,24634,42294,31991,31980,34199,39634,3339,8078,34287,35957,35119,36637,28643,16791
452,4968,203,155,158,154,153,154,11063,38107,768,175,163,157,156,154,3817,28923,568,200,168,162,158,162,26823,61317,1066,348,233,224,221,216,202,262,33743,38072,18935,14237,413,222,185,207,25607,21876,14017,11535,336,195,3336,10906,24591,42151,31955,31907,34170,39589,3325,8009,34212,35844,35095,36563,28617,16767
451,4961,205,158,155,155,157,153,11055,38041,772,173,162,160,155,157,3813,28881,569,196,166,162,162,159,26781,61200,1076,351,229,226,221,218,205,267,33665,37923,18891,14188,414,222,185,203,25556,21814,13997,11506,330,194,3328,10881,24561,42047,31909,31831,34147,39541,3320,7979,34158,35751,35055,36482,28592,16747
451,4953,206,155,154,157,154,153,11049,38013,767,171,168,164,154,152,3808,28837,564,199,164,166,162,162,26746,61111,1064,349,232,225,219,217,197,265,33626,37890,18871,14183,412,221,185,205,25543,21807,13993,11510,329,197,3329,10859,24539,42009,31881,31806,34141,39535,3317,7963,34135,35731,35030,36471,28579,16732
454,4956,204,157,153,154,153,154,11058,38030,773,170,166,157,156,161,3810,28837,568,199,166,161,159,160,26727,61063,1073,345,230,225,221,211,201,266,33621,37879,18860,14169,414,221,185,207,25542,21815,13986,11511,331,194,3328,10864,24529,41986,31846,31770,34123,39515,3316,7971,34112,35706,35015,36455,28556,16719
450,4955,204,160,155,155,155,151,11055,38028,765,174,161,160,155,161,3803,28810,565,200,166,162,163,160,26651,60911,1061,347,231,225,220,209,203,265,33611,37889,18854,14179,414,218,185,204,25543,21826,13985,11523,332,195,3329,10858,24518,41959,31821,31758,34117,39514,3318,7968,34071,35674,35005,36466,28549,16715
448,4956,206,157,155,156,155,153,11059,38077,775,171,161,160,176,153,3806,28825,568,207,163,161,160,158,26626,60895,1068,348,230,229,219,218,203,263,33649,37988,18873,14208,413,223,186,204,25567,21876,14005,11546,331,195,3328,10871,24528,41996,31821,31781,34124,39537,3322,7982,34073,35702,35014,36511,28543,16719
452,4965,203,158,155,154,154,154,11077,38131,767,172,159,158,155,157,3811,28867,565,200,167,162,159,163,26659,61010,1058,351,231,225,213,218,202,267,33721,38099,18893,14243,412,221,188,206,25602,21927,14017,11576,331,195,3332,10891,24552,42057,31831,31817,34124,39559,3326,8009,34107,35747,35019,36554,28550,16721
451,4971,204,156,159,154,153,156,11079,38180,775,174,161,159,159,156,3812,28915,570,203,166,159,158,163,26729,61175,1073,350,232,224,220,220,202,268,33775,38218,18924,14282,415,222,189,205,25631,21981,14035,11605,332,198,3333,10911,24557,42101,31854,31852,34135,39591,3329,8031,34108,35791,35035,36611,28553,16733
455,4977,204,155,155,158,153,153,11090,38223,773,168,162,163,158,155,3819,28967,564,200,166,165,163,160,26792,61339,1068,349,234,220,223,218,204,266,33837,38327,18951,14315,415,221,186,204,25678,22037,14062,11637,331,199,3336,10931,24579,42161,31866,31893,34148,39625,3332,8049,34135,35840,35059,36666,28561,16743
452,4987,207,158,155,158,153,152,11095,38277,778,171,159,163,159,157,3824,29011,574,200,167,162,161,159,26859,61499,1075,351,233,224,222,219,206,263,33894,38454,18983,14363,416,223,185,205,25718,22096,14082,11669,332,194,3339,10950,24597,42231,31896,31946,34163,39663,3338,8066,34153,35887,35091,36737,28575,16753
453,4995,207,158,157,155,154,157,11107,38345,772,171,161,159,159,162,3829,29064,567,199,167,163,163,161,26895,61626,1071,352,225,227,223,219,202,270,33990,38605,19017,14416,418,222,187,206,25769,22174,14107,11713,334,195,3342,10977,24629,42329,31940,32013,34185,39712,3339,8089,34170,35938,35128,36826,28585,16773
452,5005,204,157,155,157,154,154,11121,38420,779,173,163,157,161,159,3834,29116,572,200,168,162,160,159,26921,61703,1082,352,225,230,223,219,201,268,34040,38664,19028,14399,419,221,189,207,25811,22215,14128,11716,333,195,3342,11004,24644,42372,31948,32003,34168,39653,3341,8117,34196,35986,35152,36813,28606,16773
452,4983,204,160,153,154,157,153,11095,38226,769,173,159,159,160,160,3830,29009,566,203,164,163,160,158,26972,61654,1075,345,236,227,227,215,202,264,33711,38059,18916,14234,416,221,192,200,25647,21964,14071,11617,331,197,3339,10929,24563,42091,31861,31823,34123,39555,3331,8031,34155,35814,35069,36587,28578,16738
452,4973,208,156,157,154,156,156,11085,38152,777,174,164,161,156,154,3825,28963,571,201,164,164,164,161,26930,61519,1076,341,233,225,223,219,201,264,33596,37881,18872,14184,414,220,186,204,25576,21863,14042,11576,335,193,3327,10869,24522,41966,31827,31750,34093,39497,3317,7982,34094,35723,35048,36520,28559,16719
454,4961,206,156,159,157,155,153,11073,38079,767,169,163,163,159,157,3824,28917,565,199,170,167,164,163,26899,61427,1066,348,233,228,218,218,202,263,33507,37713,18827,14135,411,219,185,208,25520,21792,14017,11550,331,194,3327,10834,24483,41843,31781,31669,34064,39447,3311,7953,34060,35655,35017,36439,28543,16700
452,4959,205,157,154,155,154,155,11068,38040,776,174,163,157,162,156,3822,28893,569,199,165,163,160,162,26879,61375,1068,350,232,227,221,217,203,264,33485,37716,18810,14133,412,220,185,205,25505,21793,14015,11555,331,196,3321,10822,24469,41821,31755,31651,34060,39438,3313,7953,34057,35647,34994,36431,28531,16694
451,4956,205,155,157,158,157,153,11071,38044,765,167,164,164,158,155,3823,28899,567,200,169,165,160,159,26867,61349,1062,350,234,223,224,217,202,264,33473,37691,18798,14125,412,221,185,207,25502,21794,14013,11557,331,197,3323,10819,24464,41796,31717,31609,34043,39422,3314,7954,34058,35640,34963,36396,28519,16683
453,4959,204,157,157,158,153,152,11071,38059,774,173,160,159,158,157,3824,28913,570,203,165,161,159,160,26844,61311,1074,349,233,226,223,216,203,261,33481,37719,18800,14135,412,225,185,206,25506,21809,14015,11568,331,197,3321,10820,24467,41801,31706,31607,34042,39421,3315,7955,34059,35655,34949,36407,28514,16682
452,4961,204,159,155,154,154,155,11080,38099,765,174,161,161,157,155,3826,28942,567,203,167,162,161,159,26860,61356,1068,350,233,226,221,218,201,259,33531,37822,18819,14170,414,221,184,203,25526,21855,14033,11595,329,197,3323,10831,24473,41834,31708,31637,34045,39446,3316,7974,34083,35701,34943,36438,28516,16687
454,4969,205,155,158,153,157,156,11083,38133,777,175,161,164,157,156,3831,28973,571,201,166,166,164,161,26886,61465,1077,349,230,227,221,218,203,268,33586,37935,18848,14213,413,222,185,204,25558,21905,14052,11626,333,195,3323,10852,24481,41877,31724,31675,34051,39471,3323,7998,34117,35766,34955,36483,28525,16694
455,4975,203,160,155,154,154,153,11087,38176,769,173,162,159,155,153,3831,29010,569,199,165,162,157,159,26907,61531,1069,353,230,226,222,217,200,267,33655,38062,18881,14253,414,221,185,206,25596,21966,14069,11658,329,194,3327,10869,24498,41945,31750,31725,34063,39507,3326,8023,34143,35805,34961,36529,28532,16702
453,4983,204,155,157,155,152,156,11100,38241,780,171,164,159,157,156,3838,29053,572,199,167,159,158,163,26911,61574,1078,345,234,224,221,212,204,268,33714,38169,18916,14294,416,218,185,209,25633,22014,14099,11689,329,197,3327,10890,24518,42004,31778,31769,34079,39538,3327,8037,34159,35850,34969,36578,28540,16716
453,4990,208,157,159,155,155,154,11110,38317,774,171,171,155,158,155,3840,29093,569,200,170,162,161,156,26917,61614,1073,351,230,226,221,213,203,266,33782,38313,18947,14341,417,221,189,205,25677,22074,14118,11723,333,200,3331,10910,24539,42079,31821,31837,34099,39578,3333,8054,34181,35895,34995,36647,28552,16732
454,4999,208,156,157,155,153,152,11126,38403,780,171,163,158,158,157,3849,29156,574,199,167,167,160,158,26942,61716,1078,350,236,227,217,219,204,268,33873,38485,18982,14392,414,227,186,205,25724,22146,14152,11765,334,195,3335,10934,24575,42186,31867,31910,34121,39621,3333,8086,34216,35963,35025,36722,28579,16751
454,5007,204,156,155,153,155,152,11140,38493,774,170,147,154,155,160,3848,29171,572,201,166,158,162,158,26956,61791,1070,351,230,229,213,219,204,268,33948,38578,18999,14395,413,223,188,206,25773,22199,14172,11775,336,193,3335,10957,24599,42238,31895,31929,34114,39589,3339,8107,34240,36021,35046,36726,28590,16755
454,4989,205,157,157,153,155,153,11124,38319,779,170,162,164,165,162,3848,29096,575,200,160,160,160,158,27015,61769,1079,350,232,222,221,219,205,267,33640,37994,18899,14235,414,222,187,209,25613,21957,14118,11673,332,193,3328,10897,24529,41985,31818,31749,34067,39474,3327,8035,34216,35869,34966,36491,28576,16729
453,4977,206,156,154,158,154,153,11110,38238,772,169,159,158,156,157,3844,29047,569,199,166,165,162,163,26978,61637,1071,350,233,219,223,219,204,265,33537,37838,18857,14191,413,220,190,204,25542,21856,14086,11633,334,196,3321,10832,24490,41871,31791,31695,34040,39431,3317,7980,34158,35771,34936,36425,28556,16709
454,4968,204,156,158,156,154,153,11100,38185,776,171,162,160,166,159,3845,29022,572,202,170,160,160,163,26919,61471,1078,350,230,223,223,218,203,262,33473,37705,18823,14151,413,225,185,204,25498,21801,14069,11609,331,195,3313,10807,24462,41776,31762,31641,34019,39387,3309,7949,34100,35690,34900,36349,28539,16692
453,4963,205,157,157,159,156,154,11094,38158,771,171,166,163,157,154,3837,29004,569,201,165,166,156,161,26866,61370,1069,350,226,227,225,218,203,263,33464,37723,18808,14160,413,221,184,206,25497,21811,14063,11613,331,196,3314,10793,24453,41765,31751,31642,34008,39374,3306,7942,34071,35663,34871,36341,28523,16687
455,4967,203,157,157,155,156,152,11102,38176,774,168,162,166,165,158,3843,29020,570,202,172,165,164,153,26807,61227,1074,348,229,231,222,216,202,266,33448,37703,18806,14154,414,220,185,204,25499,21813,14060,11610,331,194,3313,10797,24448,41740,31731,31621,33991,39351,3306,7940,34038,35617,34855,36325,28513,16679
452,4963,204,157,155,155,153,153,11103,38185,769,170,163,158,158,157,3842,29027,570,197,170,162,155,158,26766,61163,1063,344,233,228,223,216,201,263,33460,37729,18805,14169,412,220,186,204,25506,21823,14062,11622,333,195,3313,10795,24451,41743,31722,31618,33983,39358,3305,7939,34017,35596,34854,36347,28511,16680
453,4966,204,156,155,152,154,154,11110,38222,776,170,165,163,158,160,3845,29044,571,198,165,162,161,147,26782,61214,1074,340,232,227,225,217,204,267,33506,37829,18823,14202,415,219,185,205,25535,21881,14069,11643,332,194,3312,10806,24453,41779,31723,31648,33987,39375,3311,7957,34022,35625,34866,36395,28519,16684
453,4973,205,156,158,154,155,152,11115,38253,770,172,165,158,157,160,3846,29043,567,203,165,161,159,160,26804,61282,1061,349,232,231,219,215,202,268,33573,37954,18845,14241,414,222,183,205,25583,21938,14085,11671,332,194,3315,10821,24467,41823,31745,31690,33999,39395,3313,7977,34034,35663,34887,36455,28523,16693
449,4978,204,158,157,154,157,153,11118,38295,776,171,162,163,157,160,3843,29061,569,199,166,162,165,160,26833,61379,1068,359,235,227,221,218,205,264,33636,38079,18873,14282,415,221,186,205,25622,21999,14102,11696,334,195,3317,10841,24481,41875,31767,31735,34001,39422,3318,7999,34055,35710,34904,36514,28534,16706
452,4986,207,157,156,156,153,155,11119,38325,773,171,162,162,154,157,3846,29083,567,201,168,165,162,161,26850,61443,1067,351,233,222,220,219,202,267,33697,38192,18896,14316,414,224,186,207,25661,22054,14119,11725,336,194,3318,10858,24492,41933,31788,31785,34010,39459,3320,8017,34076,35759,34938,36576,28551,16719
455,4992,205,158,155,158,152,153,11134,38402,779,176,164,159,158,159,3849,29125,572,199,167,154,159,159,26859,61492,1078,354,233,227,222,217,206,263,33773,38328,18920,14361,418,223,187,204,25711,22123,14138,11756,334,194,3317,10881,24519,42012,31816,31844,34032,39492,3324,8046,34099,35806,34969,36660,28576,16739
452,5003,204,157,157,154,153,153,11149,38495,774,171,161,159,156,160,3852,29153,569,199,168,161,160,164,26907,61664,1072,359,231,225,221,212,203,263,33859,38495,18939,14395,417,221,188,203,25770,22200,14163,11788,335,196,3322,10903,24544,42097,31853,31909,34046,39527,3332,8073,34139,35873,35017,36743,28595,16755
456,4999,203,158,155,154,154,154,11151,38447,781,170,163,163,161,159,3850,29133,573,200,165,161,160,159,26965,61735,1083,353,230,223,221,218,203,265,33725,38167,18891,14280,415,220,184,206,25713,22083,14141,11723,332,195,3318,10901,24509,41959,31809,31777,34003,39401,3328,8056,34117,35789,34982,36571,28585,16735
453,4975,203,163,159,154,156,153,11120,38281,771,171,165,161,157,158,3844,29023,568,201,170,160,160,161,26965,61633,1071,351,231,229,224,213,199,264,33515,37846,18826,14213,414,220,185,206,25597,21922,14106,11671,331,194,3309,10813,24444,41770,31772,31706,33972,39357,3310,7974,34055,35663,34939,36473,28570,16716
453,4970,208,157,155,153,157,156,11111,38219,777,171,165,163,157,153,3842,28987,572,199,167,161,164,159,26951,61558,1076,348,230,226,221,210,206,265,33473,37770,18806,14187,413,221,186,208,25564,21881,14094,11648,335,195,3303,10790,24418,41699,31762,31672,33945,39306,3305,7953,34019,35599,34923,36415,28556,16703
451,4963,203,157,157,154,153,153,11100,38161,769,168,164,158,156,155,3838,28936,565,200,170,161,164,160,26924,61485,1070,350,232,227,222,215,203,265,33451,37755,18791,14196,414,220,186,206,25552,21873,14089,11655,333,194,3304,10771,24403,41654,31749,31669,33943,39303,3301,7934,33986,35568,34923,36413,28550,16700
451,4965,206,158,153,155,154,152,11103,38191,777,170,165,157,154,156,3836,28951,573,199,166,165,161,159,26893,61418,1071,351,232,225,220,217,203,264,33460,37783,18796,14195,410,224,181,203,25561,21881,14095,11661,332,195,3302,10777,24400,41647,31739,31652,33928,39284,3306,7947,33994,35580,34919,36419,28551,16697
453,4962,203,157,159,158,156,154,11103,38181,769,171,163,162,158,160,3833,28919,565,199,169,166,164,159,26904,61425,1065,350,230,228,216,219,204,265,33466,37787,18796,14213,411,223,187,203,25552,21883,14098,11665,331,196,3304,10772,24389,41623,31735,31659,33921,39295,3307,7952,34011,35588,34913,36427,28545,16695
450,4965,208,160,156,153,152,152,11105,38204,777,171,159,159,158,154,3833,28923,569,199,170,163,157,160,26890,61427,1074,353,231,221,222,222,203,263,33515,37900,18817,14246,417,221,185,203,25574,21926,14119,11691,332,196,3300,10783,24395,41665,31749,31699,33930,39308,3308,7966,34032,35631,34929,36470,28557,16704
453,4974,208,157,159,153,153,156,11113,38245,770,171,163,157,158,157,3835,28939,564,199,169,165,159,157,26913,61521,1072,349,231,221,223,222,202,268,33593,38039,18848,14296,415,221,188,205,25613,21982,14134,11721,335,193,3306,10801,24407,41719,31772,31751,33939,39345,3316,7993,34082,35701,34952,36524,28566,16711
454,4980,208,157,155,154,152,154,11120,38304,778,171,159,161,159,153,3837,28991,571,199,170,161,157,161,26924,61550,1079,352,229,232,221,223,203,266,33663,38183,18879,14344,417,222,189,204,25650,22045,14162,11751,334,195,3305,10828,24433,41794,31798,31812,33959,39379,3317,8018,34102,35739,34974,36594,28572,16724
452,4988,207,158,155,156,154,155,11131,38356,774,171,162,159,158,157,3841,29036,567,200,166,162,161,160,26937,61615,1070,350,225,228,223,223,201,270,33737,38317,18913,14395,418,224,185,206,25695,22109,14183,11785,335,197,3309,10853,24453,41863,31843,31873,33979,39418,3319,8037,34107,35775,35003,36669,28588,16737
453,4998,205,155,157,157,157,153,11135,38408,781,163,162,158,157,159,3848,29091,573,199,162,169,164,161,26937,61655,1078,351,232,228,224,215,203,267,33811,38463,18962,14449,418,221,187,205,25734,22168,14207,11822,340,195,3313,10876,24479,41946,31887,31941,34001,39466,3320,8051,34095,35798,35046,36749,28602,16753
454,5006,204,157,155,151,153,153,11146,38486,773,171,162,159,157,158,3855,29143,572,199,167,162,158,164,26960,61755,1072,343,232,227,223,217,202,268,33912,38634,18999,14505,420,223,191,206,25799,22249,14240,11863,336,196,3314,10903,24517,42041,31935,32018,34022,39517,3328,8081,34135,35873,35098,36845,28626,16773
454,5014,205,156,155,155,154,154,11162,38557,782,169,161,163,159,154,3855,29173,573,199,168,166,160,156,26992,61849,1082,345,234,228,223,221,204,268,33913,38577,18998,14452,418,221,187,206,25815,22245,14252,11837,336,196,3317,10928,24518,42038,31926,31975,33998,39428,3329,8100,34145,35871,35108,36767,28630,16765
455,4988,206,155,154,156,153,151,11135,38354,771,169,162,158,157,160,3848,29047,567,199,159,163,152,160,27011,61710,1066,352,232,228,220,220,203,263,33583,38016,18884,14318,415,222,186,203,25644,21997,14190,11745,334,195,3307,10840,24434,41769,31855,31827,33951,39332,3315,8004,34097,35702,35031,36580,28612,16743
453,4976,205,159,153,154,153,154,11123,38274,779,171,166,156,155,157,3845,28985,570,200,166,163,161,160,26969,61587,1070,354,234,227,223,218,202,263,33511,37911,18853,14282,414,221,186,205,25584,21924,14168,11712,334,199,3298,10790,24391,41661,31835,31780,33928,39287,3303,7963,34050,35622,35009,36509,28593,16723
454,4966,205,158,156,157,156,153,11110,38207,767,171,162,163,158,153,3838,28935,565,199,161,167,161,163,26946,61491,1068,354,234,223,225,214,202,263,33444,37787,18819,14257,415,221,185,204,25549,21866,14153,11689,332,196,3296,10765,24359,41559,31804,31730,33911,39252,3298,7942,34011,35545,34984,36450,28575,16703
452,4967,205,157,157,154,154,156,11109,38203,776,168,162,155,161,155,3839,28937,570,200,164,159,161,167,26933,61471,1078,351,234,226,222,217,201,261,33447,37830,18819,14272,415,220,187,207,25544,21882,14162,11703,333,195,3292,10758,24347,41559,31805,31741,33897,39242,3293,7936,33980,35526,34970,36446,28565,16698
452,4963,204,156,159,155,154,152,11110,38194,770,171,166,160,162,160,3840,28927,566,200,163,163,160,160,26995,61553,1073,350,229,226,221,219,202,263,33443,37828,18814,14272,416,225,184,203,25546,21881,14158,11701,332,194,3293,10757,24344,41535,31786,31729,33900,39235,3296,7937,33966,35504,34957,36428,28553,16688
451,4963,207,155,156,153,155,153,11113,38211,777,173,161,158,157,157,3840,28947,571,202,164,161,164,159,26960,61511,1078,350,231,226,221,217,199,264,33464,37890,18825,14297,417,224,188,206,25551,21902,14163,11719,334,196,3292,10761,24346,41557,31795,31750,33897,39249,3298,7943,33976,35533,34953,36451,28552,16690
452,4968,204,158,158,154,156,156,11122,38251,769,171,162,160,157,157,3841,28959,563,200,167,163,160,160,26966,61562,1069,350,225,226,224,217,198,266,33540,38017,18849,14337,415,219,185,206,25588,21961,14183,11747,334,194,3296,10779,24358,41603,31805,31791,33909,39270,3303,7961,34006,35579,34967,36500,28555,16704
453,4977,205,154,155,160,158,157,11124,38287,777,170,161,159,156,152,3844,28984,571,202,165,162,163,160,27019,61670,1081,348,230,229,222,212,202,266,33608,38159,18870,14382,419,218,188,204,25623,22027,14203,11775,337,194,3296,10802,24371,41671,31831,31839,33919,39311,3307,7988,34032,35629,34983,36558,28561,16707
452,4983,203,157,157,156,156,153,11129,38339,772,172,163,162,158,155,3849,29024,566,200,167,166,160,163,27032,61739,1073,347,228,223,221,218,204,266,33683,38300,18899,14428,417,220,185,206,25673,22088,14222,11808,334,194,3301,10825,24396,41748,31857,31890,33939,39346,3310,8011,34041,35663,35011,36623,28573,16722
450,4990,209,159,156,153,157,153,11136,38381,779,172,162,162,157,158,3852,29064,571,200,165,157,164,158,27067,61832,1083,352,238,226,215,219,203,268,33742,38435,18932,14474,415,224,187,206,25714,22148,14245,11839,335,195,3303,10846,24417,41817,31891,31951,33956,39383,3313,8031,34064,35714,35036,36694,28584,16733
453,5004,205,156,154,152,152,154,11144,38445,773,169,160,155,161,158,3855,29107,569,197,165,160,160,162,27092,61941,1073,355,228,231,221,218,203,272,33837,38604,18974,14533,419,223,189,209,25764,22225,14274,11880,335,195,3305,10874,24447,41916,31931,32031,33983,39445,3320,8052,34081,35754,35076,36779,28595,16748
456,5009,206,158,155,157,156,152,11156,38520,782,169,161,159,158,157,3858,29135,573,201,167,160,163,157,27115,61975,1083,350,231,221,223,217,204,268,33924,38765,18999,14564,424,225,187,209,25826,22296,14303,11911,337,198,3307,10907,24475,42001,31972,32089,33997,39453,3320,8077,34099,35809,35127,36851,28615,16762
458,5000,203,161,158,153,154,153,11147,38414,776,175,165,154,158,160,3856,29069,569,203,170,159,159,160,27162,62005,1077,351,231,224,223,220,204,267,33697,38287,18921,14411,419,223,185,207,25720,22108,14262,11812,335,197,3306,10877,24429,41819,31902,31916,33947,39326,3315,8033,34081,35693,35056,36612,28595,16733
449,4978,204,159,155,155,154,152,11120,38278,776,171,159,158,159,157,3847,28987,572,199,169,162,160,159,27118,61821,1081,351,228,227,223,219,203,266,33515,38020,18855,14353,416,225,185,205,25614,21969,14222,11761,335,196,3290,10796,24372,41662,31868,31851,33918,39278,3299,7954,34005,35555,35023,36525,28583,16717
454,4973,206,157,157,154,155,156,11113,38213,771,171,165,159,157,156,3843,28949,567,200,168,162,163,160,27078,61703,1071,349,225,228,222,220,202,265,33461,37918,18816,14314,416,223,186,201,25584,21919,14200,11733,332,195,3291,10767,24359,41583,31845,31801,33897,39233,3291,7925,33967,35497,35006,36455,28564,16699
452,4964,204,157,158,155,157,154,11104,38164,777,171,162,157,155,154,3841,28909,572,192,165,167,163,160,27073,61649,1079,344,231,227,223,220,205,267,33428,37897,18801,14317,416,219,186,204,25556,21899,14190,11731,336,195,3287,10751,24337,41556,31831,31798,33890,39225,3291,7912,33943,35466,34987,36449,28554,16693
453,4968,203,157,156,153,154,155,11104,38163,769,170,161,156,154,155,3845,28917,566,199,166,162,163,153,27059,61663,1071,344,233,228,223,216,202,271,33439,37915,18792,14315,417,222,187,205,25571,21917,14189,11732,333,199,3289,10756,24333,41546,31810,31785,33875,39210,3293,7921,33948,35469,34990,36447,28544,16685
455,4964,205,158,155,153,154,153,11099,38149,778,170,161,163,160,157,3841,28904,569,202,169,162,160,157,27086,61686,1079,346,233,230,223,218,203,264,33435,37933,18789,14329,414,221,185,205,25570,21935,14195,11737,334,194,3286,10756,24322,41547,31797,31787,33881,39219,3292,7922,33934,35463,34986,36454,28537,16679
450,4967,205,158,156,157,156,156,11103,38194,768,169,162,162,158,157,3839,28910,565,199,167,165,160,157,27106,61763,1067,352,233,226,221,219,202,264,33486,38052,18813,14372,417,222,189,205,25598,21986,14213,11770,335,196,3290,10771,24339,41608,31812,31833,33894,39250,3295,7936,33947,35493,34988,36499,28541,16689
452,4976,205,158,154,155,153,153,11114,38244,780,171,164,157,159,161,3843,28945,575,199,166,165,158,160,27143,61859,1073,353,233,230,218,218,205,265,33553,38195,18857,14427,419,223,186,204,25623,22030,14243,11809,335,195,3289,10794,24349,41671,31843,31894,33911,39291,3299,7954,33962,35540,35008,36555,28546,16697
453,4985,204,156,155,154,154,159,11122,38300,770,171,161,159,162,157,3845,28975,566,201,165,162,160,158,27124,61835,1073,352,233,225,223,217,202,266,33641,38347,18889,14473,419,220,191,208,25662,22091,14261,11838,334,197,3297,10822,24371,41746,31871,31954,33932,39328,3302,7979,33971,35581,35032,36622,28554,16709
455,4992,205,157,154,154,157,157,11129,38358,778,169,159,157,158,155,3847,29009,574,202,169,162,164,164,27157,61945,1083,351,233,226,221,219,207,264,33713,38485,18917,14517,419,222,187,203,25714,22165,14281,11868,337,199,3297,10847,24405,41835,31902,32003,33949,39371,3305,7996,33991,35627,35059,36689,28561,16723
454,4999,203,157,155,153,155,147,11138,38424,774,170,161,159,158,158,3847,29026,570,200,166,163,164,164,27235,62147,1078,353,230,227,222,218,201,267,33803,38643,18927,14548,420,222,187,206,25786,22249,14289,11891,336,197,3300,10875,24437,41941,31921,32047,33978,39427,3307,8020,34012,35679,35091,36769,28582,16736
455,5011,205,157,151,156,154,153,11157,38530,783,171,162,158,162,160,3846,29035,574,199,163,163,161,160,27315,62372,1088,353,233,226,221,218,201,268,33887,38812,18949,14597,422,223,185,207,25865,22346,14307,11921,337,195,3300,10902,24474,42057,31946,32113,34005,39489,3308,8042,34009,35712,35150,36863,28598,16760
458,5018,205,153,157,153,157,153,11177,38587,777,171,166,155,156,160,3851,29081,569,199,169,159,159,161,27407,62577,1089,346,231,230,223,210,202,267,33870,38709,18938,14527,420,221,187,206,25883,22334,14308,11895,335,194,3305,10933,24487,42052,31929,32047,33985,39403,3316,8058,34015,35699,35153,36783,28603,16745
454,4995,205,157,156,154,153,153,11150,38394,778,169,163,159,159,160,3848,28996,571,199,165,162,158,159,27454,62462,1089,351,232,226,222,211,204,268,33558,38195,18837,14411,417,216,186,208,25733,22112,14255,11811,335,193,3298,10847,24415,41831,31873,31929,33951,39331,3299,7959,33954,35543,35091,36615,28581,16730
453,4986,205,157,155,154,163,155,11142,38347,771,167,161,157,159,157,3848,28975,567,199,166,160,160,159,27411,62359,1080,350,229,227,224,221,204,270,33513,38117,18815,14388,417,222,186,210,25697,22057,14234,11788,333,194,3293,10815,24398,41785,31866,31911,33941,39306,3292,7926,33928,35492,35081,36573,28567,16712
454,4980,205,158,158,153,156,153,11137,38309,777,174,161,162,157,157,3845,28950,569,200,165,163,163,159,27387,62260,1086,350,228,223,215,219,203,265,33449,38041,18796,14373,410,223,185,206,25660,22018,14229,11774,334,194,3288,10797,24384,41736,31854,31887,33935,39302,3293,7911,33929,35470,35059,36535,28559,16712
451,4981,203,155,156,158,157,153,11142,38338,772,168,164,161,158,155,3849,28971,568,198,167,163,159,162,27314,62139,1075,351,235,227,226,218,204,270,33484,38116,18803,14391,417,223,185,205,25680,22049,14235,11789,336,195,3291,10803,24399,41781,31863,31913,33935,39304,3292,7918,33937,35497,35053,36546,28555,16704
454,4981,205,157,155,155,157,155,11147,38339,778,175,164,157,157,154,3850,28974,570,200,166,165,163,161,27297,62095,1085,351,232,219,222,219,203,265,33479,38125,18819,14408,423,221,185,206,25677,22053,14239,11793,335,196,3291,10809,24401,41797,31865,31930,33945,39316,3294,7920,33939,35495,35041,36555,28549,16708
455,4984,204,154,155,153,156,153,11157,38391,773,171,161,159,158,160,3846,28957,566,200,166,161,160,161,27255,62021,1075,351,241,215,220,220,204,267,33517,38187,18847,14448,422,223,187,206,25695,22089,14247,11815,335,194,3295,10823,24423,41872,31911,31994,33961,39346,3293,7926,33916,35491,35045,36581,28550,16708
453,4990,204,156,155,154,153,157,11174,38484,779,169,163,163,155,155,3843,28943,569,200,167,161,161,163,27227,62030,1084,353,235,228,226,226,202,266,33581,38324,18866,14494,418,225,186,204,25736,22153,14265,11848,336,197,3298,10858,24431,41923,31918,32035,33971,39376,3300,7948,33941,35555,35062,36639,28558,16721
454,4999,203,158,156,155,152,156,11192,38575,775,176,161,157,160,157,3843,28989,567,200,164,160,160,159,27252,62109,1075,353,225,230,223,221,203,267,33665,38486,18887,14530,422,229,189,205,25790,22222,14291,11885,335,196,3303,10888,24455,42013,31944,32085,33991,39423,3307,7980,33978,35619,35079,36710,28569,16737
455,5010,205,156,158,154,154,154,11206,38663,779,175,163,157,160,158,3853,29077,574,200,164,165,159,158,27241,62133,1085,349,233,226,222,214,204,268,33740,38635,18926,14575,421,225,187,205,25837,22286,14315,11919,338,196,3304,10915,24492,42101,31971,32139,34015,39467,3313,8001,34008,35682,35115,36791,28583,16751
455,5017,204,157,155,154,152,155,11220,38719,779,171,160,162,160,157,3861,29142,569,199,165,164,162,159,27275,62257,1077,346,237,228,222,217,203,269,33818,38782,18961,14625,419,224,186,207,25886,22354,14337,11950,337,195,3309,10943,24523,42210,32002,32210,34040,39525,3316,8025,34046,35753,35151,36869,28601,16770
458,5028,205,158,154,154,155,156,11234,38811,785,174,165,155,155,156,3873,29225,575,199,166,166,161,163,27291,62349,1088,351,233,228,222,213,203,271,33901,38946,19005,14675,421,223,187,206,25943,22434,14367,11993,337,195,3310,10973,24567,42335,32051,32286,34067,39574,3320,8051,34074,35823,35199,36955,28620,16789
454,5038,206,155,154,157,156,157,11256,38915,780,170,167,162,158,157,3876,29274,571,200,171,166,160,159,27309,62436,1073,355,234,228,222,221,204,270,33973,39029,19039,14687,422,223,187,209,25991,22477,14390,12003,338,197,3314,11002,24594,42422,32093,32312,34070,39546,3330,8079,34101,35865,35220,36967,28631,16796
454,5020,204,159,155,154,152,152,11241,38764,788,171,159,163,157,160,3871,29193,574,201,167,162,164,160,27321,62310,1081,355,233,227,222,218,203,266,33661,38472,18945,14544,421,221,187,205,25849,22260,14341,11908,339,195,3311,10955,24539,42207,32021,32166,34030,39460,3319,8003,34065,35725,35143,36754,28619,16777
455,5008,204,156,159,154,154,153,11238,38740,778,168,165,160,157,152,3866,29134,570,200,167,163,159,162,27265,62179,1076,356,233,224,222,217,206,264,33593,38364,18910,14514,419,222,186,204,25803,22192,14317,11879,337,195,3306,10911,24504,42136,32013,32147,34016,39437,3307,7964,34035,35679,35121,36710,28611,16769
455,5002,205,156,154,157,152,154,11245,38735,785,169,165,159,159,161,3863,29122,573,200,166,161,160,160,27260,62149,1087,354,235,227,221,218,209,263,33570,38318,18901,14504,418,221,186,203,25780,22161,14303,11869,335,196,3301,10898,24496,42110,32007,32132,34014,39432,3309,7951,34046,35678,35109,36685,28607,16766
454,5005,205,156,155,153,153,151,11244,38759,779,172,158,156,157,156,3869,29155,569,201,163,159,158,158,27223,62111,1076,354,231,225,222,217,196,266,33593,38391,18903,14519,419,223,186,210,25795,22192,14307,11882,337,196,3304,10906,24520,42171,32015,32157,34023,39448,3311,7959,34072,35720,35111,36711,28614,16772
455,5010,206,155,160,158,153,153,11255,38770,787,171,162,159,157,157,3871,29175,577,201,165,163,158,157,27231,62131,1085,356,233,227,222,219,199,266,33599,38407,18899,14522,420,222,185,206,25799,22197,14306,11887,337,196,3303,10915,24537,42199,32002,32157,34026,39456,3313,7968,34097,35743,35114,36728,28617,16769
456,5011,206,157,154,156,153,152,11255,38791,780,170,161,162,161,160,3871,29205,569,199,164,164,161,162,27223,62146,1079,350,235,227,222,210,202,268,33631,38477,18914,14553,422,219,189,206,25806,22219,14312,11903,335,195,3306,10923,24556,42253,32008,32191,34042,39483,3317,7978,34119,35783,35135,36781,28622,16781
454,5020,204,158,157,158,155,153,11254,38813,786,169,165,158,162,157,3877,29233,575,203,167,162,161,157,27254,62234,1087,353,233,229,221,211,207,271,33701,38619,18938,14585,421,220,188,209,25842,22283,14319,11920,337,194,3308,10949,24590,42354,32024,32231,34054,39517,3321,8004,34150,35850,35165,36851,28637,16792
459,5029,204,158,156,156,149,157,11257,38861,783,171,165,160,161,157,3879,29275,573,201,167,162,159,159,27251,62258,1079,353,232,226,217,220,205,269,33787,38775,18951,14618,420,223,189,206,25905,22359,14331,11951,336,196,3313,10973,24631,42470,32030,32269,34078,39569,3329,8030,34192,35923,35198,36925,28650,16812
455,5036,206,157,153,155,152,151,11273,38942,791,171,165,155,161,157,3881,29330,577,200,166,165,159,158,27202,62187,1083,354,233,227,215,220,203,269,33863,38915,18972,14651,420,225,187,207,25952,22422,14347,11977,337,198,3311,11003,24676,42583,32050,32315,34099,39610,3334,8059,34223,35985,35230,36995,28666,16828
454,5046,205,157,154,157,152,156,11281,39017,784,170,161,163,157,158,3890,29394,572,201,166,165,159,161,27187,62215,1074,355,231,223,222,221,203,266,33944,39056,18991,14689,423,224,188,209,26003,22495,14364,12007,339,197,3317,11030,24719,42697,32082,32372,34127,39660,3337,8079,34254,36053,35256,37073,28681,16846
457,5055,205,160,158,158,156,154,11304,39117,791,171,161,159,154,153,3892,29429,576,200,166,160,161,161,27239,62376,1088,354,232,220,224,223,206,268,34017,39207,19011,14719,425,224,188,206,26053,22565,14385,12043,338,196,3319,11057,24751,42795,32113,32443,34150,39700,3346,8109,34300,36131,35289,37157,28702,16862
455,5055,205,159,158,153,159,154,11311,39127,785,174,165,159,162,152,3892,29408,573,203,169,161,160,161,27285,62447,1080,354,232,224,224,220,204,269,33948,38998,18954,14602,424,226,187,207,26041,22508,14363,11977,337,194,3321,11071,24746,42745,32047,32307,34115,39609,3347,8110,34321,36122,35267,37015,28710,16855
454,5031,205,155,159,155,153,154,11291,38991,790,170,163,160,157,154,3874,29221,573,200,167,163,160,161,27226,62213,1086,352,227,228,222,223,202,268,33694,38601,18841,14503,420,222,186,208,25932,22350,14305,11913,338,197,3309,10986,24675,42562,31992,32223,34088,39569,3331,8031,34323,36058,35207,36903,28705,16847
454,5025,205,158,156,156,153,154,11296,38999,783,170,159,162,158,169,3866,29145,569,199,164,163,160,163,27160,62106,1074,356,228,227,222,217,202,266,33671,38564,18818,14490,419,225,186,206,25907,22316,14293,11900,338,196,3307,10970,24654,42527,31991,32233,34072,39553,3331,8024,34292,36031,35207,36899,28708,16845
455,5026,205,157,156,155,153,155,11287,38941,791,170,163,161,159,156,3863,29103,574,199,167,162,160,163,27094,61944,1081,347,236,229,223,217,203,266,33658,38563,18811,14495,420,222,186,206,25891,22312,14284,11903,339,193,3308,10969,24647,42522,31992,32251,34080,39572,3331,8026,34319,36067,35226,36925,28718,16855
454,5031,204,155,155,155,153,151,11285,38971,783,172,162,157,162,157,3862,29138,569,200,166,160,162,160,27062,61949,1073,346,234,231,223,217,203,267,33680,38589,18816,14496,419,222,190,205,25903,22331,14285,11910,336,196,3311,10986,24660,42565,31991,32257,34082,39572,3340,8047,34340,36096,35233,36950,28715,16855
454,5033,204,158,155,156,155,153,11283,38968,791,170,170,160,160,157,3859,29131,575,199,170,162,161,161,27104,62008,1079,354,234,229,219,217,203,266,33670,38601,18810,14501,419,227,186,206,25897,22339,14290,11915,336,200,3309,10992,24663,42579,31997,32278,34091,39589,3342,8049,34320,36095,35233,36977,28719,16858
456,5041,204,157,156,159,156,154,11289,39001,783,171,165,162,164,152,3863,29163,568,199,170,164,159,164,27104,62075,1068,353,234,228,225,218,202,267,33715,38698,18833,14537,419,218,184,202,25922,22382,14298,11942,337,197,3313,11007,24683,42641,32017,32332,34108,39626,3343,8060,34326,36126,35257,37048,28726,16873
458,5046,205,158,155,164,153,148,11298,39054,792,173,162,162,156,159,3867,29187,574,197,170,161,161,160,27110,62128,1080,355,232,225,223,218,205,269,33790,38830,18858,14573,422,223,187,210,25965,22442,14315,11971,339,195,3315,11035,24703,42712,32049,32394,34126,39664,3349,8091,34341,36177,35282,37117,28734,16885
457,5056,205,156,153,157,153,153,11301,39111,785,170,163,164,156,155,3869,29236,571,199,167,165,158,158,27142,62222,1079,356,234,226,222,217,204,266,33861,38959,18893,14621,422,223,186,206,26006,22507,14333,12002,339,197,3321,11063,24729,42801,32090,32466,34138,39707,3354,8113,34350,36212,35309,37196,28747,16897
459,5065,205,158,155,153,152,151,11314,39174,793,171,162,159,158,153,3877,29301,577,204,165,160,161,161,27193,62373,1089,356,233,228,223,221,204,265,33932,39093,18930,14669,422,221,188,206,26051,22573,14357,12039,344,197,3323,11093,24760,42889,32133,32531,34163,39759,3358,8140,34345,36255,35339,37280,28759,16915
455,5075,208,156,153,155,154,153,11327,39265,790,171,162,155,158,157,3878,29343,574,201,167,162,165,163,27295,62662,1085,355,231,225,222,219,200,269,34009,39239,18963,14709,424,223,187,206,26107,22645,14379,12072,340,195,3327,11120,24793,42992,32166,32599,34187,39788,3363,8163,34379,36316,35372,37355,28774,16928
459,5075,206,157,158,154,149,154,11342,39274,794,172,162,158,160,160,3884,29349,577,199,165,164,158,160,27380,62797,1094,355,232,226,222,216,200,270,33902,38979,18928,14613,420,221,184,205,26063,22559,14371,12023,336,194,3328,11132,24772,42901,32137,32495,34151,39691,3364,8162,34378,36265,35351,37223,28769,16914
458,5057,205,157,156,153,154,155,11307,39096,785,170,163,179,155,158,3876,29259,571,199,166,161,161,160,27415,62725,1085,351,232,228,221,214,205,269,33665,38604,18868,14544,421,220,186,204,25930,22384,14325,11963,339,197,3322,11050,24700,42711,32117,32440,34137,39666,3348,8073,34307,36138,35302,37119,28759,16907
455,5052,207,159,155,156,151,154,11299,39047,791,171,165,159,159,156,3874,29231,575,199,167,162,159,160,27390,62649,1092,354,232,227,223,215,203,267,33626,38541,18854,14521,421,219,187,205,25901,22346,14310,11944,337,196,3317,11025,24683,42667,32111,32434,34124,39643,3345,8053,34273,36094,35305,37098,28753,16899
455,5049,205,158,153,154,156,153,11295,39016,783,172,160,156,159,155,3873,29207,571,202,164,160,160,163,27370,62592,1079,353,236,226,218,219,203,267,33587,38492,18839,14517,420,222,187,206,25886,22338,14300,11943,337,193,3319,11018,24671,42637,32111,32439,34134,39651,3347,8038,34231,36047,35290,37099,28735,16894
460,5052,209,160,157,158,154,152,11309,39075,793,171,163,158,157,162,3876,29209,575,201,167,160,160,159,27329,62553,1090,353,235,226,216,220,203,266,33603,38515,18847,14521,416,225,185,205,25909,22368,14305,11949,335,196,3319,11025,24685,42661,32114,32447,34131,39659,3348,8052,34223,36057,35282,37108,28734,16891
457,5050,205,158,159,155,152,153,11309,39070,786,171,161,156,161,160,3871,29189,572,201,167,159,161,162,27339,62558,1082,353,231,226,221,219,203,265,33588,38505,18852,14529,421,223,189,204,25913,22377,14306,11958,333,194,3321,11027,24674,42649,32122,32463,34129,39665,3352,8053,34220,36052,35281,37115,28727,16892
457,5052,206,157,157,153,154,156,11311,39079,791,171,157,164,158,154,3874,29202,575,200,170,161,160,162,27359,62611,1092,355,232,220,223,219,204,264,33621,38578,18878,14564,422,222,186,205,25936,22424,14318,11979,338,197,3322,11039,24679,42693,32133,32507,34143,39693,3354,8067,34235,36095,35302,37179,28740,16903
458,5061,205,146,154,152,153,152,11309,39101,785,170,158,159,157,157,3871,29218,570,200,163,159,159,160,27385,62738,1085,357,234,228,223,220,208,267,33686,38697,18904,14610,421,224,188,205,25969,22473,14335,12015,339,197,3325,11061,24697,42744,32159,32555,34155,39728,3362,8095,34288,36177,35329,37252,28750,16915
461,5066,206,157,155,154,153,155,11312,39126,794,173,163,160,163,155,3874,29249,578,200,165,161,160,162,27359,62699,1091,357,225,229,223,221,201,265,33741,38809,18937,14648,422,223,186,208,25999,22527,14348,12045,338,196,3327,11087,24709,42799,32179,32601,34167,39761,3367,8125,34313,36233,35353,37327,28758,16929
455,5075,208,159,153,155,153,151,11309,39165,787,174,159,159,162,158,3877,29289,571,200,163,162,161,161,27371,62761,1086,356,232,229,223,215,202,266,33804,38931,18964,14689,424,222,185,210,26038,22584,14367,12072,340,195,3329,11107,24731,42875,32203,32652,34185,39803,3374,8151,34346,36299,35388,37399,28777,16942
458,5086,205,156,159,152,157,156,11310,39209,796,175,163,167,157,153,3879,29329,577,199,166,163,165,161,27342,62750,1091,350,236,228,223,221,204,268,33881,39065,18989,14720,425,223,189,207,26080,22644,14383,12099,343,198,3329,11132,24758,42966,32220,32698,34211,39838,3375,8173,34373,36351,35421,37471,28785,16961
460,5086,206,160,155,155,156,157,11322,39215,788,175,161,158,158,163,3880,29327,574,201,166,162,160,161,27387,62841,1085,347,232,229,226,219,204,269,33780,38810,18943,14604,422,222,187,207,26045,22564,14366,12039,339,196,3335,11139,24742,42863,32164,32571,34169,39737,3377,8175,34387,36314,35390,37315,28787,16941
457,5063,205,157,157,159,154,156,11293,39033,791,174,160,160,156,155,3875,29225,574,201,170,162,160,163,27425,62753,1089,355,233,229,222,218,202,269,33507,38371,18846,14494,418,221,188,206,25895,22363,14308,11962,337,195,3321,11044,24659,42641,32103,32450,34141,39685,3359,8076,34302,36169,35315,37172,28763,16920
459,5055,206,157,155,157,155,153,11284,38983,784,170,162,163,159,153,3870,29168,569,199,166,166,161,163,27413,62693,1080,353,232,229,223,217,203,269,33432,38235,18798,14439,420,221,186,205,25851,22301,14278,11924,336,195,3319,11003,24630,42533,32068,32387,34113,39639,3351,8043,34264,36100,35282,37089,28751,16905
456,5043,205,159,153,155,157,153,11279,38923,790,171,160,164,157,156,3865,29107,573,200,167,163,165,163,27408,62649,1089,356,235,228,222,219,203,264,33334,38087,18759,14403,418,222,188,205,25792,22249,14253,11907,341,199,3314,10975,24592,42434,32031,32341,34109,39633,3347,8019,34235,36046,35241,37043,28732,16895
456,5044,205,157,156,153,156,153,11278,38925,782,170,162,156,157,155,3870,29110,568,199,166,159,160,161,27413,62657,1085,356,234,230,225,218,209,261,33345,38092,18749,14397,416,222,187,203,25800,22265,14253,11909,337,196,3317,10972,24584,42423,32006,32314,34103,39619,3354,8034,34229,36055,35220,37028,28727,16891
457,5041,205,157,155,156,153,154,11270,38899,789,169,169,159,155,156,3863,29089,573,204,170,162,161,158,27424,62667,1094,355,231,228,225,219,202,264,33315,38041,18732,14387,417,222,186,207,25781,22256,14245,11908,337,189,3313,10970,24563,42381,31979,32295,34094,39611,3353,8029,34223,36042,35177,36996,28710,16883
456,5042,205,157,153,155,154,153,11275,38909,782,169,159,160,161,153,3864,29098,570,199,163,162,164,162,27406,62655,1084,356,234,227,222,217,199,265,33331,38092,18737,14397,416,221,185,205,25790,22281,14249,11922,337,195,3315,10970,24564,42389,31967,32286,34095,39635,3354,8039,34226,36055,35155,37003,28708,16886
455,5047,206,158,157,155,154,156,11280,38953,790,172,161,156,158,154,3865,29109,573,199,166,159,160,160,27406,62691,1092,356,234,227,223,217,198,266,33383,38197,18754,14427,419,220,185,205,25821,22333,14255,11942,337,196,3316,10983,24572,42419,31969,32317,34105,39664,3360,8058,34237,36090,35152,37038,28707,16888
456,5053,208,159,156,158,155,157,11285,38995,783,172,163,157,157,157,3864,29131,569,199,165,163,163,155,27427,62735,1086,355,232,226,221,212,202,265,33441,38310,18775,14457,419,219,185,205,25857,22389,14265,11964,338,195,3318,11001,24583,42469,31973,32341,34115,39688,3363,8080,34241,36115,35143,37073,28703,16899
456,5061,206,159,158,154,153,154,11293,39058,791,170,162,158,158,157,3872,29171,575,200,164,161,160,159,27431,62777,1094,354,233,227,221,216,205,267,33496,38403,18794,14485,422,221,187,206,25890,22442,14279,11992,342,194,3317,11018,24595,42507,31975,32375,34123,39719,3368,8096,34246,36147,35147,37109,28704,16901
455,5065,205,156,155,155,152,157,11302,39107,786,172,155,155,161,157,3872,29191,573,201,165,162,161,158,27426,62816,1082,354,231,227,215,220,205,267,33559,38521,18814,14525,417,223,189,207,25935,22502,14294,12019,336,198,3324,11036,24607,42564,32001,32422,34142,39759,3369,8113,34267,36195,35150,37157,28713,16911
456,5072,205,156,154,154,153,156,11317,39191,799,175,165,157,152,162,3876,29233,574,200,166,162,158,159,27449,62900,1095,355,234,227,218,222,202,268,33631,38665,18844,14557,420,222,188,206,25978,22561,14312,12043,338,196,3319,11057,24629,42634,32027,32460,34149,39768,3373,8135,34267,36225,35164,37203,28714,16923
458,5067,206,160,157,155,155,156,11313,39113,786,175,167,175,156,156,3875,29190,569,202,166,161,164,153,27495,62896,1085,354,232,222,223,220,205,266,33431,38206,18761,14391,418,223,187,209,25884,22391,14271,11943,334,193,3323,11032,24568,42420,31949,32279,34093,39645,3367,8098,34244,36105,35092,36967,28693,16893
457,5042,205,157,155,155,154,154,11286,38945,790,171,164,156,156,161,3869,29068,570,203,164,164,160,163,27474,62743,1092,355,232,219,223,220,204,262,33224,37870,18681,14296,417,222,187,205,25759,22232,14214,11873,336,198,3305,10936,24490,42203,31886,32167,34060,39582,3348,8011,34160,35962,35018,36828,28674,16869
457,5030,205,159,155,154,155,153,11272,38863,781,172,160,157,159,154,3858,28983,567,200,166,160,161,162,27423,62599,1081,354,228,227,223,219,204,263,33130,37686,18616,14225,416,222,185,205,25703,22153,14175,11827,332,195,3303,10895,24443,42057,31828,32065,34028,39525,3342,7975,34099,35854,34957,36708,28641,16843
455,5017,205,157,153,158,156,152,11259,38782,785,174,166,160,146,156,3853,28914,570,199,163,161,161,159,27383,62493,1089,354,226,228,225,218,201,266,33035,37560,18582,14204,414,224,186,206,25660,22111,14145,11810,335,195,3298,10855,24405,41949,31782,32011,34012,39503,3337,7946,34042,35778,34911,36661,28619,16825
455,5021,206,157,155,156,154,152,11263,38797,781,171,161,159,158,161,3851,28917,564,200,170,164,163,159,27354,62425,1081,352,231,226,223,215,203,263,33038,37555,18573,14190,414,220,185,204,25658,22122,14142,11808,335,195,3298,10856,24395,41930,31744,31968,33999,39487,3338,7955,34019,35756,34880,36633,28605,16815
456,5018,205,157,156,157,151,154,11255,38767,787,171,159,159,158,161,3852,28904,571,197,175,162,160,161,27350,62392,1087,346,233,228,222,218,206,259,33017,37537,18563,14186,415,221,186,204,25645,22113,14135,11806,337,194,3295,10848,24379,41893,31711,31941,33992,39486,3339,7951,33989,35725,34849,36611,28583,16807
457,5019,205,158,159,152,154,154,11256,38789,779,176,163,156,155,156,3852,28916,565,199,166,164,163,160,27326,62357,1078,349,233,231,222,218,205,263,33065,37611,18575,14209,413,221,186,203,25665,22147,14135,11823,335,196,3297,10856,24390,41909,31699,31944,34001,39503,3340,7962,33984,35738,34833,36621,28579,16806
455,5023,207,157,155,157,154,156,11259,38806,791,170,165,159,155,153,3850,28922,570,203,167,160,163,160,27339,62422,1083,354,234,229,223,221,201,265,33128,37724,18593,14235,415,221,187,207,25694,22203,14140,11842,336,195,3298,10869,24397,41950,31689,31956,33998,39525,3345,7979,34005,35779,34823,36652,28574,16810
456,5028,205,157,154,153,155,153,11262,38856,785,171,162,156,159,160,3854,28942,566,200,174,164,160,159,27349,62475,1073,355,232,233,224,218,204,264,33200,37851,18611,14266,415,224,188,203,25737,22263,14157,11867,335,194,3303,10886,24415,42008,31693,31982,34011,39556,3345,8002,34015,35813,34826,36687,28576,16817
456,5033,205,158,156,154,156,153,11273,38901,788,171,159,163,157,161,3854,28965,572,200,167,162,160,159,27379,62543,1090,356,233,225,221,218,203,265,33261,37957,18633,14298,417,221,186,205,25769,22312,14169,11889,337,196,3301,10902,24427,42057,31701,32015,34022,39582,3352,8019,34039,35849,34836,36721,28580,16825
455,5043,206,154,155,154,154,154,11279,38943,782,168,165,159,154,158,3855,29002,567,198,166,152,165,159,27395,62607,1084,353,233,227,222,219,202,262,33337,38087,18666,14340,417,223,187,207,25813,22373,14179,11915,336,196,3303,10923,24453,42122,31722,32061,34045,39632,3351,8034,34050,35885,34852,36778,28588,16835
459,5049,205,159,155,156,154,154,11289,39011,789,171,161,160,157,160,3863,29057,574,199,169,163,161,162,27422,62719,1094,352,229,229,222,218,204,269,33425,38243,18697,14384,417,222,186,210,25861,22439,14207,11945,338,193,3308,10948,24483,42209,31755,32117,34059,39667,3355,8058,34066,35937,34870,36840,28594,16847
457,5056,205,158,155,155,153,153,11291,39029,784,171,159,159,153,156,3866,29075,568,201,163,161,162,157,27469,62820,1085,354,234,226,221,218,197,268,33388,38078,18669,14286,416,219,187,201,25851,22390,14196,11898,336,198,3309,10959,24470,42142,31721,32015,34026,39566,3359,8064,34078,35905,34839,36695,28589,16831
456,5027,207,157,154,156,152,152,11260,38811,784,173,165,160,158,160,3859,28967,572,201,167,163,158,159,27477,62649,1091,352,233,229,220,214,200,263,33099,37605,18574,14173,416,217,187,205,25689,22164,14133,11812,336,195,3296,10857,24385,41883,31647,31877,33990,39498,3337,7959,33983,35711,34757,36513,28560,16802
455,5023,203,157,155,157,154,153,11248,38737,782,171,162,163,158,154,3858,28927,570,200,166,166,160,162,27423,62511,1082,358,231,226,223,211,202,263,33032,37459,18532,14116,415,219,188,204,25637,22084,14099,11771,334,193,3291,10813,24355,41773,31609,31799,33963,39443,3331,7922,33931,35619,34713,36421,28539,16779
455,5008,206,160,154,154,157,154,11234,38652,787,172,162,159,155,159,3852,28868,571,200,165,167,162,159,27382,62361,1088,355,231,226,219,217,202,262,32936,37305,18496,14075,411,221,188,208,25572,22014,14073,11743,338,196,3289,10777,24309,41645,31563,31730,33937,39413,3323,7887,33886,35537,34661,36337,28511,16763
453,5003,208,160,155,157,153,153,11230,38651,779,172,160,163,162,159,3849,28847,564,201,165,166,160,162,27325,62248,1076,351,232,225,214,219,201,264,32959,37340,18493,14087,408,221,187,203,25574,22035,14068,11747,333,195,3283,10774,24301,41623,31551,31727,33932,39394,3325,7897,33863,35527,34630,36319,28499,16751
454,5003,204,157,154,156,152,154,11229,38637,783,169,161,159,157,159,3846,28827,567,201,165,159,159,156,27302,62201,1085,351,232,229,219,219,203,262,32950,37327,18495,14086,411,223,186,205,25553,22026,14068,11746,336,196,3280,10769,24281,41583,31531,31703,33921,39389,3327,7894,33863,35511,34599,36286,28487,16744
454,5005,204,158,158,154,152,154,11228,38647,777,175,164,159,162,160,3848,28843,564,200,168,162,161,157,27266,62119,1074,352,231,221,221,219,201,262,33000,37409,18512,14103,413,224,195,204,25567,22057,14069,11762,335,195,3287,10774,24292,41612,31528,31715,33930,39407,3331,7904,33866,35527,34594,36302,28481,16744
454,5008,205,157,157,155,151,154,11233,38683,785,172,162,161,158,158,3849,28867,569,201,165,159,161,157,27267,62146,1086,353,234,219,224,219,204,263,33075,37535,18537,14141,415,222,185,204,25593,22103,14079,11781,336,197,3283,10789,24310,41663,31524,31739,33937,39434,3334,7928,33906,35588,34583,36331,28483,16747
456,5016,204,157,158,158,157,154,11240,38723,779,172,165,161,156,156,3850,28903,568,203,170,163,157,163,27263,62187,1076,352,227,226,222,220,202,265,33155,37678,18569,14187,414,221,185,207,25631,22159,14091,11807,336,195,3287,10810,24331,41730,31543,31777,33952,39472,3337,7948,33927,35630,34595,36374,28489,16755
455,5024,205,160,155,158,153,154,11241,38775,786,171,162,159,157,160,3855,28953,569,200,167,161,161,160,27276,62241,1085,356,224,228,232,220,201,263,33232,37810,18597,14226,415,221,185,205,25664,22213,14107,11835,336,196,3288,10835,24359,41811,31560,31813,33969,39499,3339,7971,33949,35675,34608,36415,28499,16767
454,5030,206,156,153,154,154,153,11246,38816,781,171,159,159,154,155,3858,28986,566,199,163,164,165,160,27309,62357,1078,351,234,228,223,216,203,264,33311,37943,18637,14267,415,221,188,206,25709,22274,14122,11858,340,196,3295,10855,24387,41895,31585,31863,33991,39551,3341,7985,33978,35717,34615,36463,28505,16777
456,5039,209,160,154,158,156,157,11254,38877,789,171,158,159,155,155,3864,29042,571,199,173,160,164,164,27325,62399,1089,353,233,229,223,218,201,264,33399,38103,18667,14314,418,221,186,207,25765,22343,14141,11889,337,196,3295,10885,24425,41996,31618,31917,34012,39594,3341,8007,33988,35767,34640,36521,28521,16791
458,5044,205,155,154,155,154,157,11263,38944,783,173,159,162,157,157,3861,29023,566,200,175,164,155,160,27363,62529,1082,351,237,228,219,226,207,264,33508,38291,18694,14357,415,221,187,205,25834,22425,14150,11914,338,197,3298,10913,24467,42109,31647,31977,34037,39639,3347,8033,34009,35813,34673,36603,28534,16809
457,5055,205,157,157,153,153,153,11275,38991,791,168,162,161,157,157,3864,29061,573,202,166,162,161,162,27362,62519,1084,353,233,227,222,217,203,266,33461,38129,18661,14254,415,221,186,207,25824,22379,14139,11858,337,198,3301,10929,24472,42071,31607,31866,34005,39544,3351,8037,34014,35787,34656,36461,28531,16791
454,5029,205,156,155,154,155,157,11255,38832,779,173,162,159,155,157,3861,28979,565,200,163,160,164,161,27338,62297,1071,355,232,226,222,227,197,263,33172,37651,18563,14148,412,221,188,207,25663,22158,14082,11782,335,196,3292,10831,24393,41835,31549,31749,33974,39483,3329,7937,33934,35602,34575,36297,28507,16767
456,5021,205,159,155,153,155,156,11256,38799,786,172,164,159,157,157,3865,28991,570,199,167,161,173,167,27253,62093,1084,353,233,222,219,217,202,261,33122,37557,18540,14110,415,221,187,204,25609,22082,14054,11746,335,195,3285,10799,24379,41773,31529,31694,33957,39439,3319,7902,33887,35526,34542,36205,28491,16748
454,5011,205,158,159,155,154,154,11250,38746,779,171,165,160,156,161,3866,28978,570,201,166,161,165,160,27195,61947,1072,352,233,227,219,213,202,258,33063,37449,18512,14079,411,223,186,203,25566,22025,14027,11722,335,195,3281,10771,24355,41694,31498,31650,33952,39426,3317,7880,33891,35495,34497,36132,28474,16733
454,5014,205,157,154,154,153,154,11250,38767,788,173,158,157,157,155,3868,29019,571,201,169,163,166,162,27153,61861,1080,352,227,234,221,221,200,263,33089,37507,18516,14091,416,221,188,209,25567,22043,14026,11725,336,194,3280,10776,24372,41726,31495,31647,33947,39423,3317,7885,33899,35509,34463,36109,28470,16732
455,5011,206,156,155,154,157,154,11251,38753,780,170,159,157,157,157,3869,29020,565,200,163,166,161,164,27140,61854,1071,363,229,226,228,217,199,262,33086,37499,18517,14102,412,221,184,205,25552,22038,14027,11729,334,195,3283,10780,24364,41709,31485,31642,33941,39421,3320,7890,33916,35509,34423,36080,28457,16719
454,5012,203,157,156,154,153,154,11247,38753,787,171,162,161,157,155,3870,29017,572,197,166,163,160,169,27154,61899,1082,349,232,226,223,212,200,265,33134,37591,18552,14142,413,219,186,203,25560,22058,14025,11739,335,199,3284,10787,24372,41729,31498,31667,33943,39433,3320,7900,33923,35528,34423,36111,28457,16720
456,5022,204,155,157,155,155,154,11243,38767,779,167,163,159,161,157,3868,29035,567,199,166,162,159,163,27168,61924,1070,355,234,224,223,210,202,264,33203,37717,18585,14184,414,218,186,208,25589,22113,14035,11763,333,194,3287,10810,24383,41780,31513,31717,33951,39461,3323,7921,33915,35546,34436,36159,28447,16727
457,5026,205,159,159,154,153,153,11251,38837,786,168,161,158,162,157,3871,29060,572,198,164,163,160,157,27109,61841,1080,351,232,225,216,216,202,269,33285,37867,18624,14234,413,226,187,204,25629,22179,14056,11796,334,197,3290,10836,24407,41861,31537,31766,33969,39500,3326,7942,33901,35554,34473,36237,28455,16733
456,5034,205,157,152,154,158,155,11257,38907,781,172,162,160,158,157,3874,29110,567,201,165,161,157,158,27088,61858,1070,351,234,226,214,219,203,264,33364,38007,18667,14285,412,222,188,205,25679,22238,14078,11829,336,198,3295,10858,24432,41935,31567,31826,33982,39529,3330,7964,33903,35590,34510,36306,28466,16742
455,5043,206,153,155,158,154,152,11267,38958,791,176,161,159,158,157,3878,29148,574,201,169,161,158,158,27129,61979,1080,352,231,225,221,219,202,269,33434,38138,18711,14336,418,224,190,206,25717,22294,14108,11865,335,195,3295,10883,24455,42009,31615,31900,34007,39576,3330,7986,33939,35647,34542,36375,28475,16759
456,5052,205,155,151,157,154,156,11276,39005,782,168,162,163,155,156,3881,29201,571,199,164,165,162,159,27154,62071,1072,354,230,220,221,218,204,268,33533,38311,18755,14393,419,223,187,207,25763,22357,14130,11898,338,197,3299,10912,24498,42129,31670,31978,34030,39626,3337,8009,33969,35704,34583,36458,28494,16778
456,5063,206,157,157,154,154,156,11286,39081,791,169,162,161,161,154,3885,29254,574,199,166,161,161,161,27173,62168,1085,353,235,224,224,221,207,266,33628,38495,18802,14456,419,223,188,206,25818,22436,14157,11936,337,196,3300,10947,24535,42241,31721,32061,34059,39679,3340,8046,34019,35795,34613,36534,28516,16795
456,5068,205,156,156,154,154,154,11294,39119,785,171,162,160,157,154,3890,29311,571,200,166,159,157,162,27203,62233,1076,356,227,227,223,218,203,267,33609,38371,18797,14391,418,222,187,206,25806,22387,14159,11899,337,196,3307,10970,24547,42221,31715,32002,34031,39589,3345,8057,34042,35774,34617,36441,28517,16782
457,5048,207,161,155,155,154,151,11263,38920,793,171,164,159,158,157,3890,29225,576,198,166,165,157,157,27200,62063,1085,354,225,225,222,218,202,268,33332,37911,18713,14294,419,222,186,205,25651,22167,14106,11827,335,195,3296,10887,24471,41999,31675,31901,33994,39527,3326,7962,33959,35598,34553,36284,28493,16759
457,5035,204,157,158,153,157,155,11253,38866,780,172,164,160,157,157,3882,29179,570,199,169,161,161,161,27149,61954,1072,348,231,227,222,218,204,265,33305,37859,18707,14281,416,221,186,203,25610,22115,14089,11804,336,194,3292,10855,24449,41942,31679,31888,33989,39499,3320,7937,33937,35555,34543,36237,28489,16748
455,5034,204,158,156,155,153,153,11239,38799,786,171,159,157,158,158,3881,29159,575,196,170,165,158,159,27145,61911,1081,344,232,227,227,217,196,264,33265,37809,18699,14277,419,221,186,203,25565,22069,14075,11790,336,196,3288,10840,24436,41911,31676,31887,33990,39501,3317,7924,33925,35525,34517,36198,28472,16740
455,5036,205,155,155,154,157,155,11244,38826,780,169,158,159,157,160,3886,29199,569,199,165,162,161,159,27100,61829,1068,351,235,227,220,219,203,265,33315,37883,18708,14291,415,225,188,208,25575,22092,14074,11794,335,194,3294,10850,24457,41956,31678,31892,33985,39497,3319,7938,33956,35554,34509,36191,28472,16735
454,5035,206,156,154,157,154,153,11239,38807,788,171,164,160,157,154,3884,29185,574,201,166,163,160,159,27105,61807,1072,351,233,236,217,220,197,265,33303,37889,18710,14299,416,221,187,205,25561,22081,14069,11794,334,194,3291,10855,24457,41955,31670,31898,33988,39505,3320,7941,33960,35564,34486,36181,28469,16737
455,5037,207,159,157,155,153,155,11239,38821,782,173,162,159,162,158,3888,29212,572,200,167,163,160,160,27111,61843,1070,353,234,226,222,229,203,264,33363,37989,18726,14329,418,225,189,205,25578,22114,14074,11807,335,194,3297,10864,24480,42018,31681,31929,33998,39527,3322,7954,34001,35611,34482,36202,28471,16737
454,5045,209,157,149,155,155,157,11245,38862,789,171,166,160,157,154,3887,29227,573,199,167,162,163,161,27107,61866,1082,352,234,229,221,221,202,263,33435,38125,18759,14376,421,221,190,204,25611,22163,14084,11831,337,196,3295,10886,24499,42082,31701,31972,34007,39555,3323,7979,34019,35654,34491,36246,28471,16744
457,5049,205,160,155,156,154,154,11250,38901,781,176,164,161,162,158,3891,29274,569,203,167,163,161,161,27122,61921,1073,353,235,226,223,225,202,263,33514,38275,18785,14414,420,223,186,204,25650,22225,14097,11853,334,197,3299,10911,24527,42173,31719,32021,34030,39591,3329,7999,34051,35709,34500,36288,28482,16754
457,5059,204,157,161,155,152,154,11258,38963,790,170,162,159,157,159,3895,29318,577,200,163,162,158,160,27133,61988,1083,353,231,233,221,217,201,267,33581,38399,18806,14454,421,223,189,206,25690,22283,14109,11879,338,197,3299,10937,24559,42266,31738,32065,34041,39628,3328,8025,34066,35747,34517,36341,28493,16763
456,5070,206,157,156,157,160,153,11267,39031,785,170,162,163,162,159,3897,29352,572,201,166,165,159,160,27125,62002,1072,354,228,226,230,216,204,268,33655,38528,18828,14490,421,223,185,206,25731,22335,14117,11898,337,197,3307,10958,24591,42347,31761,32119,34062,39671,3334,8040,34071,35778,34555,36417,28503,16779
458,5075,208,157,161,156,153,152,11284,39111,792,170,162,160,157,156,3903,29384,578,199,166,163,160,160,27140,62083,1085,346,240,229,222,211,203,268,33732,38681,18866,14545,421,220,185,206,25781,22402,14136,11931,336,194,3306,10987,24615,42445,31805,32194,34085,39714,3335,8063,34103,35835,34586,36487,28525,16795
457,5086,206,158,157,155,155,154,11293,39178,786,173,166,160,158,155,3900,29410,573,199,168,162,159,159,27168,62178,1077,356,238,231,228,213,205,269,33824,38823,18888,14568,419,222,188,209,25829,22468,14155,11946,338,196,3310,11015,24641,42522,31837,32243,34090,39703,3338,8091,34138,35906,34614,36518,28541,16805
457,5073,206,158,154,154,157,153,11276,39048,791,172,166,157,156,160,3899,29363,577,200,166,164,163,160,27223,62182,1085,354,231,227,217,219,202,267,33563,38322,18802,14418,414,224,186,205,25704,22261,14107,11855,334,195,3306,10979,24587,42326,31773,32084,34047,39606,3332,8039,34114,35772,34533,36293,28518,16777
455,5060,205,160,158,151,154,156,11260,38960,783,174,166,160,157,156,3895,29293,574,204,169,163,160,160,27190,62042,1073,351,238,231,223,219,202,266,33458,38163,18757,14390,413,227,186,204,25635,22164,14071,11811,337,196,3298,10916,24543,42216,31751,32051,34023,39571,3318,7989,34065,35691,34519,36245,28509,16762
455,5056,209,160,155,156,156,154,11253,38914,789,171,164,158,158,157,3891,29276,576,201,167,165,161,159,27135,61919,1080,354,233,222,220,221,203,267,33433,38111,18749,14372,419,225,189,209,25599,22118,14057,11791,336,199,3296,10905,24526,42168,31742,32035,34012,39549,3315,7975,34047,35654,34515,36213,28499,16752
459,5056,207,157,155,159,157,153,11244,38887,782,171,162,159,158,159,3891,29291,570,201,166,161,160,159,27085,61843,1071,351,231,222,225,219,203,268,33449,38163,18747,14385,419,232,186,206,25599,22133,14053,11799,335,194,3297,10906,24533,42189,31747,32054,34013,39559,3314,7978,34050,35667,34513,36218,28495,16752
457,5055,210,161,158,155,153,157,11245,38885,789,171,162,159,159,154,3891,29268,576,202,165,161,158,161,27113,61878,1080,352,231,224,223,218,205,266,33442,38153,18745,14383,419,221,187,207,25590,22129,14052,11793,335,194,3297,10914,24523,42172,31731,32039,34005,39553,3316,7985,34058,35668,34484,36185,28488,16746
457,5055,205,157,151,154,156,154,11245,38887,781,169,160,158,158,154,3892,29279,571,200,165,159,159,162,27091,61830,1070,352,225,229,222,219,204,264,33455,38191,18745,14409,419,223,186,205,25595,22138,14047,11795,336,195,3299,10913,24519,42187,31734,32057,34010,39567,3313,7985,34056,35665,34468,36189,28483,16743
457,5062,209,157,154,158,157,151,11251,38928,790,173,166,159,158,153,3895,29316,576,200,166,163,164,160,27091,61857,1078,353,227,227,222,214,203,267,33513,38315,18775,14447,420,221,186,209,25617,22181,14055,11819,338,195,3301,10933,24535,42245,31750,32103,34020,39595,3315,7999,34063,35701,34477,36235,28487,16754
457,5068,205,159,152,154,154,157,11254,38973,783,175,164,158,157,156,3894,29349,572,200,168,163,158,159,27096,61885,1071,348,232,227,223,217,206,264,33583,38443,18807,14488,423,222,187,204,25653,22236,14066,11838,337,197,3306,10955,24551,42303,31767,32154,34031,39624,3319,8021,34081,35733,34491,36278,28495,16762
455,5076,205,157,156,147,158,155,11259,39017,791,169,161,157,155,153,3898,29387,576,201,163,164,162,160,27099,61915,1081,344,233,227,224,222,203,270,33641,38562,18830,14531,420,221,187,205,25685,22291,14076,11861,337,195,3303,10979,24573,42376,31791,32205,34045,39659,3324,8041,34092,35775,34505,36335,28503,16770
456,5086,207,157,155,155,156,157,11270,39075,786,172,161,159,157,157,3903,29429,573,199,166,162,161,159,27110,61989,1072,353,232,227,223,218,203,268,33713,38695,18857,14576,421,222,186,206,25730,22345,14090,11887,335,196,3307,11003,24598,42449,31818,32262,34067,39694,3325,8059,34109,35815,34532,36401,28511,16786
459,5091,209,157,159,157,151,157,11279,39141,793,172,161,159,157,156,3909,29472,579,208,166,159,162,165,27137,62083,1076,355,234,227,221,218,205,268,33787,38850,18880,14611,423,227,185,209,25775,22412,14107,11913,338,195,3310,11026,24619,42530,31850,32316,34077,39725,3325,8086,34137,35865,34565,36467,28527,16798
457,5091,205,159,159,156,151,156,11281,39112,785,172,161,163,161,157,3908,29466,574,203,166,164,161,160,27179,62138,1073,353,232,223,222,219,203,268,33663,38543,18833,14501,421,223,185,205,25726,22299,14083,11839,334,196,3310,11028,24591,42414,31803,32198,34033,39613,3326,8072,34123,35795,34533,36303,28511,16776
457,5069,206,159,156,152,154,154,11247,38926,794,171,163,163,162,157,3902,29371,577,200,166,162,160,157,27176,61993,1082,355,235,225,221,216,205,262,33438,38189,18762,14426,417,225,186,203,25598,22123,14035,11775,335,195,3299,10941,24512,42215,31754,32113,33999,39551,3307,7987,34063,35662,34479,36181,28493,16751
456,5063,205,157,155,155,154,150,11239,38854,781,171,161,157,155,153,3896,29327,576,200,167,161,164,163,27162,61941,1073,353,231,227,221,219,202,263,33397,38099,18727,14389,417,220,185,204,25562,22069,14007,11743,335,196,3296,10915,24487,42138,31735,32074,33978,39514,3303,7962,34019,35607,34460,36121,28479,16737
455,5057,206,157,147,156,153,152,11228,38791,787,175,159,159,161,157,3891,29292,577,201,170,162,160,157,27137,61869,1080,353,231,229,221,217,202,265,33359,38054,18709,14384,419,223,187,206,25537,22043,13993,11731,335,196,3292,10898,24465,42088,31715,32061,33969,39510,3298,7946,33997,35563,34445,36102,28465,16728
456,5059,205,156,157,153,156,154,11225,38805,781,172,166,158,162,157,3894,29316,573,201,171,162,161,158,27100,61806,1072,353,231,227,222,215,203,269,33377,38087,18704,14380,418,220,185,205,25551,22058,13992,11731,335,194,3295,10905,24465,42093,31695,32044,33963,39504,3300,7950,33996,35573,34441,36089,28455,16721
456,5059,206,156,157,156,154,154,11223,38777,787,171,162,159,161,160,3897,29316,576,195,167,161,162,158,27118,61842,1082,345,231,226,221,211,203,266,33364,38075,18697,14381,418,219,186,205,25535,22053,13985,11727,333,194,3296,10903,24461,42084,31679,32035,33958,39501,3298,7954,34006,35573,34417,36080,28451,16716
456,5063,204,156,154,158,155,153,11217,38783,780,170,162,161,158,155,3898,29347,575,201,165,165,161,163,27125,61858,1072,350,230,225,223,216,203,270,33407,38169,18709,14412,418,221,185,205,25557,22086,13992,11742,333,194,3296,10913,24475,42132,31679,32061,33969,39525,3300,7960,34012,35602,34415,36107,28453,16721
455,5069,205,157,156,155,153,152,11221,38824,787,171,158,158,155,159,3903,29398,578,202,170,164,160,160,27171,61993,1079,351,231,226,217,219,203,267,33474,38307,18737,14455,414,223,191,205,25591,22143,14004,11767,333,195,3300,10935,24491,42197,31690,32099,33979,39561,3304,7983,34051,35659,34430,36151,28456,16727
457,5075,206,160,156,161,155,153,11223,38853,781,170,165,164,158,152,3906,29446,578,199,168,166,159,161,27188,62047,1072,352,233,227,218,219,206,270,33550,38447,18765,14496,419,224,188,207,25631,22200,14016,11789,333,196,3301,10957,24517,42274,31703,32147,33992,39593,3307,8007,34060,35698,34451,36217,28466,16737
458,5083,207,157,155,154,154,153,11228,38896,789,171,160,158,161,157,3911,29496,580,205,170,162,159,160,27209,62123,1081,353,232,220,221,219,203,268,33614,38576,18793,14537,424,226,184,205,25670,22262,14031,11813,335,198,3304,10985,24535,42352,31725,32196,34007,39630,3310,8027,34083,35745,34476,36273,28476,16750
455,5093,207,157,156,156,156,154,11230,38946,784,170,161,155,158,153,3915,29541,574,200,166,158,157,164,27238,62217,1077,354,232,222,223,219,205,270,33697,38731,18817,14582,421,223,190,205,25719,22330,14044,11841,338,196,3306,11005,24568,42447,31752,32257,34033,39683,3314,8050,34106,35795,34502,36338,28491,16767
457,5099,204,157,155,158,156,154,11245,39029,792,171,164,160,157,160,3917,29569,582,201,167,162,163,160,27256,62281,1084,354,229,229,223,219,206,269,33783,38877,18833,14605,424,223,187,209,25773,22397,14061,11863,337,191,3305,11033,24591,42527,31777,32302,34037,39678,3319,8072,34113,35845,34541,36391,28504,16777
456,5089,205,157,161,155,153,155,11234,38899,781,174,164,159,160,153,3915,29514,575,200,168,163,161,159,27301,62289,1076,353,224,229,223,223,204,267,33526,38343,18739,14437,421,222,187,208,25652,22182,14009,11754,335,196,3309,10996,24530,42313,31691,32114,33980,39551,3311,8021,34097,35711,34475,36155,28485,16747
457,5069,206,160,158,155,153,155,11209,38761,785,171,151,163,157,156,3911,29449,581,199,164,163,159,159,27263,62143,1082,352,230,227,222,214,203,264,33353,38080,18680,14375,420,221,185,203,25548,22040,13964,11694,338,193,3295,10915,24477,42155,31649,32040,33953,39501,3299,7952,34025,35597,34440,36058,28468,16725
459,5062,205,155,159,155,156,155,11201,38693,777,170,159,161,157,157,3910,29425,573,199,163,164,161,160,27231,62011,1073,346,235,228,226,220,202,264,33295,37949,18640,14321,418,222,185,203,25507,21980,13936,11658,333,196,3292,10889,24455,42072,31614,31978,33931,39455,3290,7924,33985,35523,34405,35973,28448,16707
457,5056,205,160,154,151,153,145,11194,38641,783,171,167,162,159,157,3908,29382,578,200,166,163,160,158,27195,61897,1079,351,233,228,222,218,201,265,33251,37905,18620,14316,415,224,185,204,25481,21958,13919,11646,333,191,3289,10869,24430,42023,31590,31963,33923,39451,3288,7903,33951,35487,34386,35950,28435,16696
455,5057,205,158,161,154,157,151,11194,38658,780,170,165,160,153,161,3908,29381,574,199,167,162,161,159,27162,61863,1067,355,233,228,221,218,202,263,33267,37930,18613,14311,416,224,187,204,25489,21968,13912,11643,334,195,3290,10872,24426,42022,31561,31942,33913,39439,3291,7912,33957,35485,34369,35935,28429,16689
456,5054,205,158,155,156,154,154,11189,38646,785,172,163,158,159,159,3906,29385,578,200,167,159,164,159,27155,61833,1071,353,236,227,222,217,203,265,33259,37940,18608,14318,417,220,186,204,25486,21969,13905,11641,329,195,3288,10872,24423,42020,31550,31937,33911,39443,3291,7909,33953,35479,34357,35934,28415,16687
456,5060,204,158,157,157,157,153,11192,38665,776,175,165,161,158,155,3906,29412,574,201,169,163,160,158,27137,61825,1070,353,233,224,221,217,202,263,33318,38050,18632,14352,414,222,187,205,25521,22014,13908,11658,335,202,3292,10886,24438,42062,31551,31967,33917,39471,3294,7925,33957,35503,34355,35971,28418,16694
455,5065,210,156,155,153,155,154,11194,38701,785,175,163,156,162,157,3907,29434,577,201,165,166,161,157,27147,61889,1083,353,234,226,221,219,200,263,33396,38195,18663,14398,417,219,187,205,25558,22073,13923,11684,334,195,3290,10905,24453,42130,31571,32014,33926,39507,3299,7947,33981,35555,34362,36014,28421,16702
453,5073,205,157,155,158,154,155,11199,38750,779,172,163,162,161,157,3913,29477,574,201,167,163,160,157,27161,61943,1076,354,230,226,223,219,202,267,33474,38338,18686,14444,421,222,191,208,25605,22141,13941,11710,333,199,3298,10930,24477,42209,31591,32063,33950,39550,3304,7969,34014,35613,34383,36078,28437,16716
454,5075,205,160,154,153,153,152,11211,38818,786,171,159,163,154,155,3912,29495,581,202,169,162,160,159,27204,62058,1084,354,232,227,222,217,202,267,33530,38473,18703,14474,419,224,188,205,25647,22193,13941,11722,335,198,3298,10958,24530,42324,31617,32125,33961,39582,3305,7990,34021,35637,34403,36133,28447,16727
458,5086,205,157,158,157,153,151,11211,38858,780,171,162,161,158,160,3907,29503,575,201,170,165,158,159,27193,62111,1075,353,231,227,221,213,201,269,33623,38623,18727,14517,421,224,184,207,25698,22272,13948,11747,335,195,3300,10979,24532,42383,31649,32186,33985,39639,3309,8010,34026,35687,34437,36218,28467,16749
456,5092,206,159,155,153,156,153,11223,38933,789,172,163,163,158,163,3912,29525,583,200,167,162,164,159,27179,62020,1082,353,235,226,221,209,202,272,33607,38650,18611,14425,419,218,187,207,25818,22415,13925,11732,335,195,3301,11001,24555,42518,31737,32301,34001,39653,3314,8036,34249,36009,34537,36337,28527,16781
457,5078,205,156,155,153,156,153,11232,38891,781,171,163,157,160,157,3899,29372,574,201,166,161,160,157,26626,60670,1055,350,227,225,217,213,208,267,32955,37835,18129,13957,413,221,185,208,25852,22392,13765,11541,332,199,3300,10978,24773,42808,31678,32127,33961,39535,3310,8001,34940,36433,34498,36117,28499,16748
455,5047,205,159,155,154,154,153,11241,38806,788,171,155,156,157,156,3868,29099,574,201,167,165,159,159,26162,59766,1048,355,232,221,212,213,205,269,32106,37003,17684,13635,404,221,191,207,26064,22543,13623,11420,329,198,3292,10907,25287,43477,31612,32036,33934,39493,3289,7895,34912,36219,34410,35986,28447,16713
453,5033,205,157,154,156,154,154,11238,38728,779,172,162,162,154,156,3846,28891,564,202,170,166,165,158,26213,59946,1045,359,227,222,215,215,203,260,31699,36574,17369,13399,399,219,185,204,26231,22652,13553,11361,330,197,3290,10877,25513,43749,31557,31967,33907,39449,3280,7845,34947,36153,34368,35916,28406,16690
452,5021,207,157,155,154,156,151,11210,38586,783,168,159,163,154,158,3813,28648,565,202,169,162,161,159,26628,60719,1063,361,230,218,223,217,202,262,31305,36231,17115,13253,400,225,186,205,26230,22650,13549,11361,331,195,3286,10856,25750,44094,31513,31951,33914,39462,3279,7824,34820,36010,34367,35915,28381,16679
453,5025,204,159,158,155,154,153,11188,38521,775,172,163,159,158,162,3806,28613,563,202,167,160,163,162,26824,61022,1060,363,229,217,220,217,202,262,31284,36215,17237,13347,401,219,184,204,26226,22639,13571,11389,329,194,3290,10865,25748,43972,31462,31901,33901,39453,3285,7837,34649,35869,34333,35887,28357,16671
453,5031,206,157,153,153,157,154,11180,38510,780,172,161,162,156,160,3807,28650,565,201,165,161,163,159,26843,61047,1069,362,229,227,221,216,202,264,31432,36341,17552,13593,404,221,187,203,26183,22595,13632,11432,331,197,3289,10863,25453,43447,31427,31889,33898,39461,3283,7831,34357,35608,34275,35854,28334,16661
453,5040,207,157,156,155,155,155,11197,38573,776,169,162,162,159,159,3802,28582,560,199,165,163,160,157,26827,61030,1060,363,224,223,220,215,200,262,31761,36661,17783,13777,409,220,188,201,26198,22624,13665,11472,332,198,3291,10874,25149,43040,31415,31895,33908,39491,3287,7844,34253,35548,34258,35878,28333,16672
455,5053,207,157,155,153,153,156,11211,38674,786,173,162,162,159,157,3776,28474,562,199,167,161,159,163,26776,60816,1063,357,227,223,217,211,200,263,32055,36963,17935,13895,411,219,186,203,26232,22663,13691,11505,333,193,3295,10894,24981,42853,31391,31913,33915,39524,3293,7865,34139,35463,34283,35955,28321,16674
456,5054,205,158,157,154,156,154,11327,39170,785,174,165,159,160,158,3765,28502,558,198,169,162,159,159,25809,58623,1025,343,227,220,217,210,203,265,32415,37351,18092,14015,410,221,185,207,26197,22657,13697,11533,333,195,3292,10906,24879,42753,31354,31907,33938,39567,3300,7900,33902,35297,34340,36049,28329,16684
456,5059,207,157,156,157,155,152,11551,39950,811,172,160,159,157,156,3775,28602,565,200,166,162,162,158,24728,56892,1010,344,226,221,212,211,202,264,32639,37609,18207,14115,411,224,186,204,26244,22715,13748,11581,340,203,3293,10920,24836,42763,31377,31953,33973,39627,3305,7942,33879,35333,34330,36069,28348,16701
453,5069,204,156,155,155,154,154,11601,40029,800,172,163,159,156,156,3759,28468,557,197,165,161,160,162,24696,56931,997,348,225,221,215,210,210,268,32799,37846,18287,14187,417,222,188,208,26311,22785,13777,11610,334,197,3295,10937,24834,42825,31421,32022,34014,39689,3311,7970,34009,35497,34271,36043,28369,16722
455,5093,210,157,155,157,155,153,11508,39761,804,174,163,160,153,156,3749,28383,559,198,167,160,159,159,24621,56795,1002,351,225,220,217,211,198,265,32975,38125,18305,14213,415,222,186,206,26387,22873,13753,11600,333,196,3293,10968,24910,43015,31479,32091,34051,39754,3313,7996,34084,35599,34247,36081,28393,16740
461,5103,209,157,153,155,154,155,11489,39711,796,171,159,157,157,156,3627,27390,541,197,162,160,163,157,24519,56783,1000,351,226,218,214,214,202,267,33097,38171,18287,14143,414,220,185,207,26446,22892,13731,11555,333,193,3292,10988,24972,43123,31493,32061,34039,39687,3319,8011,34197,35715,34207,35963,28401,16738
456,5073,209,155,153,157,156,154,11464,39493,801,176,165,159,158,159,3510,26599,532,197,166,162,163,158,24787,57156,1015,351,226,219,215,212,202,264,32794,37633,18183,14003,411,220,184,203,26278,22635,13661,11449,330,195,3283,10891,24913,42888,31439,31916,34007,39611,3300,7913,34141,35545,34085,35736,28383,16713
456,5062,205,159,155,154,154,153,11461,39465,791,171,171,154,160,155,3512,26665,527,196,163,161,160,158,25487,58795,1029,360,225,219,217,213,200,262,32755,37542,18156,13975,411,219,185,203,26235,22561,13618,11402,331,194,3273,10849,24901,42843,31427,31893,33998,39585,3294,7863,34149,35517,34038,35649,28371,16703
456,5063,206,161,157,158,156,152,11456,39398,796,170,162,160,152,159,3550,26931,537,198,164,155,163,158,26039,59687,1051,361,227,221,217,214,198,262,32685,37438,18199,13997,411,223,183,203,26169,22477,13615,11394,332,196,3276,10839,24869,42757,31458,31903,33989,39568,3287,7833,34127,35463,34017,35610,28351,16687
455,5062,205,156,156,155,155,155,11415,39267,788,172,161,158,155,157,3637,27682,545,199,166,161,154,160,26285,60170,1047,357,227,222,219,212,199,263,32730,37507,18239,14031,411,218,183,203,26147,22473,13606,11389,337,195,3282,10855,24873,42761,31481,31930,33989,39562,3292,7835,34132,35474,34012,35623,28351,16687
454,5063,206,155,154,154,153,157,11366,39072,791,171,163,162,158,162,3745,28376,562,199,161,163,156,161,26415,60375,1059,359,233,222,218,209,201,265,32722,37502,18266,14053,412,217,187,203,26133,22471,13595,11384,332,192,3283,10864,24844,42714,31483,31947,33977,39557,3293,7838,34111,35438,34001,35615,28340,16683
457,5065,204,157,158,156,154,157,11316,38919,782,171,163,159,155,157,3805,28794,567,200,168,162,163,158,26399,60333,1051,358,229,223,214,217,203,265,32757,37559,18290,14084,410,220,184,205,26144,22488,13594,11398,329,195,3283,10872,24838,42714,31503,31983,33980,39577,3297,7841,34088,35433,33987,35639,28344,16689
459,5070,207,157,155,154,153,152,11292,38853,787,171,163,161,155,153,3832,28980,570,200,161,162,160,159,26377,60331,1058,360,229,226,211,215,203,266,32820,37698,18311,14123,410,223,185,204,26192,22547,13602,11414,331,197,3287,10895,24849,42779,31510,32026,33993,39603,3303,7867,34124,35505,33979,35667,28356,16695
455,5078,208,156,154,153,157,156,11285,38869,783,172,162,156,157,157,3843,29049,568,200,162,161,150,160,26405,60403,1055,361,228,225,219,219,203,266,32900,37837,18334,14160,413,222,186,204,26243,22615,13610,11433,331,197,3291,10916,24867,42850,31535,32069,34009,39645,3307,7892,34179,35579,33971,35707,28367,16712
455,5083,205,158,156,153,153,153,11293,38955,790,169,161,163,157,156,3846,29052,571,204,169,162,163,163,26434,60461,1061,360,228,216,220,217,202,264,32963,37959,18363,14203,415,225,188,203,26281,22673,13619,11454,331,197,3290,10943,24889,42920,31565,32131,34030,39679,3314,7916,34198,35628,33968,35745,28376,16722
457,5090,203,157,153,153,157,152,11316,39035,783,171,162,160,157,160,3837,29043,567,200,163,175,158,160,26413,60469,1052,363,230,220,220,219,204,265,33037,38099,18402,14252,415,223,186,204,26327,22732,13631,11478,333,196,3293,10965,24908,42991,31607,32197,34048,39722,3322,7939,34229,35685,33981,35806,28391,16737
456,5098,207,156,158,153,156,155,11307,39050,791,173,161,163,158,157,3835,29078,575,200,163,161,162,161,26460,60603,1063,364,225,225,222,218,207,266,33113,38247,18436,14301,418,223,183,206,26375,22796,13642,11503,336,196,3293,10988,24933,43080,31649,32277,34056,39758,3322,7963,34240,35732,34001,35864,28405,16751
457,5093,207,157,156,158,157,156,11306,39021,786,172,161,161,157,156,3847,29175,570,201,166,165,159,158,26462,60595,1055,361,223,225,221,218,202,267,33017,37991,18391,14184,415,221,186,205,26330,22696,13613,11431,333,199,3297,10989,24926,43022,31617,32151,34030,39657,3321,7955,34249,35690,33959,35693,28402,16735
456,5071,205,155,153,155,154,153,11282,38851,787,174,163,161,160,157,3872,29253,575,201,166,165,156,170,26450,60433,1059,358,231,225,220,214,204,263,32778,37615,18305,14091,413,221,185,205,26198,22513,13549,11356,331,195,3286,10905,24881,42865,31570,32047,34003,39610,3305,7867,34200,35562,33888,35562,28383,16717
458,5065,205,157,157,155,155,153,11281,38835,780,174,163,161,157,153,3882,29341,573,200,166,165,160,163,26360,60264,1050,355,231,225,221,215,203,265,32742,37555,18284,14069,412,220,185,203,26157,22461,13518,11321,331,195,3284,10882,24888,42849,31556,32019,33998,39583,3298,7839,34173,35509,33872,35516,28372,16702
455,5062,204,160,158,155,157,154,11279,38805,787,171,161,161,156,156,3898,29416,577,201,164,165,164,165,26295,60100,1057,363,231,227,216,216,202,262,32707,37519,18273,14071,411,220,184,204,26123,22433,13498,11309,329,194,3285,10874,24893,42844,31541,32010,34000,39589,3295,7829,34155,35483,33854,35505,28365,16698
454,5066,204,159,157,154,154,154,11280,38833,780,173,166,155,160,155,3903,29443,573,200,169,160,161,166,26265,60065,1041,366,231,229,221,215,202,263,32701,37531,18229,14035,414,221,187,203,26145,22462,13477,11296,331,195,3288,10883,24911,42879,31539,32012,33994,39587,3304,7839,34191,35529,33842,35501,28365,16694
456,5062,205,157,155,155,154,153,11281,38825,787,172,162,157,161,160,3908,29474,579,203,168,164,161,160,26238,59990,1050,362,230,222,220,215,202,265,32665,37523,18217,14034,412,222,186,202,26146,22469,13461,11287,330,193,3290,10889,24943,42945,31526,32003,34005,39596,3303,7841,34193,35525,33829,35496,28355,16695
455,5065,209,158,155,156,155,154,11292,38897,782,174,162,163,157,158,3916,29562,576,203,167,166,161,165,26151,59855,1046,363,232,223,221,218,202,262,32733,37637,18236,14063,414,223,189,203,26171,22501,13456,11294,329,195,3293,10903,24978,43018,31523,32018,34014,39625,3307,7851,34195,35547,33814,35519,28359,16702
454,5071,208,158,155,152,157,158,11304,38957,789,170,161,163,157,155,3922,29609,580,201,167,157,165,163,26153,59904,1056,364,231,225,220,218,202,260,32800,37759,18247,14095,413,219,185,202,26213,22565,13454,11308,331,195,3291,10923,25014,43118,31526,32047,34033,39663,3315,7879,34241,35619,33807,35545,28372,16713
454,5079,205,155,154,158,153,157,11314,39022,783,171,159,163,156,157,3928,29654,578,202,165,167,162,159,26162,59993,1049,363,229,224,219,216,204,265,32873,37891,18273,14134,413,221,185,204,26253,22620,13455,11328,331,197,3295,10953,25049,43207,31527,32073,34052,39700,3318,7902,34278,35693,33803,35591,28387,16725
455,5086,211,157,158,154,156,152,11325,39067,792,166,160,162,155,157,3927,29681,583,202,166,151,161,158,26164,60055,1058,360,230,226,223,216,198,267,32926,38002,18299,14174,415,224,185,207,26273,22662,13489,11363,331,198,3301,10980,25060,43267,31561,32140,34067,39735,3323,7934,34395,35881,33843,35664,28435,16749
455,5089,205,157,158,153,153,153,11297,39006,785,171,164,155,161,160,3911,29575,577,201,169,160,159,160,26343,60503,1057,356,230,228,222,209,202,268,32839,38007,18131,14071,415,219,186,207,26285,22688,13472,11355,332,195,3299,10999,25147,43520,31606,32209,34075,39758,3337,7979,34570,36111,33902,35737,28469,16771
455,5082,206,156,157,155,154,154,11273,38905,787,166,161,164,161,161,3900,29474,580,202,167,162,159,160,26523,60756,1067,358,232,226,221,211,204,270,32575,37591,18055,13941,412,219,185,206,26152,22507,13425,11270,329,194,3300,10993,25245,43507,31540,32055,34031,39651,3337,7957,34559,36008,33819,35523,28458,16745
454,5069,203,158,154,153,156,155,11258,38779,778,172,163,158,159,156,3905,29500,575,201,167,162,158,160,26509,60567,1054,361,230,227,217,223,204,264,32439,37336,18054,13923,408,222,187,205,25982,22304,13380,11214,328,196,3294,10921,25151,43271,31502,31974,34016,39620,3317,7871,34410,35819,33723,35381,28435,16728
457,5063,207,157,158,153,153,154,11271,38816,789,171,163,163,158,160,3918,29561,582,203,165,162,157,160,26463,60514,1061,357,231,227,212,220,203,265,32407,37263,18031,13893,407,223,187,205,25910,22239,13343,11176,329,194,3290,10895,25108,43190,31475,31934,33998,39590,3309,7851,34367,35780,33679,35309,28426,16714
454,5057,205,155,155,158,157,154,11267,38789,780,171,162,162,158,159,3921,29571,576,200,172,167,157,161,26443,60419,1052,359,232,221,220,217,201,266,32430,37290,18029,13902,409,221,187,203,25863,22216,13319,11165,329,195,3292,10890,25102,43180,31459,31921,34013,39603,3314,7845,34359,35771,33627,35275,28427,16711
455,5059,209,156,157,153,154,155,11281,38835,787,174,161,163,161,153,3931,29642,581,203,166,162,160,161,26387,60318,1060,356,232,210,221,222,202,263,32461,37321,18027,13898,410,221,187,203,25838,22195,13296,11146,329,194,3293,10900,25097,43167,31429,31891,34007,39599,3314,7857,34360,35787,33566,35220,28422,16708
455,5061,206,157,156,154,153,153,11278,38840,782,172,162,156,156,155,3937,29691,580,201,160,162,160,160,26355,60254,1051,359,230,227,223,225,202,269,32505,37349,18059,13932,410,223,186,204,25793,22160,13284,11141,330,197,3295,10903,25059,43119,31407,31868,34019,39614,3313,7856,34349,35789,33502,35170,28417,16702
455,5066,206,156,157,153,154,153,11292,38911,789,168,162,162,159,159,3947,29803,584,205,165,162,160,155,26260,60099,1057,356,224,226,222,220,201,265,32606,37492,18100,13984,412,222,186,205,25765,22162,13269,11145,328,194,3293,10914,25049,43150,31394,31877,34035,39644,3314,7869,34342,35818,33489,35189,28423,16709
455,5075,205,155,156,157,154,153,11303,38999,783,168,159,160,157,157,3964,29911,584,201,164,160,160,161,26196,59995,1046,356,229,228,223,213,203,267,32747,37682,18158,14042,413,221,191,204,25781,22201,13277,11161,331,195,3299,10939,25055,43195,31384,31889,34051,39677,3319,7891,34347,35853,33481,35230,28430,16719
457,5083,207,157,155,155,152,153,11318,39058,792,169,162,157,157,157,3968,29969,587,197,165,166,156,164,26175,60007,1056,348,232,234,222,216,205,267,32855,37839,18199,14089,417,220,188,204,25792,22239,13291,11183,331,196,3299,10961,25059,43237,31380,31910,34060,39717,3325,7911,34377,35909,33485,35266,28444,16732
455,5088,205,157,154,155,157,153,11315,39081,786,171,162,163,158,157,3974,30017,584,202,166,166,162,164,26207,60113,1049,345,233,231,224,218,198,268,32955,37990,18215,14124,415,222,191,208,25822,22279,13279,11192,331,195,3303,10985,25079,43310,31393,31946,34077,39750,3325,7931,34392,35951,33487,35311,28447,16743
456,5095,206,156,154,155,155,153,11317,39126,792,171,163,159,155,158,3977,30070,588,205,167,166,161,158,26179,60121,1051,357,232,226,221,219,203,266,33029,38150,18234,14151,413,222,187,211,25858,22343,13275,11202,329,197,3303,11009,25111,43397,31406,31983,34096,39791,3330,7950,34371,35970,33485,35357,28464,16757
455,5099,206,158,154,153,154,153,11274,38983,783,173,163,155,156,159,3979,30099,585,202,167,161,164,165,26098,59889,1037,361,234,233,217,216,207,266,33007,38037,18198,14070,411,222,187,205,25840,22297,13254,11153,329,195,3306,11026,25107,43358,31353,31884,34071,39708,3334,7961,34444,36015,33467,35245,28461,16745
456,5075,206,156,154,153,155,154,11214,38698,786,175,159,162,159,161,3983,30034,589,203,170,163,159,161,25950,59468,1046,357,235,223,220,217,202,264,32714,37550,18082,13939,412,220,186,203,25668,22067,13187,11061,326,195,3296,10939,25046,43146,31270,31731,34034,39633,3314,7861,34362,35825,33358,35034,28434,16713
454,5066,207,159,155,154,154,154,11205,38645,780,170,160,161,156,157,3977,29986,585,206,168,165,163,160,25904,59351,1044,359,237,221,221,221,201,258,32673,37468,18049,13910,409,220,187,203,25630,22012,13153,11023,327,195,3292,10899,25029,43076,31233,31663,34018,39599,3311,7826,34331,35783,33302,34956,28421,16702
454,5059,208,157,155,153,154,153,11169,38507,783,169,162,163,160,157,3965,29894,586,203,166,162,161,162,25924,59329,1049,357,230,226,222,218,202,260,32641,37419,18009,13885,408,219,186,203,25591,21980,13123,11001,326,199,3286,10884,24999,43009,31193,31633,34007,39591,3308,7811,34348,35779,33239,34887,28406,16687
456,5057,206,158,153,154,154,153,11161,38517,776,174,164,156,155,157,3960,29885,583,202,169,159,165,158,25830,59159,1039,357,231,229,221,218,199,263,32681,37482,17991,13878,408,221,185,201,25600,21993,13100,10985,327,195,3286,10887,25012,43044,31173,31611,34005,39588,3310,7822,34350,35783,33191,34853,28396,16681
454,5056,211,157,155,154,157,155,11174,38551,781,173,163,154,155,154,3965,29930,587,202,169,166,163,161,25707,58883,1043,361,230,225,223,219,198,264,32679,37480,17987,13870,409,219,186,207,25580,21982,13077,10966,326,194,3285,10890,25034,43075,31172,31599,34010,39589,3309,7815,34320,35751,33151,34816,28383,16676
453,5059,205,157,155,155,153,153,11190,38637,775,171,161,159,161,160,3977,29986,583,201,167,162,161,162,25574,58651,1032,352,231,226,221,207,205,264,32732,37569,17987,13893,410,217,187,206,25591,22006,13065,10971,325,194,3287,10894,25071,43141,31179,31619,34020,39615,3310,7821,34311,35758,33130,34819,28383,16676
453,5064,205,156,157,153,152,153,11199,38682,784,171,162,163,159,157,3974,29995,586,202,164,162,157,158,25580,58699,1039,354,231,227,222,216,203,264,32808,37709,17994,13917,411,221,190,206,25629,22063,13058,10977,327,194,3288,10914,25111,43239,31175,31649,34033,39639,3317,7846,34395,35872,33119,34843,28388,16683
456,5070,211,157,155,155,155,153,11202,38720,779,171,162,162,158,155,3972,30001,584,203,166,164,160,164,25641,58874,1031,355,231,227,215,220,205,265,32879,37847,17992,13935,409,222,187,204,25670,22125,13048,10982,326,196,3291,10937,25145,43339,31191,31688,34050,39681,3321,7870,34447,35939,33103,34878,28396,16697
454,5078,205,160,156,154,154,155,11220,38795,788,170,162,158,158,156,3975,30020,587,203,166,165,160,164,25658,58937,1041,358,231,226,213,220,198,266,32928,37965,17995,13956,409,223,190,207,25713,22191,13041,10989,324,197,3292,10962,25175,43437,31216,31726,34071,39722,3325,7889,34481,35995,33084,34897,28403,16710
454,5087,208,158,154,157,153,155,11232,38879,783,171,162,162,161,157,3979,30073,585,203,166,164,160,160,25658,58974,1036,356,230,220,221,223,202,266,33011,38111,18005,13985,413,223,188,205,25778,22263,13037,10999,327,197,3297,10987,25233,43558,31239,31779,34102,39769,3331,7912,34543,36079,33071,34924,28411,16724
454,5097,207,156,156,156,157,155,11258,39015,790,173,159,159,157,154,3985,30141,591,203,171,161,165,161,25642,59001,1042,357,231,214,223,223,206,266,33087,38267,18019,14012,414,223,187,205,25829,22338,13034,11012,330,195,3295,11012,25267,43667,31264,31836,34116,39805,3330,7935,34587,36145,33082,34983,28429,16739
455,5097,204,153,156,153,155,154,11275,39030,786,170,166,157,159,157,3986,30140,587,201,170,162,163,162,25667,59017,1038,357,228,226,221,221,203,265,32975,37979,17958,13896,411,223,186,209,25794,22247,12994,10937,326,196,3299,11025,25251,43570,31217,31708,34072,39691,3334,7931,34609,36099,33023,34795,28415,16717
455,5074,206,155,156,156,153,153,11254,38873,785,169,164,159,158,162,3982,30051,589,204,166,161,162,160,25643,58857,1042,355,223,234,222,220,201,265,32703,37535,17854,13787,413,221,185,206,25656,22057,12926,10858,326,195,3287,10928,25175,43356,31158,31591,34034,39627,3311,7835,34544,35960,32923,34622,28394,16694
455,5069,206,157,157,154,148,153,11255,38849,781,171,163,155,160,153,3976,29997,585,202,166,159,161,162,25650,58831,1033,356,228,231,222,209,207,263,32643,37448,17799,13746,408,218,189,202,25635,22022,12886,10817,324,193,3284,10899,25157,43291,31135,31559,34021,39593,3310,7812,34561,35939,32896,34570,28383,16683
