 ECG Channel 
-579.468975
-453.8745229
-487.3797878
-376.023397
-522.2038057
-492.3865786
-450.4323543
-354.8339432
-352.0176234
-332.9068819
-288.2928
-89.54108829
-240.6388808
-123.0016497
-182.278476
-146.8286093
-144.9063593
-105.0531989
-96.98421919
-95.50900406
-123.2028154
-169.7614991
-518.9851545
-232.1005144
-424.481979
-342.0263937
-566.6614254
-587.1132716
-603.2288794
-651.5309991
-686.5785344
-693.5522787
-691.2947525
-715.0546569
-733.763067
-721.2907936
-700.4589677
-714.1829388
-742.9496339
-734.1877501
-713.8253109
-717.6027557
-743.4413723
-742.7037648
-726.1858256
-717.1557208
-733.1595699
-731.1479129
-716.2616511
-711.1654533
-729.6279943
-737.696974
-733.8301222
-703.8340812
-719.9273372
-726.4093431
-710.9195841
-704.8175579
-721.2684418
-705.9351451
-707.4997672
-730.0303257
-732.4666658
-714.3841045
-721.3131453
-747.9787765
-744.4024973
-723.3918576
-722.6318982
-752.7844015
-759.3781661
-739.5968723
-734.545378
-741.3626601
-754.4607823
-761.4345266
187500.0224
-607.810987
-589.706074
-581.2347628
-586.3533123
-590.0189984
-587.0015129
-587.4708995
-614.1141789
-635.3706879
-653.4085457
-681.9517233
-727.5939855
-776.2537332
-811.2789167
-847.6675567
-891.991066
-935.7110781
-967.9869971
-989.1764509
-1020.670059
-1044.407611
-1056.276388
-1062.020786
-1075.476536
-1096.554231
-1099.10233
-1091.346275
-1098.431778
-1109.294726
-1110.412313
-1102.857423
-1102.81272
-1117.654278
-1124.538615
-1119.844749
-1110.63583
-1112.513377
-1113.250984
-1102.075112
-1093.424987
-1090.273391
-1078.046987
-1067.161687
-1067.161687
-1085.758339
-1096.934211
-1088.127624
-1075.476536
-1076.348254
-1089.066397
-1088.373493
-1079.253981
-1076.080033
-1084.193717
-1095.77192
-1097.358894
-1107.640696
-1122.214034
-1130.1042
-1123.689249
-1117.050781
-1121.923461
-1132.182912
-1130.61829
-1124.002173
-1131.668822
-1142.576473
-1141.213017
-1136.51915
-1141.548293
-1153.975863
-1158.759136
-1155.495781
-1158.826191
-1166.872819
-1168.102165
-1159.630854
-1155.831058
-1164.771755
-1173.28777
-1164.078851
-1161.150773
-1170.493802
-1178.741596
-1170.47145
-1160.100241
-1162.581284
-1167.029282
-1163.989444
-1157.90977
-1163.117726
-1171.343168
-1172.281941
-1169.309159
-1168.370386
-1174.450061
-1175.679407
-1171.521982
-1172.751328
-1181.803785
-1184.150718
-1173.935971
-1171.633741
-1177.691064
-1174.651226
-1152.880627
-1137.949662
-1142.196493
-1143.358784
-1137.010889
-1123.465732
-1120.403543
-1122.303441
-1124.024525
-1127.086714
-1137.055592
-1152.455944
-1159.474392
-1156.658072
-1167.096337
-1189.716302
-1202.814424
-1207.687105
-1207.843567
-1218.25948
-1227.691916
-1221.656945
-1216.024305
-1222.327497
-1231.067029
-1223.914471
-1212.202157
-1217.521872
-1221.20991
-1212.202157
-1203.060294
-1204.893137
-1211.822177
-1209.631706
-1207.307125
-1213.587965
-1206.703628
-1139.268415
-977.8888199
-747.1741137
-462.3681858
-178.3892725
15.98149729
69.98331189
36.14277078
-155.3222722
-552.6021782
-1095.079016
-1509.860338
-1525.931242
-1392.088996
-1270.4061
-1172.483107
-1121.901109
-1099.661124
-1089.424025
-1092.3074
-1102.56685
-1102.186871
-1091.390978
-1093.46969
-1100.6446
-1093.916725
-1081.332693
-1078.494022
-1086.808871
-1082.673798
-1063.674815
-1053.705937
-1058.600969
-1055.292911
-1037.85855
-1029.811922
-1032.628242
-1027.263823
-1009.494187
-997.647762
-1001.000524
-1001.872242
-985.3766543
-964.5448285
-959.7392034
-957.0569941
-943.1765608
-922.9705838
-916.7120953
-916.7791506
-901.5799643
-877.1495077
-867.1135744
-857.2564551
-831.7084112
-806.8532713
-793.2187072
-781.1487652
-762.4627069
-729.8738634
-703.5211567
-686.3997205
-668.2724557
-639.5057606
-618.4504173
-613.0412952
-605.3299433
-587.426196
-564.8956376
-556.1784573
-558.3689282
-547.7294979
-528.7081633
-532.6197186
-547.3048147
-563.3310155
-580.6983209
-618.3833621
-667.0878133
-712.6630202
-747.7329073
-793.7775008
-846.6617282
-886.827813
-912.4429122
-944.1600375
-986.449538
-1018.032553
-1036.919777
-1053.348309
-1077.085862
-1094.944906
-1099.728179
-1102.633906
-1110.233499
-1107.394827
-1100.465787
-1097.336542
-1098.543536
-1106.880737
-1107.081903
-1099.974048
-1101.315153
-1112.580432
-1112.625135
-1100.845766
-1101.225746
-1109.831167
-1111.820473
-1099.348199
-1096.218955
-1105.360819
-1111.686362
-1103.505624
-1097.828281
-1105.003191
-1115.419104
-1109.831167
-1101.382208
-1111.90988
-1122.705772
-1118.928327
-1106.65722
-1107.752455
-1117.654278
-1116.894319
-1110.255851
-1113.161577
-1127.93608
-1132.697002
-1123.622194
-1128.539578
-1142.66588
-1148.723203
-1148.544389
-1147.203284
-1153.819401
-1158.133287
-1147.672671
-1141.905921
-1144.878703
-1155.428726
-1156.568665
-1154.825229
-1160.927255
-1169.510325
-1166.448136
-1153.260607
-1157.39568
-1169.420918
-1168.795069
-1163.67652
-1167.565723
-1174.271247
-1167.118688
-1158.535619
-1163.855334
-1172.438404
-1166.403433
-1163.855334
-1163.877686
-1165.352901
-1174.897096
-1176.886401
-1169.912657
-1177.065215
-1181.021474
-1172.997197
-1160.99431
-1160.591979
-1169.197401
-1169.979712
-1161.687215
-1163.654168
-1169.331511
-1167.118688
-1159.07206
-1161.575456
-1171.454927
-1174.494764
-1169.532677
-1179.680369
-1185.804747
-1180.708549
-1173.377177
-1173.623046
-1186.899982
-1193.314933
-1183.390758
-1184.217773
-1196.22066
-1195.348942
-1182.00495
-1170.583209
-1176.215848
-1187.749349
-1195.058369
-1189.515136
-1196.578288
-1208.067084
-1199.126387
-1185.268305
-1179.099224
-1174.897096
-1156.076927
-1140.587168
-1128.047839
-1123.845711
-1122.817531
-1124.315098
-1130.1042
-1149.103182
-1160.435517
-1146.89036
-1142.420011
-1160.703738
-1185.044788
-1202.12152
-1203.261459
-1207.418884
-1216.694858
-1215.219643
-1205.563689
-1214.817311
-1227.893082
-1231.447009
-1223.579195
-1219.421771
-1228.362468
-1225.121465
-1224.853244
-1231.156436
-1247.339099
-1252.837628
-1237.705497
-1219.66764
-1224.942651
-1233.570425
-1223.825064
-1213.543262
-1173.28777
-1032.494132
-795.6550474
-495.4711193
-221.2822701
-40.25549176
22.23998573
27.89497708
-134.4010394
-521.9802883
-1059.048004
-1474.075195
-1511.223794
-1397.38636
-1282.565449
-1167.431613
-1110.12174
-1107.908917
-1112.848653
-1108.110083
-1104.824377
-1105.718446
-1106.098426
-1092.016827
-1085.199545
-1092.620324
-1086.138318
-1071.699091
-1058.48921
-1062.57958
-1067.318149
-1079.633961
-1082.226763
-1068.48044
-1057.773955
-1045.636957
-1029.498998
-1024.894539
-1020.021858
-1013.405742
-1000.285268
-1000.709951
-999.2570876
-984.8849159
-963.6731104
-955.1570958
-953.212494
-942.4166015
-920.5565954
-911.0794557
-903.3457522
-892.0357695
-870.3545773
-852.5849405
-843.3089666
-830.2778995
-803.9028411
-780.6793786
-765.7037098
-738.9933752
-710.3831423
-688.1655083
-665.6125981
-637.5164554
-612.7507225
-591.3824548
-573.5681145
-560.492344
-543.5497217
-522.3826197
-503.8306718
-501.9978287
-496.8569275
-485.0775582
-487.0668634
-506.088198
-530.4963029
-543.1250385
-562.3028353
-610.5826033
-658.5941504
-699.4978427
-746.4365061
-793.6880939
-838.9280246
-882.7374438
-910.6324209
-938.8179706
-972.4796978
-991.9927707
-1001.961649
-1016.33382
-1035.601024
-1047.223931
-1057.595141
-1063.875981
-1075.185964
-1078.002283
-1067.876943
-1063.294835
-1069.575676
-1078.248153
-1088.529955
-1083.053778
-1081.824432
-1080.036292
-1073.21901
-1078.404615
-1086.697112
-1081.355045
-1066.714652
-1044.474667
-1042.954748
-1045.92753
-1049.324995
-1053.348309
-1057.438678
-1060.880847
-1067.139336
-1064.25596
-1066.245266
-1074.671873
-1080.080996
-1075.856516
-1081.779728
-1096.040141
-1104.332638
-1105.629039
-1101.337505
-1104.757321
-1107.059551
-1104.936135
-1104.243231
-1111.306383
-1122.348144
-1126.930252
-1126.2597
-1131.691174
-1145.079868
-1148.969072
-1139.983671
-1137.390868
-1153.774697
-1163.341244
-1162.491877
-1154.445249
-1164.950569
-1171.36552
-1168.079813
-1166.917523
-1177.176973
-1184.664808
-1179.300389
-1170.449098
-1176.819346
-1188.442253
-1184.217773
-1174.986503
-1176.685235
-1184.731863
-1182.027302
-1171.231409
-1169.756194
-1183.524869
-1187.615238
-1181.244991
-1184.955381
-1192.778491
-1188.263439
-1180.149755
-1180.373273
-1185.536526
-1188.576363
-1180.350921
-1178.138098
-1184.798918
-1192.286753
-1188.53166
-1178.361616
-1188.01757
-1198.522889
-1194.410168
-1184.798918
-1184.955381
-1191.638552
-1191.750311
-1186.296485
-1188.174032
-1200.378084
-1202.479148
-1192.778491
-1188.755177
-1196.377122
-1195.170128
-1189.872764
-1188.330494
-1198.165262
-1202.814424
-1195.728921
-1187.950514
-1191.705607
-1194.477224
-1192.286753
-1188.062273
-1195.4607
-1208.13414
-1204.826081
-1180.797956
-1165.889343
-1157.574494
-1143.090563
-1123.912766
-1108.378304
-1119.353011
-1124.672726
-1124.203339
-1133.658127
-1157.663901
-1164.727052
-1158.334453
-1158.245046
-1183.614276
-1205.809558
-1209.251727
-1213.230337
-1223.847416
-1233.235149
-1227.624861
-1218.751218
-1219.131198
-1219.66764
-1215.934898
-1212.380971
-1218.639459
-1227.177826
-1225.456742
-1215.018477
-1215.733733
-1223.556843
-1218.125369
-1209.139968
-1216.314878
-1224.54032
-1215.152587
-1186.855279
-1116.156711
-998.6535905
-806.2274225
-548.3776985
-260.6213403
-5.364418669
83.19319286
60.99791062
-38.19913127
-363.5511236
-911.8170633
-1420.632174
-1540.25871
-1425.102523
-1325.950185
-1239.985375
-1165.397604
-1130.640642
-1124.583319
-1124.359801
-1114.279165
-1115.217938
-1118.615403
-1119.420066
-1109.942926
-1102.745664
-1107.417179
-1104.086769
-1088.060568
-1076.996455
-1079.008112
-1082.673798
-1073.062548
-1060.813792
-1056.097574
-1055.449373
-1053.169495
-1039.333765
-1030.214254
-1032.203559
-1021.340611
-1007.348419
-1001.492262
-999.7041225
-994.8984975
-977.3523781
-964.9024564
-961.5720465
-959.8286104
-945.0764591
-927.4409327
-919.6178221
-916.0862465
-899.948287
-880.882249
-869.3487488
-854.0601556
-828.8026844
-805.5121667
-789.1506897
-777.930114
-757.6794335
-724.6212035
-704.8175579
-694.0887206
-674.7991651
-647.6864991
-634.8118943
-629.0004407
-624.865368
-606.8051585
-596.433949
-601.6642572
-602.9159549
-594.511699
-595.472824
-612.6836673
-635.9518332
-658.4376882
-689.3948542
-738.9486717
-790.9388293
-826.9921931
-855.423612
-900.037694
-948.228055
-980.503974
-999.92764
-1023.620489
-1051.582521
-1068.86042
-1075.811812
-1091.748606
-1111.038162
-1120.314136
-1118.5707
-1117.944851
-1126.326755
-1131.735877
-1127.712563
-1125.030354
-1133.211092
-1138.351993
-1124.672726
-1108.445359
-1112.580432
-1116.91667
-1108.154787
-1097.671818
-1099.325848
-1104.913784
-1103.527976
-1094.475519
-1094.319057
-1107.283069
-1109.808816
-1099.906993
-1098.72235
-1111.01581
-1116.290822
-1109.786464
-1108.802987
-1117.29665
-1122.526958
-1121.498778
-1120.045915
-1126.371458
-1134.015755
-1130.662993
-1124.426857
-1134.820418
-1142.442363
-1138.843732
-1133.322851
-1142.352956
-1154.825229
-1155.451078
-1143.582302
-1145.571607
-1155.629892
-1153.260607
-1146.622139
-1150.399584
-1163.67652
-1167.722186
-1157.574494
-1152.478296
-1163.430651
-1167.923351
-1161.307235
-1155.920465
-1161.866029
-1165.59877
-1159.228523
-1154.422898
-1158.55797
-1167.185744
-1163.274188
-1156.255741
-1159.45204
-1172.3937
-1173.712453
-1163.788279
-1169.398566
-1178.92041
-1179.635665
-1171.700796
-1171.834907
-1179.255686
-1180.932067
-1166.828116
-1160.636683
-1170.694968
-1174.762985
-1168.638607
-1166.425784
-1172.438404
-1182.608447
-1176.282904
-1168.638607
-1178.093395
-1187.458776
-1186.09532
-1182.00495
-1189.202212
-1197.315895
-1182.161412
-1157.14981
-1143.470543
-1144.409316
-1136.340336
-1126.39381
-1118.548348
-1118.794217
-1121.52113
-1120.716467
-1126.684383
-1141.213017
-1149.438459
-1144.833999
-1144.58813
-1161.24018
-1179.725072
-1187.190555
-1189.425729
-1200.691009
-1202.322686
-1197.494709
-1192.018532
-1196.399474
-1203.283811
-1199.752235
-1188.464604
-1190.297447
-1200.646305
-1200.400436
-1189.246915
-1187.659942
-1194.566631
-1203.864956
-1202.054465
-1199.372256
-1202.725017
-1186.698817
-1103.32681
-939.9579096
-719.592061
-448.9124356
-167.9510078
10.86294781
25.190416
-23.15640726
-207.8488717
-614.2706411
-1160.010834
-1531.899158
-1512.386085
-1367.435022
-1253.977567
-1162.715395
-1110.300554
-1083.612571
-1083.72433
-1090.787481
-1092.977952
-1088.261734
-1084.640751
-1084.841917
-1078.046987
-1060.41146
-1050.442582
-1051.269597
-1057.751603
-1048.766202
-1039.803152
-1038.573806
-1039.311414
-1024.02282
-1011.550547
-1012.444617
-1017.384352
-1011.148216
-998.5418318
-992.6856747
-992.2386399
-980.5486775
-964.2319041
-958.9568924
-955.8499999
-945.4564387
-921.8753483
-906.8773278
-904.3292289
-901.6693713
-881.6198566
-859.2681121
-846.3711555
-838.3021758
-809.6472394
-781.8863728
-766.5307244
-756.1818667
-733.1819216
-700.3025055
-682.1081855
-676.5202494
-657.05188
-620.8867575
-596.2998386
-584.6992832
-570.5953325
-545.7178409
-530.049268
-527.948204
-525.9588988
-513.4419219
-504.5459276
-508.9045178
-517.8005121
-526.7635616
-548.9141403
-587.60501
-631.950871
-676.0955663
-713.6688487
-758.5287998
-806.2050708
-847.8687224
-878.602371
-915.9297843
-955.4253167
-981.1968781
-994.0714829
-1016.847911
-1042.842989
-1055.53878
-1052.409536
-1054.532952
-1071.29676
-1079.075167
-1071.833202
-1068.592199
-1075.744757
-1081.80208
-1073.844859
-1063.831277
-1065.574713
-1070.670911
-1064.926513
-1059.048004
-1066.200562
-1069.709786
-1068.100461
-1062.981911
-1070.067414
-1077.488193
-1073.241362
-1067.765184
-1072.347292
-1078.449318
-1077.108214
-1071.520277
-1071.721443
-1083.72433
-1091.078054
-1077.622304
-1077.644655
-1087.457071
-1087.591182
-1080.460975
-1075.52124
-1085.087786
-1097.247135
-1094.296705
-1085.713635
-1092.732083
-1107.55129
-1109.630002
-1109.048856
-1115.486159
-1124.605671
-1124.98565
-1122.504607
-1127.109066
-1136.742668
-1144.722241
-1138.374345
-1140.989499
-1147.493857
-1151.606578
-1143.984633
-1140.676575
-1152.478296
-1154.624063
-1146.555084
-1144.722241
-1152.522999
-1162.938912
-1157.14981
-1148.991424
-1158.312101
-1169.420918
-1168.571552
-1160.8602
-1160.904904
-1169.912657
-1168.348034
-1161.106069
-1164.436479
-1172.460755
-1176.774642
-1170.47145
-1167.766889
-1178.696892
-1181.066177
-1172.103127
-1170.85143
-1177.758119
-1187.324665
-1174.986503
-1156.680424
-1145.012813
-1155.361671
-1168.973883
-1163.832982
-1165.531715
-1171.454927
-1172.818383
-1164.928218
-1164.458831
-1166.425784
-1165.73288
-1160.435517
-1163.877686
-1179.255686
-1184.68716
-1176.10409
-1169.95736
-1170.314988
-1159.787316
-1136.787371
-1117.140188
-1105.785502
-1111.060513
-1112.200452
-1091.972124
-1093.089711
-1117.16254
-1120.872929
-1117.073133
-1132.518188
-1148.097354
-1148.745555
-1145.057517
-1163.721223
-1186.810575
-1195.818328
-1192.174994
-1186.385892
-1196.287715
-1198.858166
-1195.728921
-1197.181785
-1205.094302
-1208.916451
-1201.160395
-1201.808596
-1209.654058
-1205.273116
-1198.701703
-1195.304238
-1198.14291
-1200.400436
-1190.856241
-1178.138098
-1158.535619
-1090.809833
-928.7820374
-690.1771653
-408.7463509
-158.8091444
-23.33522121
-6.325543681
-56.81813441
-282.0566633
-704.7281509
-1222.439256
-1541.085725
-1496.114015
-1366.987987
-1243.382841
-1141.794162
-1097.940039
-1081.690321
-1074.850687
-1072.012016
-1079.186926
-1082.852612
-1078.98576
-1068.055757
-1068.793365
-1077.108214
-1073.867211
-1060.165591
-1056.343443
-1059.807963
-1058.265693
-1044.13939
-1036.517446
-1037.947957
-1031.622414
-1016.043248
-1007.750751
-1013.539852
-1014.299812
-1000.709951
-988.9082299
-986.2483723
-983.0073694
-967.4058518
-948.2951103
-944.0035753
-939.4661712
-921.8306448
-905.8267958
-897.1543189
-894.5391648
-878.5353158
-847.2428736
-828.1991873
-818.7667511
-802.1147015
-772.6327506
-755.5783696
-743.7095933
-723.9953547
-689.1266333
-662.1927812
-649.9887288
-631.6826501
-608.6603533
-586.8226989
-575.6468267
-564.1803818
-543.4156112
-522.0696952
-517.4428841
-521.4214947
-512.8831283
-502.2213462
-515.2747649
-535.301928
-547.5730357
-566.1920388
-604.2570596
-659.6670341
-702.6941422
-735.5288548
-780.7911373
-833.5189025
-877.8647635
-906.8996795
-936.6051479
-970.8927239
-998.698294
-1016.065599
-1028.023783
-1051.448411
-1069.955655
-1070.067414
-1069.8886
-1079.455147
-1088.261734
-1089.49108
-1088.59701
-1095.973086
-1099.48231
-1095.838975
-1089.289914
-1090.765129
-1102.678609
-1101.829243
-1090.452205
-1086.987685
-1094.073188
-1100.063455
-1088.753472
-1078.203449
-1090.362798
-1096.733045
-1090.251039
-1082.360874
-1090.608667
-1095.727217
-1089.222859
-1083.254943
-1091.212164
-1097.940039
-1093.447339
-1089.468728
-1098.990571
-1110.322906
-1107.6854
-1100.331676
-1102.209223
-1112.133397
-1111.842824
-1103.46092
-1105.24906
-1121.744647
-1122.750476
-1117.184891
-1118.078961
-1128.226653
-1137.524979
-1135.11099
-1133.725182
-1142.352956
-1144.878703
-1142.263549
-1133.635775
-1136.89913
-1147.158581
-1142.799991
-1138.195531
-1143.805819
-1152.567703
-1151.316005
-1146.108049
-1151.047784
-1158.580322
-1158.55797
-1147.158581
-1144.543427
-1156.12163
-1156.903941
-1144.431668
-1139.424877
-1154.758174
-1162.089546
-1155.004043
-1148.834962
-1158.535619
-1164.503534
-1156.568665
-1148.790258
-1154.422898
-1164.57059
-1158.334453
-1151.964206
-1155.428726
-1157.082755
-1154.691119
-1151.561874
-1157.127459
-1167.208095
-1169.510325
-1160.234351
-1161.642511
-1168.303331
-1165.822287
-1154.19938
-1151.181895
-1160.077889
-1167.14104
-1163.229485
-1157.507438
-1168.370386
-1172.080776
-1168.504497
-1166.202267
-1177.221677
-1179.367444
-1166.872819
-1155.652244
-1163.453002
-1173.176011
-1175.07591
-1163.765927
-1163.16243
-1165.889343
-1157.060403
-1129.835979
-1110.725237
-1103.773845
-1089.602839
-1075.722405
-1076.661179
-1088.306438
-1100.13051
-1113.228633
-1117.900147
-1120.001211
-1125.052705
-1128.070191
-1130.707697
-1151.092488
-1172.818383
-1178.182802
-1175.768814
-1173.712453
-1182.787261
-1184.82127
-1174.360654
-1168.102165
-1173.019549
-1175.768814
-1169.845601
-1168.459793
-1176.014683
-1178.987465
-1165.889343
-1162.201305
-1172.348997
-1174.964151
-1169.44327
-1162.40247
-1165.73288
-1135.379211
-1026.123884
-833.6530129
-584.0957861
-305.1907188
-60.84144841
22.48585492
-16.22736647
-119.2242049
-403.5383944
-878.5576676
-1366.451546
-1522.846701
-1407.064665
-1280.419681
-1170.359691
-1098.901164
-1068.391033
-1050.487286
-1042.731231
-1051.381356
-1058.3551
-1046.016937
-1036.808018
-1041.256015
-1045.368736
-1036.942129
-1024.626318
-1019.641879
-1022.033515
-1013.808073
-1003.570974
-1003.660381
-1009.762408
-1003.012181
-991.4786805
-985.9577997
-984.6837502
-974.8489827
-959.5380377
-953.480715
-958.0851743
-955.8947034
-941.2543108
-928.111485
-927.3738775
-922.6129559
-904.9997813
-888.057159
-880.8598972
-876.6354175
-857.4799725
-829.5179402
-816.8892046
-810.8989371
-790.8494223
-762.7309278
-744.7377735
-733.2042734
-709.4667208
-676.9449326
-655.6660719
-645.4513246
-622.0043447
-590.8236612
-569.3883383
-557.7430794
-545.6284339
-524.103704
-506.8034538
-502.2884014
-498.0862734
-480.6519128
-467.6208457
-475.1980871
-485.7704622
-488.5644303
-499.2932676
-528.6187564
-568.6060272
-604.3241148
-637.6729176
-685.5503542
-742.1449711
-784.6356374
-815.7269139
-849.0533649
-884.5479351
-912.979354
-929.4525897
-942.7518776
-967.6293692
-984.7508055
-985.2425438
-992.4398056
-1011.036457
-1022.949937
-1013.785722
-1002.274573
-1008.309544
-1020.714762
-1020.468893
-1013.673963
-1018.680754
-1026.593271
-1020.826521
-1009.941221
-1010.879995
-1016.736152
-1016.825559
-1011.818768
-1011.84112
-1017.496111
-1017.406704
-1010.388256
-1012.064637
-1018.524291
-1027.174416
-1023.531082
-1019.977155
-1024.358097
-1027.867321
-1026.593271
-1025.185111
-1037.322108
-1045.301681
-1041.278367
-1036.338632
-1042.686527
-1052.543646
-1051.291949
-1044.742888
-1051.738984
-1064.747699
-1067.496963
-1061.283178
-1063.317187
-1075.253019
-1079.119871
-1074.314245
-1073.017844
-1077.085862
-1079.008112
-1070.380338
-1063.674815
-1073.420176
-1083.791385
-1083.299647
-1083.120833
-1090.608667
-1101.739836
-1100.108159
-1091.189813
-1089.714597
-1092.799138
-1095.324885
-1089.513432
-1096.420121
-1102.231574
-1096.330714
-1092.240345
-1099.549365
-1109.630002
-1113.385095
-1106.947792
-1103.349162
-1108.892394
-1112.289859
-1105.427874
-1100.331676
-1106.880737
-1111.574604
-1108.288897
-1102.320981
-1108.802987
-1119.330659
-1112.915708
-1104.019714
-1107.484234
-1114.077999
-1114.323868
-1100.264621
-1094.542574
-1103.416217
-1105.785502
-1096.196603
-1092.709731
-1100.108159
-1104.511452
-1094.788443
-1089.289914
-1097.537708
-1103.863252
-1096.308362
-1094.184946
-1103.371513
-1113.496854
-1099.437606
-1082.740853
-1072.369644
-1065.217086
-1048.430925
-1031.06362
-1034.304623
-1038.931434
-1035.981004
-1041.05485
-1057.013995
-1070.603856
-1078.270504
-1076.214144
-1077.890525
-1094.073188
-1111.641659
-1121.074095
-1124.024525
-1135.066287
-1139.246063
-1134.149865
-1133.926348
-1144.655185
-1147.40445
-1143.157618
-1134.663956
-1142.352956
-1148.186761
-1146.242159
-1136.161522
-1139.424877
-1147.516209
-1143.515246
-1127.109066
-1119.554176
-1113.787426
-1083.791385
-995.7925672
-853.7472312
-656.8954178
-412.0767608
-130.6682981
121.749952
170.5214584
60.46146875
-102.9968385
-421.5315487
-975.4524798
-1431.226901
-1477.606771
-1356.348557
-1260.392518
-1192.733788
-1118.101313
-1073.174307
-1058.73508
-1058.422155
-1051.470763
-1039.892559
-1035.80219
-1041.211312
-1045.03346
-1033.008222
-1024.849835
-1029.051963
-1026.816789
-1011.930527
-1003.123939
-1004.219175
-1001.71578
-989.4223201
-981.8227269
-980.1910496
-979.3416833
-972.0103111
-963.0025581
-959.2921685
-958.9568924
-950.4632295
-937.1639415
-933.3864967
-934.9958223
-924.7140199
-904.1057115
-897.2660777
-897.5119469
-889.1970979
-870.7792605
-852.6072922
-845.8794172
-834.6811932
-808.1720243
-789.7541868
-782.7804426
-774.3091314
-746.2353404
-720.8661104
-710.0702179
-696.8826886
-669.8370778
-643.0373362
-629.7380483
-621.1996819
-602.558327
-584.453414
-579.0219401
-570.9529604
-558.1007073
-541.0463263
-539.5040559
-550.1434863
-549.4952857
-552.356309
-568.8518964
-600.6137253
-630.4533041
-649.6758043
-682.5999239
-727.8398547
-768.8776575
-804.349876
-836.6034432
-879.0047024
-910.0736272
-929.6314036
-948.4515725
-973.3514158
-997.737169
-1006.364942
-1010.209442
-1019.440713
-1035.42221
-1037.456219
-1029.387239
-1031.108323
-1039.177303
-1034.818713
-1023.821655
-1022.592309
-1032.829408
-1030.102495
-1017.071428
-1009.382428
-1008.264841
-1013.137521
-1010.768236
-1005.068541
-1005.537928
-1004.777968
-1009.874166
-1006.655515
-1009.449483
-1018.412533
-1015.797379
-1010.790588
-1013.048114
-1026.436809
-1031.667117
-1025.341573
-1032.672946
-1048.788553
-1055.427021
-1056.164629
-1056.455202
-1067.943998
-1075.700054
-1068.905123
-1065.060623
-1072.123775
-1084.149013
-1082.115004
-1079.969237
-1087.859403
-1102.253926
-1104.600859
-1097.917688
-1104.064417
-1111.351086
-1109.786464
-1106.456054
-1113.206281
-1122.728124
-1118.391886
-1110.479368
-1109.384133
-1116.424932
-1116.089656
-1108.110083
-1106.27724
-1115.150883
-1116.335525
-1108.445359
-1105.740798
-1113.921537
-1120.895281
-1113.809778
-1106.210185
-1113.183929
-1123.979822
-1120.001211
-1115.642621
-1121.52113
-1130.014793
-1125.87972
-1119.867101
-1122.236386
-1131.042973
-1132.629947
-1125.432685
-1124.09158
-1136.452095
-1142.487066
-1136.675613
-1133.367554
-1130.305365
-1117.341354
-1103.013885
-1086.428891
-1094.475519
-1096.129548
-1080.170403
-1064.971216
-1074.068376
-1088.328789
-1083.34435
-1080.103347
-1095.101368
-1108.937098
-1115.910842
-1120.314136
-1133.300499
-1155.026395
-1158.781488
-1151.159543
-1151.070136
-1161.441345
-1164.503534
-1158.401508
-1158.222694
-1168.057462
-1168.906828
-1155.272264
-1152.65711
-1158.401508
-1161.642511
-1153.282959
-1145.012813
-1157.373328
-1163.542409
-1152.321834
-1132.987575
-1089.289914
-985.2872473
-787.5190124
-529.8928058
-259.5037531
-3.643334346
112.8539578
92.44681507
-12.00288677
-306.8670996
-809.8260534
-1317.992964
-1492.560088
-1397.296953
-1289.338027
-1186.877631
-1104.86908
-1074.493059
-1066.289969
-1057.863362
-1046.486324
-1049.950844
-1055.114097
-1047.358042
-1043.781763
-1049.034423
-1052.633053
-1042.574768
-1032.248262
-1035.176341
-1039.222007
-1030.124847
-1013.875128
-1007.683695
-1011.483492
-1002.341628
-981.8450787
-968.0093489
-972.9267327
-972.5020495
-956.6323109
-950.418526
-963.0025581
-966.7129477
-954.9335784
-935.5769677
-929.7878659
-922.4117902
-902.0717027
-883.0727199
-879.8764205
-876.7471763
-863.5372953
-839.9562049
-825.7628472
-813.2235185
-793.9563148
-764.2508464
-744.7601253
-731.3267268
-706.9409736
-672.6533976
-646.2112839
-634.0742867
-616.0364289
-593.5729258
-575.8479924
-565.1191551
-557.8101346
-540.4428292
-526.7412098
-529.7586953
-535.0560588
-532.3514977
-527.7023348
-542.5438932
-568.9860069
-591.717731
-615.1647109
-655.9566445
-708.4161888
-757.3665091
-793.5763351
-832.2225013
-879.4070338
-916.7791506
-933.1629793
-949.6809184
-983.2755903
-1006.364942
-1018.50194
-1029.990736
-1050.107306
-1064.50183
-1063.250132
-1060.724385
-1071.654388
-1082.115004
-1079.477498
-1067.876943
-1070.134469
-1079.49985
-1079.008112
-1070.067414
-1065.418251
-1067.921647
-1064.881809
-1057.32692
-1054.711766
-1054.063565
-1052.677757
-1044.027632
-1038.909082
-1043.066507
-1047.022766
-1041.233664
-1035.623376
-1042.865341
-1050.308472
-1046.531027
-1042.865341
-1051.582521
-1061.17142
-1057.997472
-1051.649577
-1056.656367
-1066.267617
-1064.680644
-1053.370661
-1056.499905
-1067.541667
-1074.962446
-1081.019769
-1090.072225
-1098.163557
-1097.627115
-1091.659199
-1092.352103
-1097.895336
-1096.442473
-1088.328789
-1082.293818
-1088.261734
-1099.057627
-1099.862289
-1097.135377
-1104.042066
-1112.602784
-1112.759246
-1105.606688
-1109.495891
-1114.793255
-1112.133397
-1103.125644
-1105.204356
-1113.027467
-1115.217938
-1106.992496
-1104.22088
-1115.083827
-1118.302479
-1106.388999
-1099.594068
-1111.351086
-1122.303441
-1120.023563
-1119.509473
-1127.824322
-1135.535674
-1124.09158
-1113.250984
-1102.633906
-1096.040141
-1084.081958
-1070.536801
-1069.799193
-1066.491135
-1054.912931
-1049.615568
-1059.427984
-1071.944961
-1080.036292
-1081.019769
-1089.446376
-1106.590164
-1117.922499
-1118.011906
-1125.700906
-1142.464714
-1152.232427
-1147.046822
-1142.352956
-1150.980729
-1161.441345
-1151.092488
-1144.163447
-1150.958377
-1160.591979
-1157.887418
-1149.818438
-1153.931159
-1159.809668
-1154.780526
-1145.4822
-1150.757212
-1165.665825
-1163.050671
-1116.894319
-1010.365905
-830.7249344
-573.2328383
-269.6514451
-24.45280843
69.06689037
64.14950659
-18.79781709
-297.6805327
-776.2984367
-1305.967725
-1517.549338
-1413.859596
-1287.70635
-1170.47145
-1079.768071
-1038.864379
-1035.80219
-1047.268635
-1047.4698
-1036.182169
-1034.438733
-1042.261844
-1037.277405
-1026.414457
-1026.19094
-1033.49996
-1029.297832
-1014.344515
-1007.48253
-1014.322163
-1013.159873
-1000.329971
-991.7245497
-991.0987009
-989.0199887
-976.9053432
-967.5399622
-968.9034186
-968.7916599
-953.9501016
-934.9734706
-929.5643484
-929.07261
-915.7956738
-896.2155457
-888.5488973
-884.3020659
-870.2204669
-846.3041003
-831.1272658
-824.9134809
-807.9708586
-780.031178
-756.4053841
-742.7037648
-727.3481163
-699.0731596
-671.4240517
-654.3026154
-632.8672925
-601.9548299
-573.6351697
-557.5419137
-540.0628495
-514.2018812
-489.5926105
-477.7014825
-473.7899272
-458.2331131
-440.3517175
-434.2496913
-440.1058483
-446.3196333
-454.1427438
-479.757843
-514.8947853
-550.8140386
-587.7167687
-633.4707896
-690.4006827
-740.4462386
-783.4509949
-822.365382
-865.9959872
-906.5420516
-930.123142
-950.0385463
-978.2687996
-1000.106454
-1008.041323
-1009.471835
-1020.312431
-1034.975175
-1040.920739
-1037.590329
-1040.16078
-1043.602949
-1044.340556
-1044.295853
-1043.446486
-1049.39205
-1048.87796
-1046.575731
-1044.027632
-1046.709841
-1041.166608
-1031.734172
-1027.822617
-1032.807056
-1033.946995
-1025.29687
-1016.132655
-1021.541777
-1024.805132
-1017.74198
-1009.315373
-1013.048114
-1025.855664
-1027.35323
-1018.993678
-1023.553434
-1038.350289
-1041.278367
-1032.47178
-1033.075277
-1046.061641
-1054.018862
-1048.162704
-1048.900312
-1062.847801
-1069.150993
-1062.490173
-1058.73508
-1066.088804
-1079.566905
-1080.460975
-1077.197621
-1086.227725
-1095.436644
-1088.753472
-1079.030464
-1080.885658
-1091.860365
-1093.961429
-1086.630057
-1086.16067
-1093.067359
-1093.290877
-1088.4629
-1091.323923
-1101.426912
-1102.142167
-1091.122757
-1087.769996
-1094.184946
-1103.304458
-1096.934211
-1090.429853
-1099.795234
-1110.166444
-1102.857423
-1092.575621
-1095.615458
-1097.18008
-1089.379321
-1084.417234
-1089.580487
-1099.527013
-1099.281144
-1090.966295
-1090.608667
-1089.938115
-1069.732138
-1040.987795
-1034.729306
-1038.082068
-1042.507713
-1027.800265
-1014.076294
-1024.514559
-1042.306547
-1038.37264
-1034.461085
-1049.213236
-1068.614551
-1071.006187
-1073.35312
-1087.434719
-1105.740798
-1114.949717
-1111.418141
-1113.139226
-1123.286918
-1125.186816
-1116.022601
-1116.939022
-1123.890415
-1119.241252
-1106.433702
-1103.080941
-1111.418141
-1118.302479
-1108.71358
-1100.845766
-1106.992496
-1114.99442
-1107.014848
-1093.089711
-1083.34435
-1025.252166
-863.1349639
-627.6369843
-345.5132658
-76.30885557
96.11250116
127.4496469
80.77920446
-122.5099114
-522.8520063
-1057.997472
-1430.981032
-1418.084075
-1282.945428
-1152.992386
-1043.781763
-1000.82171
-987.589477
-972.6585117
-964.589532
-966.8023547
-970.9821309
-965.3941948
-958.0404708
-956.3864418
-958.5098575
-952.9442731
-937.7897904
-932.7159444
-932.9618136
-925.5633861
-911.146511
-905.8714993
-909.917165
-899.7471213
-882.0892432
-874.4896501
-871.4498128
-865.8171732
-854.2166178
-840.2467776
-837.8104374
-836.6928502
-821.1136843
-806.3168295
-800.6394864
-795.1409573
-776.1643262
-754.7290033
-745.2295119
-733.2713286
-713.1771103
-691.428863
-676.6990634
-671.133479
-654.6825951
-625.8488447
-608.2133184
-597.7079985
-577.1890971
-546.7236694
-525.1095325
-511.3632096
-494.2641251
-462.3011306
-435.7472582
-423.3867435
-412.7249614
-388.5627256
-368.6920248
-362.2547224
-364.1546207
-358.4772776
-354.4316118
-371.5753998
-396.8775745
-416.9494411
-441.8716361
-486.664532
-542.387431
-588.655542
-627.0558389
-678.5766099
-734.7912472
-774.1079657
-799.7901201
-829.7414577
-868.0746994
-893.4439294
-903.971601
-915.1251215
-934.235863
-945.5681974
-943.6459474
-946.8422469
-964.5448285
-972.6808635
-963.9636831
-957.7498982
-959.0686511
-966.4447268
-963.9860349
-950.7985056
-954.3971365
-960.6556249
-958.4204505
-952.3854795
-958.0628226
-963.0025581
-959.8733139
-950.5749882
-949.0550696
-956.0511656
-950.4632295
-941.321366
-937.208645
-945.4564387
-949.8150289
-940.6955171
-938.0580113
-946.5740259
-954.7771162
-953.0560318
-950.4632295
-959.6721482
-970.6468547
-967.7411279
-963.0025581
-971.4738693
-982.3368171
-983.1638316
-978.2687996
-986.0472066
-997.4465963
-997.6924655
-989.5564305
-994.1161864
-1003.235698
-1003.995657
-1001.067579
-1000.933468
-1010.298849
-1014.165701
-1009.203614
-1005.068541
-1011.371733
-1019.820693
-1014.948012
-1010.656477
-1019.194844
-1028.76139
-1023.732248
-1012.176396
-1019.418361
-1028.314355
-1027.174416
-1018.323126
-1020.468893
-1028.269652
-1031.510655
-1025.542739
-1024.581614
-1032.114152
-1032.270614
-1022.279384
-1021.161797
-1023.553434
-1025.609794
-1022.86053
-1018.881919
-1025.81096
-1036.003356
-1036.025707
-1033.321146
-1033.187036
-1026.570919
-1001.201689
-985.8460409
-984.437881
-992.6186195
-983.566163
-964.9918634
-956.8781801
-969.9092471
-978.1123374
-973.507878
-981.4874508
-999.9052882
-1011.438788
-1012.377562
-1023.128751
-1044.027632
-1059.338577
-1057.952769
-1057.729251
-1066.669949
-1074.76128
-1063.205429
-1052.163667
-1055.717594
-1065.15003
-1062.780745
-1053.795344
-1057.282216
-1063.518353
-1059.271521
-1046.598082
-1048.788553
-1059.807963
-1063.384242
-1054.711766
-1049.727327
-1009.807111
-886.8725165
-670.4629267
-396.139967
-115.9608502
106.8189868
178.4563277
148.6167489
16.9426223
-315.4501695
-831.7307629
-1308.493472
-1419.313421
-1293.763673
-1165.889343
-1042.105382
-973.597285
-952.2737208
-943.7353544
-931.3748397
-931.8442263
-940.2261305
-932.6041857
-919.6848774
-913.7169616
-917.9414413
-917.1591302
-905.2680022
-905.2680022
-908.6654673
-904.932726
-887.5654206
-872.7015105
-873.5732285
-875.9648652
-866.3312633
-854.4177835
-854.5742458
-850.1486004
-836.0670014
-819.8619866
-816.4421697
-816.5539284
-806.8756231
-787.7648816
-785.5744106
-779.8747158
-765.6143028
-744.5813113
-731.2596716
-726.1634739
-711.6571917
-693.44052
-677.1908018
-666.9760545
-652.2909584
-621.1773302
-594.6458095
-585.9509809
-576.3620825
-544.8461228
-514.6936196
-496.0746164
-477.835593
-454.0980404
-428.237072
-408.1652055
-400.9008886
-383.9582663
-367.4403271
-358.7678503
-366.0992224
-357.0020624
-344.6862512
-352.4646583
-375.2410859
-396.9893333
-420.8162929
-460.9823776
-511.8325963
-557.2066375
-598.2220886
-639.7069263
-690.0877583
-734.7465437
-760.2722359
-778.2877419
-813.1117598
-846.6617282
-867.7170715
-878.9376472
-891.5440311
-904.9997813
-908.7995778
-907.2349557
-916.220357
-932.2689095
-934.0346973
-922.8811768
-918.7461041
-930.1678455
-934.8393601
-927.4409327
-920.9142233
-926.368049
-923.7528948
-909.134854
-905.893851
-915.1251215
-916.913261
-912.4652639
-900.3282667
-897.7354643
-900.9764672
-900.127101
-893.041598
-894.3603509
-905.11154
-903.3234004
-897.5566503
-898.1601474
-907.5925836
-914.5216244
-910.6324209
-911.6829528
-920.0872088
-926.1668833
-921.7412378
-919.6178221
-929.2737757
-939.0414881
-934.7499531
-927.7315054
-938.8403224
-947.2222265
-938.8179706
-931.6877641
-943.8918166
-956.5205522
-951.9384446
-944.1376858
-946.4622672
-954.4865435
-953.3689563
-945.2776248
-946.5740259
-952.9442731
-955.9617586
-950.4855812
-955.1123923
-964.1424971
-968.8587152
-960.6556249
-951.1337818
-958.8451336
-968.434032
-967.294093
-960.9909011
-972.6808635
-987.2989043
-981.8003752
-967.0705756
-967.9646454
-974.379596
-966.1765058
-956.3864418
-962.6672819
-971.317407
-969.1939913
-964.3883663
-970.2445233
-983.8790874
-980.0792909
-960.7003284
-943.1989125
-935.9569473
-926.6586216
-911.146511
-905.4244644
-904.3068772
-901.3564469
-899.1883277
-908.0172668
-924.177578
-934.7276014
-937.298052
-936.9627758
-945.1211625
-965.8412297
-977.8217647
-980.3028083
-987.4553665
-994.9432009
-995.5690498
-988.9752852
-989.4670235
-995.0102562
-992.842137
-984.616695
-982.0462444
-986.3154276
-987.7235875
-981.3309886
-978.1346891
-984.0131979
-986.9636282
-979.5875525
-973.1278984
-979.6546077
-983.0520729
-961.5049912
-889.6441328
-755.6007213
-550.165838
-275.1052708
34.44403821
255.6369013
280.1120615
216.6331073
54.85118089
-339.5229983
-920.4895402
-1314.193167
-1304.738379
-1159.049709
-1056.81283
-953.4136597
-884.0785484
-857.6587865
-863.5819988
-868.633493
-860.2962923
-856.2506266
-858.0834696
-859.8269057
-851.7802777
-840.3585363
-844.0242224
-846.8628939
-838.8162659
-827.9980216
-828.6909257
-831.283728
-824.9581844
-810.6530679
-808.7084661
-814.8328441
-809.9378121
-794.1574805
-787.2284397
-785.1720792
-777.5277826
-758.2382272
-748.805791
-748.2246456
-742.4355438
-725.1352936
-714.3841045
-710.8078254
-708.9749824
-690.1771653
-671.9604936
-661.8798568
-656.6495486
-636.4659234
-609.6661818
-595.1375479
-581.8606117
-560.492344
-531.3009657
-508.1445584
-495.5605263
-474.8181075
-452.1534386
-430.7404674
-418.9163946
-405.5500514
-379.957304
-361.0477282
-357.650263
-355.6162543
-336.9748994
-325.6202132
-332.8845302
-336.3714023
-340.8641029
-350.3859461
-381.1419465
-420.6151272
-457.6519677
-493.839442
-539.146428
-588.6778937
-630.6544698
-662.8633336
-699.4307875
-742.9719857
-771.9174948
-785.9096868
-807.1885475
-835.1505798
-852.8308097
-857.8152487
-865.9065802
-879.2282199
-888.6606561
-885.1961357
-878.959999
-885.3525979
-889.4429671
-883.8773827
-873.1485454
-872.8579727
-878.1329844
-872.1650686
-866.711243
-870.2204669
-877.2165629
-878.1776879
-870.2428186
-869.684025
-877.909467
-877.5741908
-871.5168681
-871.2039436
-877.3283216
-876.1436792
-867.2029814
-862.2408941
-872.9026762
-883.1844787
-875.5401821
-870.2875221
-876.1436792
-885.2184874
-881.2175252
-877.641246
-887.2077927
-898.897755
-899.2777347
-894.4721096
-899.1659759
-909.3136679
-914.7674936
-907.7266941
-910.2524412
-920.064857
-924.4010954
-922.6353076
-922.076514
-930.9278048
-936.0240026
-936.8286654
-935.9345956
-942.6624707
-948.6527382
-944.2270928
-935.286395
-945.2776248
-950.4855812
-944.6517759
-940.3825927
-952.0725551
-962.0637848
-954.9559301
-948.2951103
-955.5594272
-962.488468
-959.6274447
-949.9267876
-948.5856829
-957.414622
-958.1298778
-951.2455405
-951.3125958
-959.247465
-961.5049912
-956.1629243
-955.402965
-965.7741744
-977.6653025
-974.2454856
-967.8081832
-972.2114768
-976.1677356
-971.5409245
-965.9753401
-972.63616
-976.8829914
-972.9043809
-968.8140117
-968.2775698
-975.5865902
-973.1502501
-967.8081832
-972.6138082
-981.8897822
-982.5826863
-980.0569391
-981.5321543
-989.8022997
-986.807166
-977.6653025
-973.686692
-983.9908462
-992.3951021
-986.5836485
-980.9510089
-984.6390467
-993.0209509
-992.2162881
-981.7780235
-982.1132996
-991.1657561
-993.0433027
-991.5457358
-999.4135498
-1013.361038
-1013.718666
-1003.593326
-996.3513608
-985.57782
-963.7178139
-945.7917149
-940.6508137
-933.6770694
-937.9686043
-932.8053514
-932.4253717
-949.18918
-970.2445233
-962.9802064
-953.480715
-956.9899389
-974.6254652
-988.461195
-1000.866413
-1011.371733
-1024.067524
-1024.134579
-1013.89748
-1016.423227
-1029.722515
-1030.147198
-1024.872187
-1025.118056
-1030.16955
-1031.890635
-1017.294945
-1012.48932
-1020.155969
-1016.646745
-1004.241527
-998.0053899
-1004.621506
-1007.169605
-992.5515643
-974.8936862
-948.5186277
-876.2107344
-715.568747
-486.9774564
-225.5961568
62.22725656
272.9595033
305.3695327
236.7049738
48.03389883
-361.0700799
-936.8957206
-1308.135844
-1302.860833
-1180.753253
-1074.180135
-986.3154276
-939.3544125
-916.6673919
-898.6518858
-893.7792055
-900.5070806
-906.2738307
-894.5391648
-885.5984671
-891.2311067
-893.3768741
-883.1397752
-871.2933506
-870.9580744
-882.2010019
-874.1543739
-854.641301
-848.4945713
-852.3390713
-848.2263503
-835.3517455
-825.3605158
-829.0485536
-830.6131757
-819.9737453
-813.2458703
-811.5694894
-804.7969109
-787.027274
-774.4655936
-773.4150616
-772.945675
-756.1818667
-732.2655001
-724.0624099
-723.0565814
-707.0080289
-681.5493919
-667.2442755
-661.1869527
-642.4114874
-617.0422574
-601.3736846
-592.7459112
-577.367911
-547.0365938
-525.7800848
-515.967669
-503.5400991
-475.3769011
-451.3934793
-444.1068106
-438.563578
-421.4421417
-406.0417898
-406.3770659
-410.0651038
-401.124406
-393.3012954
-404.1195398
-419.408133
-430.338136
-442.8998164
-477.3438546
-517.0629045
-558.7489079
-593.7740915
-629.2463099
-669.6135604
-707.0080289
-729.5385873
-756.0254045
-794.3586462
-819.1243791
-828.6238704
-838.6821555
-859.9610162
-880.2564001
-884.4138246
-882.2010019
-891.4099206
-903.2116417
-900.7082463
-892.3710456
-890.0464642
-897.064912
-895.4779381
-884.0561967
-879.2952751
-882.2457054
-879.4964408
-868.7676035
-869.1252314
-877.7083013
-879.74231
-868.3205686
-866.4877256
-877.0377489
-881.1728217
-870.1981151
-864.3196063
-869.2593419
-878.9152955
-880.6810833
-877.8424117
-886.2243159
-894.6285718
-894.5615166
-883.2738856
-884.1903072
-895.8579178
-899.2106794
-894.2262404
-899.3224382
-911.2582697
-914.2087
-908.5537086
-910.2971447
-921.0930373
-925.1163513
-915.5945081
-918.7908076
-933.8558833
-939.4661712
-935.9345956
-932.1795025
-940.6508137
-947.6469097
-943.2212643
-934.9511188
-942.7518776
-950.0161946
-943.2212643
-936.4710374
-941.6342904
-950.7761539
-947.6245579
-940.4943514
-942.1483805
-955.4253167
-952.2066655
-946.5069707
-949.0327178
-956.274683
-957.9510639
-951.4914097
-945.9928806
-953.5924737
-959.0910028
-948.1833515
-945.8811219
-955.3806133
-962.2425988
-956.0511656
-950.8655609
-955.6711859
-963.6507587
-954.44184
-941.2766625
-945.4564387
-951.6702237
-948.2057033
-940.5167032
-946.3505085
-953.8383429
-950.9773196
-940.8743311
-944.0259271
-945.4564387
-945.0988108
-939.8237991
-941.3884212
-958.465154
-961.7732122
-955.8052964
-953.1007353
-951.1337818
-934.8170084
-909.7383511
-895.8579178
-899.4118451
-904.2845254
-890.2476299
-876.3895483
-886.3807781
-909.8948133
-918.5672901
-912.6664296
-916.3321157
-928.7149821
-936.7392584
-947.0210608
-960.3203488
-975.4748315
-985.8013375
-976.748881
-972.5914565
-980.3028083
-986.0025032
-978.581724
-975.7430525
-978.6264275
-980.7945467
-972.2114768
-965.6847674
-970.4680408
-975.0501484
-969.7080814
-962.3320058
-967.7858314
-979.2969798
-978.8499449
-963.449593
-955.9617586
-915.9968395
-799.365437
-593.3047048
-349.2683589
-86.30008534
183.9772086
315.2266521
278.2121632
156.4175077
-127.9190335
-618.8974522
-1139.626043
-1326.821903
-1231.089381
-1107.148958
-1007.348419
-930.9725083
-896.2378974
-873.4838216
-860.2515889
-865.2360279
-870.2875221
-865.6160075
-851.8920364
-851.5120568
-858.2846353
-844.583016
-831.1049141
-825.1369983
-826.478103
-825.5840332
-815.3022308
-802.6734951
-803.5005097
-801.108873
-787.8095851
-776.6784163
-776.7901751
-777.3042652
-762.8203348
-752.0467939
-751.6668143
-749.4986951
-730.7679332
-714.9652499
-714.3170493
-713.2665173
-706.7174562
-689.9312961
-677.9954646
-672.7651564
-658.3259294
-633.4037344
-618.6739348
-609.9791062
-595.3163618
-567.8684196
-549.3164717
-538.6770414
-520.5721284
-488.0726919
-460.3565288
-444.0621071
-427.6782784
-401.996124
-375.4646034
-364.825173
-360.3771759
-345.580321
-329.8223412
-322.0439341
-319.2723178
-316.5007015
-306.7106374
-315.9195561
-334.6056145
-357.2479316
-373.6764638
-405.7735688
-445.6267292
-486.1727936
-518.9180993
-556.5137334
-603.1394724
-646.5465601
-671.044072
-692.9934851
-726.9010814
-754.930169
-766.0166342
-774.175021
-788.9942275
-805.0204283
-814.7657889
-816.5315767
-826.6345652
-839.4421148
-837.3634025
-830.1437891
-829.1826641
-837.8104374
-835.1282281
-823.0135826
-821.4266087
-829.0485536
-830.233196
-818.3867715
-812.6870767
-820.353725
-821.8736436
-810.9883441
-801.377094
-800.6171346
-806.2050708
-798.5831259
-793.4645764
-796.303248
-802.0476463
-802.2041085
-800.1924515
-806.8085679
-811.5024342
-804.349876
-799.8795271
-803.7910824
-809.6472394
-810.4295505
-802.8970126
-802.9417161
-814.8551959
-819.4373035
-813.2905738
-815.7492656
-830.3896583
-837.6092717
-833.0718676
-828.8920914
-836.0893531
-843.5101323
-840.3361845
-837.3634025
-844.8959404
-854.7977632
-853.6578242
-848.9192544
-855.2447981
-864.2078476
-859.536333
-850.7744492
-852.8084579
-862.2408941
-861.2797691
-851.4450015
-849.0533649
-857.0329376
-859.3351673
-851.400298
-851.2885393
-859.4022226
-861.7491557
-853.590769
-850.0815451
-854.9095219
-859.7598505
-859.536333
-851.8696847
-857.9493592
-866.0406907
-863.1796674
-856.2282748
-857.0329376
-861.9950249
-860.1845336
-851.8696847
-852.2049608
-861.726804
-861.726804
-853.5460655
-853.0096236
-859.2010569
-863.738461
-855.3565568
-853.1884376
-859.6480918
-863.7608127
-858.9998912
-854.7083562
-858.3963941
-859.5810365
-855.6694812
-848.8745509
-856.3176818
-872.5674
-873.7520425
-864.0290337
-863.0008534
-872.8579727
-864.5431238
-836.1564083
-814.8551959
-813.7376086
-813.1341115
-796.9290968
-787.4743089
-792.0564165
-798.9407538
-802.0476463
-817.8279779
-824.6452599
-827.1486553
-824.7123152
-830.590824
-846.4382108
-867.8735337
-876.4789553
-875.0931472
-883.3632926
-891.7004933
-889.6441328
-881.0163595
-884.5926386
-893.2651154
-895.7014556
-892.5051561
-899.0095137
-910.5877174
-907.8384528
-893.7792055
-888.8841735
-900.1718044
-907.7713976
-904.2845254
-899.9035835
-908.6878191
-905.4244644
-879.2952751
-803.3663992
-649.2287694
-422.0679905
-125.0580102
147.7226791
299.31221
329.6882307
290.1703465
86.8812307
-329.0400301
-870.1087082
-1231.782285
-1203.328514
-1071.408519
-953.4583632
-852.8084579
-800.3042102
-788.8824688
-796.8843933
-799.8571753
-789.9777043
-782.8251461
-788.9271723
-791.4752712
-781.6628553
-769.2576372
-768.5870848
-771.5598669
-766.1060412
-753.4773056
-755.1760382
-759.9816632
-754.3266719
-744.8942357
-743.3743171
-744.2460351
-738.2334159
-723.5706715
-715.7475609
-719.9049854
-714.5405667
-695.8992119
-687.9643426
-685.7068164
-678.8671826
-661.2316562
-642.3667839
-634.0966385
-624.6194988
-603.9441352
-577.5690767
-571.1988296
-567.6001987
-544.1755705
-516.3923522
-499.0697502
-486.2174971
-464.5139533
-435.9260721
-420.9280516
-410.221566
-386.9757518
-353.7834112
-330.0235069
-317.6853439
-302.3967507
-272.2442475
-252.775878
-245.6680233
-237.6660988
-217.3483631
-207.6030025
-212.4086276
-216.3648863
-214.9790782
-222.7574852
-252.4406019
-293.3442942
-328.8612162
-366.2556846
-414.8260253
-468.4255085
-509.3068492
-546.6119107
-593.2823531
-642.3667839
-672.5863424
-692.0100083
-716.5522237
-745.4083258
-762.6862243
-766.0613377
-772.2751227
-785.2391345
-794.8503846
-796.4597102
-796.8173381
-807.0097336
-811.5694894
-803.9475446
-799.0525125
-811.8153586
-821.9630506
-820.1078558
-810.1389778
-811.5024342
-816.9339081
-812.8882424
-801.9582393
-801.108873
-809.6248877
-809.8037016
-802.3605707
-802.8299573
-809.4684254
-810.8989371
-803.0758265
-799.6560096
-810.9436406
-816.1739488
-806.093312
-798.6948846
-811.5024342
-819.7949314
-817.2691843
-815.3916377
-824.198225
-833.5189025
-831.4401902
-829.2273675
-836.0893531
-846.8181904
-845.454734
-840.8502747
-843.532484
-857.6811382
-861.5032865
-852.6072922
-854.7083562
-867.3147401
-869.5499145
-863.1573156
-866.1971529
-879.7870135
-883.2962374
-876.8812867
-875.4954786
-885.9113915
-894.4721096
-892.080473
-887.006627
-893.4886329
-898.7859963
-890.3817404
-879.6752548
-884.4585281
-893.734502
-889.800595
-882.893906
-884.9502665
-890.6723131
-892.9298392
-883.6538653
-884.3691211
-896.01438
-897.7801678
-893.5556881
-896.103787
-908.3525429
-918.3884762
-910.5206621
-907.6596388
-912.9570023
-917.5167581
-911.8170633
-902.7199033
-903.971601
-910.5877174
-908.3525429
-898.7636445
-901.5799643
-909.6936476
-905.6703336
-897.4448916
-901.959944
-914.7227901
-914.6557349
-905.0891882
-910.4089034
-923.2611565
-920.064857
-910.967697
-908.1290255
-915.5051011
-921.3165547
-916.913261
-915.3039354
-922.1882727
-925.4069239
-919.2154907
-910.6994761
-917.0473715
-923.0823425
-918.9696215
-910.1406825
-913.0911127
-918.7014006
-914.7674936
-908.3972464
-913.068761
-920.4001332
-917.2038337
-904.7986156
-903.3681039
-912.7558366
-914.4322174
-906.854976
-905.9609063
-909.0007435
-912.0405808
-907.6596388
-905.8714993
-917.2038337
-926.1221798
-917.4944064
-909.2913162
-904.0163045
-897.5119469
-869.4605076
-851.5120568
-844.7171265
-844.5159608
-845.9017689
-840.7832194
-849.1651236
-875.8307547
-890.1135194
-874.4002431
-868.2088099
-880.792842
-899.1212725
-906.8326243
-916.3321157
-937.1862933
-951.7149272
-941.8578079
-937.6333282
-946.7528399
-955.5147237
-953.1901423
-950.4855812
-953.7265842
-958.5098575
-956.4087935
-948.2504068
-950.3067673
-955.1570958
-953.8830464
-948.0715928
-951.4243545
-958.6439679
-962.6672819
-956.3864418
-950.0832498
-938.5050462
-868.0523477
-700.1236916
-463.4634213
-179.7080254
83.17084112
241.1529709
272.4454132
231.876997
16.29442171
-392.2954669
-925.7645518
-1270.607265
-1236.811428
-1105.092598
-979.5875525
-885.9784467
-849.2098271
-839.8444462
-829.2273675
-827.2827658
-834.4800275
-831.9989839
-820.3760767
-820.1078558
-825.3158123
-822.1642163
-810.8765853
-807.6579341
-813.9387743
-811.3236202
-803.0981783
-791.3858642
-793.5539834
-795.7668061
-782.6686838
-765.5025441
-761.4345266
-762.3285964
-751.5327038
-736.5793868
-726.3646396
-729.3597733
-722.3860291
-705.6669242
-698.5367177
-697.2403165
-688.7913571
-667.7360139
-654.3249672
-651.6427579
-640.1092577
-620.4397226
-605.4640538
-596.8809839
-584.632228
-563.3533673
-540.5545879
-525.5789191
-511.3855614
-482.820032
-453.2710258
-433.9144151
-418.7822841
-391.5355076
-362.2323706
-344.3956786
-329.1517888
-310.510434
-288.0022273
-276.222858
-276.7816516
-268.17623
-250.5407036
-246.1821134
-253.8711135
-265.9187038
-272.6689306
-288.2480965
-325.642565
-365.1380974
-396.9446298
-437.0213076
-489.9278867
-540.107553
-578.6643122
-610.0908649
-652.067441
-692.7923194
-716.5522237
-732.3996106
-756.763012
-783.5627536
-791.050588
-790.0671113
-800.4383207
-816.9115564
-824.9581844
-816.7103907
-809.423722
-817.4927017
-825.4052192
-817.2468325
-812.0835796
-820.9572221
-824.8017221
-819.4596552
-814.8104924
-819.2808413
-825.6734402
-821.6501262
-814.5646232
-817.8056261
-824.555853
-822.9241756
-811.345972
-814.3634575
-825.0922948
-826.2545855
-822.2312715
-821.7395332
-831.1719693
-829.0932571
-819.3702482
-817.5374052
-827.5956902
-829.2050158
-819.7502279
-817.7609226
-832.4460187
-844.3147951
-843.8901119
-842.0572689
-847.3322806
-852.629644
-852.5178853
-848.60633
-855.5353708
-862.7996877
-863.0679087
-856.6082545
-864.520772
-874.2884844
-878.9376472
-876.1883826
-878.4459088
-888.2136212
-891.3205136
-886.5819438
-885.8890397
-895.8579178
-900.9764672
-893.6450951
-891.2981619
-900.3506184
-903.6586766
-900.9764672
-896.796691
-902.9657725
-910.3865517
-903.18929
-895.6791038
-901.8034818
-912.197043
-911.9511738
-908.5984121
-909.3136679
-915.6392116
-915.952136
-911.3029732
-915.7509703
-926.3009937
-931.1513223
-924.3787437
-921.8082931
-926.9938978
-931.1960258
-927.4632844
-920.8471681
-928.5138164
-935.5099124
-926.278642
-919.7966361
-926.7703804
-936.9627758
-936.4486857
-930.5925287
-938.0133078
-947.5575027
-946.0375841
-937.9462526
-939.3544125
-947.1328195
-944.7411829
-934.8840636
-936.6722031
-945.8364184
-949.0774213
-939.8685026
-937.0745345
-945.7917149
-950.3067673
-943.9588718
-938.6391567
-946.8198951
-957.9287121
-953.7489359
-945.7246596
-952.5866452
-958.6216162
-952.3854795
-941.6566422
-944.7411829
-954.3077295
-953.570122
-945.0317556
-948.3621655
-958.1075261
-957.5710842
-948.9656626
-949.8150289
-955.9617586
-956.3417383
-952.1172586
-948.5186277
-955.7829447
-962.0637848
-950.6420434
-947.2892818
-952.430183
-964.2095523
-956.9675871
-953.7042324
-961.8849709
-967.0705756
-962.1531918
-945.8811219
-938.16977
-927.7315054
-906.3185342
-876.3224931
-868.6558448
-887.006627
-895.0979585
-890.1805747
-906.4079412
-925.2951652
-920.2883745
-908.1513772
-914.1863482
-943.243616
-961.1026598
-960.7673837
-967.2046861
-978.6264275
-983.2755903
-976.4583083
-973.9325612
-982.1132996
-991.0539974
-986.2707241
-973.9325612
-977.9782269
-988.3941398
-988.1482706
-979.8110699
-980.7051397
-984.3037706
-981.8003752
-968.344625
-967.1599826
-974.4913548
-967.6740727
-951.6031684
-916.5556331
-839.1068386
-677.8837058
-441.8045809
-159.3008827
123.3592776
286.0129221
297.5464222
244.2375117
32.00769806
-422.8055981
-991.2104596
-1288.22044
-1233.883349
-1116.089656
-1020.737114
-929.9443281
-886.9395717
-874.0202634
-867.9182372
-856.8094202
-856.563551
-862.1961906
-862.1291354
-855.1553911
-854.2836731
-856.563551
-857.0329376
-846.0805829
-831.5743007
-828.8250361
-830.0096786
-818.9232134
-807.8143964
-811.2789167
-811.7259516
-802.9640678
-785.2614862
-782.8027943
-784.8815065
-778.3771489
-763.4461836
-755.1536864
-755.5560178
-745.5200846
-731.7067065
-725.6717355
-722.5424913
-716.8427964
-700.5707265
-679.8283076
-676.5873047
-667.288979
-645.9877665
-630.5650628
-619.2997836
-608.0568562
-584.5651727
-555.7090706
-536.6653844
-525.8471401
-503.6742096
-476.0474534
-457.3166916
-447.6830897
-427.1641883
-403.4266357
-389.6803128
-378.6161993
-359.0807747
-338.673632
-326.8495592
-325.5755097
-329.5541202
-320.7028294
-316.455998
-331.409315
-350.9223879
-362.6794055
-383.8241558
-424.0349441
-470.5265725
-507.2281369
-540.8675123
-589.5943152
-639.2375397
-671.3346447
-693.6416857
-724.3753343
-759.5346283
-786.244963
-799.3877887
-818.7891029
-842.7948764
-855.602426
-855.423612
-861.1233069
-877.5965425
-884.99497
-877.5518391
-871.9191995
-876.858935
-877.1718594
-869.9075425
-863.738461
-870.2651704
-877.6635978
-871.0027779
-867.1135744
-868.901714
-875.0260919
-872.0086064
-865.2807314
-865.7948215
-875.5401821
-873.796746
-861.6150453
-865.0348622
-874.0426152
-872.6121035
-866.0183389
-865.9959872
-875.4284233
-882.0892432
-878.602371
-880.7481385
-890.1358712
-899.5459556
-896.7743393
-894.5838683
-908.4419499
-922.4117902
-919.5060634
-913.1358162
-918.5672901
-929.0279065
-929.0949618
-926.7703804
-933.7664764
-946.5516742
-948.5186277
-939.7343921
-941.5225317
-954.6206539
-963.2037238
-959.6274447
-959.7168517
-968.0093489
-972.6808635
-962.309654
-959.0015959
-967.8975901
-966.7576512
-954.7771162
-953.7712877
-965.0589186
-973.8655059
-971.9432559
-962.7343372
-967.3387965
-977.3076746
-969.9315989
-960.2309418
-964.589532
-974.3572443
-975.0725001
-969.9763024
-971.496221
-973.507878
-973.9549129
-972.1444216
-977.1512124
-983.566163
-989.0646921
-982.0015409
-976.0559769
-982.1803549
-988.550602
-983.4320525
-976.2124391
-983.4991078
-990.4505003
-983.3202938
-970.3786338
-975.1172036
-983.1638316
-978.2017443
-966.2659128
-971.6973867
-983.9014392
-981.1521746
-968.9481221
-970.2221716
-979.2969798
-978.3135031
-971.4291658
-964.7459942
-972.1444216
-976.0783286
-967.4952587
-963.2037238
-973.2843606
-983.2308868
-979.3863868
-973.9772646
-980.3698636
-982.0015409
-977.9558752
-974.4913548
-978.5593723
-985.1978404
-976.5030118
-966.4670785
-964.589532
-963.1590203
-943.6012439
-910.9006418
-900.3953219
-894.7179788
-899.2777347
-898.2719062
-898.5401271
-913.6052029
-928.9832031
-929.251424
-921.6294791
-930.9278048
-948.228055
-958.2639883
-964.2319041
-981.8450787
-996.4631196
-995.7702155
-989.9364102
-997.9383347
-1005.56028
-1002.542794
-995.0773114
-999.9723434
-1009.963573
-1006.700219
-996.0160847
-995.5914015
-1003.012181
-1006.07437
-998.9665149
-996.1725469
-1003.526271
-1008.086027
-994.9655527
-987.7459392
-986.3154276
-939.6226334
-820.5772424
-623.9712982
-383.2653622
-109.7023618
156.6410251
266.1198695
231.4746656
126.2873562
-150.6284059
-640.4445339
-1163.877686
-1360.416575
-1253.061146
-1121.297612
-1019.775989
-950.4632295
-913.2922784
-887.0513305
-876.9036385
-876.3224931
-881.1281182
-876.4342518
-871.0474814
-872.7015105
-874.2437809
-863.649054
-847.0640596
-845.365327
-845.8570654
-837.0504781
-823.3041553
-818.7891029
-819.6161174
-816.7550941
-804.6628004
-800.6171346
-807.0767888
-800.9077073
-783.2721809
-773.7726896
-774.3761867
-768.2518087
-748.7834393
-736.7582007
-742.0779159
-741.9661572
-724.9341279
-703.8117294
-700.1013398
-696.9944473
-679.6494937
-661.8128016
-650.838095
-638.4552286
-611.4990248
-578.9325331
-565.4991347
-555.329091
-536.8441983
-503.80832
-484.652875
-474.4381278
-448.0854211
-415.2730602
-396.922278
-387.825118
-379.9349523
-355.5268473
-335.3432221
-336.0137744
-338.3607076
-324.2791086
-317.8194544
-327.7436289
-339.5006465
-346.7649635
-367.4179754
-401.6384961
-432.3721447
-459.5742177
-492.7442065
-534.9666518
-588.9684664
-631.5708913
-662.8186301
-699.386084
-738.1440089
-769.3917476
-785.7085211
-812.396504
-838.1680653
-852.0708504
-857.1893999
-869.5052111
-883.5868101
-892.4157491
-889.5547258
-882.5362781
-889.1076909
-892.3486939
-886.1796124
-879.6752548
-885.6655223
-890.6723131
-881.3516356
-871.8074407
-877.9988739
-880.7257868
-874.9590367
-870.6898535
-867.8288302
-868.6111413
-871.0251297
-868.7452517
-862.4197081
-875.7636995
-877.9318187
-865.4371936
-860.3186441
-861.9503214
-868.5664378
-862.866743
-850.4168213
-845.454734
-848.3828125
-854.7530597
-860.0951266
-874.0873187
-885.4196531
-873.0367867
-839.8891497
-826.8804344
-841.610234
-867.8735337
-880.5469728
-883.9667897
-906.6538103
-918.4778832
-914.2757552
-906.3185342
-907.7713976
-908.3301912
-881.8880775
-878.0882809
-895.4108829
-893.4439294
-875.7860512
-877.82006
-904.1951185
-919.97545
-907.212604
-893.4215776
-899.4789004
-911.5041389
-917.0697233
-922.9258803
-942.461305
-959.3145203
-957.1016976
-929.8772728
-918.2990692
-928.8937961
-932.4477234
-914.9463075
-904.1280632
-910.6771243
-911.1241592
-894.09213
-889.3759119
-907.6819906
-932.6935926
-931.1513223
-921.5847756
-926.0774763
-937.9462526
-935.6216712
-938.080363
-937.9686043
-945.434087
-937.6109764
-924.5352059
-938.5050462
-964.6342355
-952.8548661
-926.9938978
-924.0434675
-939.0638398
-941.7460491
-933.3417932
-928.4467612
-946.9763573
-955.0676888
-922.8364733
-906.8773278
-919.3272494
-941.7013456
-948.9880143
-943.4447817
-950.8655609
-951.5361132
-924.3116885
-892.1475282
-898.2495544
-921.4059617
-919.4166564
-900.7529498
-907.905508
-922.7247146
-933.9452903
-927.3515257
-918.7237523
-924.4010954
-929.5867002
-930.6819356
-931.4642467
-948.2504068
-964.9024564
-950.1503051
-935.2640432
-936.1804648
-926.0551245
-893.4886329
-860.2962923
-857.9940627
-873.2603041
-881.8657257
-868.5217343
-879.831717
-914.3875139
-922.8588251
-899.5236039
-894.2262404
-917.0473715
-945.4564387
-942.6848224
-948.0045376
-973.6643402
-991.9480672
-981.5992095
-966.9588169
-985.3543026
-999.2570876
-986.8965729
-974.7148722
-990.8081282
-999.7264743
-986.8518694
-961.7732122
-965.8412297
-995.0773114
-994.3397038
-965.5953605
-963.4942965
-990.741073
-995.1667184
-969.3728053
-949.278587
-920.7354093
-824.8687774
-617.0646092
-335.9243674
-50.04555584
175.5953044
282.9507331
304.6095734
189.5651447
-153.8917606
-647.1947607
-1134.507493
-1319.088199
-1226.641384
-1091.010999
-947.4680957
-877.8871152
-868.8793622
-866.3312633
-834.1223996
-834.1447513
-864.1184406
-873.9979117
-861.1680104
-843.5771875
-850.9979666
-845.8570654
-823.8853006
-816.1963005
-838.8386177
-848.7627922
-817.0903703
-780.120585
-788.4801374
-816.0398383
-804.5733934
-780.1876402
-809.3790185
-825.338164
-808.0379138
-770.8893145
-754.3490236
-759.4005179
-753.4102504
-726.2081774
-718.1839011
-725.3811628
-710.9195841
-670.5746854
-653.6991183
-659.935255
-660.6281591
-623.2560424
-575.8256407
-568.4272132
-569.0530621
-545.4049165
-531.5021314
-527.7917418
-506.2893637
-475.0863284
-446.4537438
-440.7540489
-428.9746796
-406.6229351
-354.7445363
-328.2800708
-327.5201115
-308.2082043
-258.7884973
-245.3550989
-266.9021805
-255.4133839
-219.717648
-217.0130869
-245.6903751
-266.9692358
-255.2122182
-260.5766369
-314.354934
-382.8183273
-408.9698683
-425.4878075
-487.8491745
-559.0841841
-608.861519
-637.6729176
-679.4036245
-726.4540465
-744.2013316
-754.4607823
-786.3567217
-812.7764836
-828.0427251
-823.2371
-841.8561032
-867.4264988
-870.1757634
-853.9036934
-858.9328359
-881.7986705
-881.3069321
-872.2321239
-872.5897518
-876.4566036
-884.7491008
-877.3730251
-863.5149435
-873.1708971
-883.5421066
-873.2603041
-854.2836731
-863.4925918
-878.2670949
-885.866688
-868.3205686
-866.6441878
-869.9522459
-875.9872169
-877.3283216
-886.4254816
-902.6751998
-907.2349557
-897.2660777
-896.975505
-900.7976533
-891.3652171
-878.7588333
-890.9628857
-913.4487407
-921.0706855
-903.882194
-902.8093103
-920.9142233
-929.9219763
-918.0755518
-906.7208656
-923.5293774
-947.4904475
-943.0200986
-924.3787437
-927.0162495
-946.4622672
-946.1716945
-930.3466595
-941.6566422
-956.6770144
-954.0842121
-946.4399155
-955.7158894
-961.9967296
-959.9627209
-944.4953137
-948.1162963
-972.8373257
-978.9840554
-967.6293692
-955.7605929
-960.6109215
-961.9967296
-966.4000233
-969.0822326
-976.9947501
-968.0317006
-963.9860349
-965.2153808
-979.0287589
-974.55841
-972.9267327
-975.5642385
-978.6934827
-985.0637299
-986.807166
-968.7916599
-963.7848692
-967.5846657
-967.1823343
-955.8947034
-955.0900406
-973.4631745
-975.4971833
-970.6915582
-963.1590203
-978.3358548
-995.6137533
-976.6371222
-966.8470582
-979.6546077
-980.4816223
-972.7032152
-974.4466513
-982.2250583
-978.7158345
-979.0287589
-980.8168984
-987.8129945
-992.1492329
-987.1424421
-971.496221
-971.5409245
-987.0753869
-990.0034654
-977.7770612
-979.2075728
-993.5797445
-989.5564305
-975.9889216
-951.3125958
-956.0064621
-962.3320058
-949.9714911
-942.4166015
-952.6313487
-973.7760989
-970.4233373
-953.9948051
-957.7946017
-967.5176105
-950.9549679
-918.0532
-897.0425602
-892.862784
-881.9551327
-873.6849873
-883.1174234
-907.8384528
-919.3048977
-917.4944064
-917.8296826
-925.049296
-927.6868019
-932.9394618
-948.3398137
-980.2581048
-1008.13073
-1000.709951
-989.6681892
-1004.80032
-1011.930527
-1009.53889
-1002.855718
-1005.31441
-1020.5583
-1019.619527
-1004.621506
-1004.554451
-1015.68562
-1016.847911
-1007.773102
-1005.917907
-1010.321201
-1005.895556
-1001.246393
-1009.15891
-1020.42419
-997.6254103
-902.7869585
-741.8320467
-535.123114
-254.8322385
35.78514287
221.818712
232.1675697
188.1122813
-13.61221237
-430.8298744
-995.4572911
-1334.35444
-1291.93083
-1167.386909
-1069.285103
-983.4544043
-935.6663746
-911.4594354
-900.4847289
-905.6032784
-910.9006418
-895.3885311
-886.827813
-901.1999847
-909.3360197
-898.2272027
-882.2680571
-881.4633943
-877.5965425
-865.3254348
-860.5198098
-871.1592401
-874.2437809
-858.0611179
-836.3799258
-835.0164694
-844.0242224
-838.6598037
-827.8192076
-823.3935622
-825.1817018
-810.2730882
-783.7862711
-778.1312797
-786.6472944
-777.9077623
-753.3878986
-737.2946426
-732.4443141
-715.0099534
-701.8224242
-690.1771653
-687.6067147
-675.4920692
-641.4727141
-620.6855918
-620.5514813
-606.8275102
-580.608914
-550.9481491
-526.8306168
-517.3311254
-494.3982356
-462.524648
-439.0329646
-419.3634295
-405.4829962
-389.6356093
-378.1915162
-366.6803678
-350.0059664
-324.9720126
-306.6212304
-313.5055677
-334.7620767
-338.3160041
-342.696946
-383.1759552
-415.6977434
-438.6306332
-473.812279
-533.4243814
-594.9810857
-644.5125514
-675.0003308
-721.424904
-760.2722359
-792.2352305
-812.7988354
-841.6772892
-877.5071356
-896.7743393
-895.8802695
-914.7674936
-942.3048427
-949.4126975
-941.3660695
-936.5157409
-947.1551713
-955.0006336
-940.2261305
-931.7101159
-941.2990142
-954.263026
-958.5098575
-947.9821858
-950.5302847
-963.2037238
-957.9063604
-943.333023
-940.4272962
-950.418526
-955.402965
-942.6401189
-937.8344939
-947.2892818
-952.251369
-945.255273
-942.8412846
-960.0744796
-967.6740727
-954.7994679
-937.9239008
-944.8976451
-965.1036221
-972.0997181
-965.4836017
-968.7022529
-975.9442182
-980.9286572
-977.2853228
-982.3368171
-992.2833433
-994.0938346
-980.2134013
-984.1696601
-1002.74396
-1008.376599
-998.3853696
-994.0938346
-1010.879995
-1023.50873
-1023.016992
-1020.915928
-1026.012126
-1026.816789
-1032.292966
-1032.382373
-1033.187036
-1040.272539
-1038.663213
-1037.187998
-1048.341518
-1050.308472
-1036.562149
-1029.253129
-1045.569902
-1062.71369
-1059.159763
-1050.979024
-1044.429963
-1053.169495
-1057.885713
-1047.670966
-1057.036347
-1065.865286
-1060.523219
-1050.621396
-1050.330824
-1055.203504
-1061.529048
-1058.399803
-1057.483382
-1055.359966
-1049.168533
-1048.319167
-1052.186018
-1062.601931
-1064.859458
-1065.641769
-1067.698129
-1071.475574
-1074.180135
-1069.8886
-1058.48921
-1057.572789
-1065.798231
-1068.145164
-1059.003301
-1057.371623
-1062.780745
-1061.216123
-1054.287082
-1049.235588
-1064.278312
-1074.157783
-1063.294835
-1059.718556
-1071.721443
-1080.237458
-1074.470708
-1064.367719
-1076.772937
-1085.512469
-1086.764167
-1075.856516
-1068.793365
-1056.81283
-1030.370716
-1003.414512
-994.585573
-1009.494187
-1009.315373
-998.8324045
-1012.601079
-1033.276443
-1036.964481
-1023.821655
-1027.688507
-1043.401783
-1066.088804
-1082.18206
-1089.759301
-1097.515356
-1100.465787
-1086.607705
-1088.932286
-1103.215051
-1114.34622
-1104.578507
-1079.87983
-1081.600914
-1109.853519
-1110.524072
-1094.900202
-1096.531879
-1109.74176
-1114.703848
-1108.043028
-1106.254888
-1105.89726
-1097.336542
-1069.218048
-1034.371678
-965.6177122
-811.7930069
-578.6419605
-317.0818468
-38.80262837
202.8420809
258.810849
160.4855252
-32.81236086
-418.4917114
-993.6020963
-1395.08413
-1409.344543
-1289.315675
-1191.504442
-1104.019714
-1044.51937
-1021.608832
-1008.13073
-984.5496398
-971.8314972
-972.9490844
-976.7041775
-963.4942965
-959.8286104
-969.2386948
-968.0093489
-947.8927789
-929.2737757
-942.2601393
-954.4865435
-947.5351509
-934.0794008
-932.5818339
-930.0784385
-913.2699267
-904.4409876
-903.0775312
-903.882194
-899.1883277
-884.4585281
-878.8258885
-883.2515339
-872.0086064
-851.9143882
-840.3361845
-832.5801292
-824.1758733
-798.2478497
-776.9242855
-774.4432419
-768.4306226
-753.7678783
-738.3898781
-734.1653984
-722.3189738
-687.9196391
-654.2355602
-635.0801152
-626.6088041
-616.4834638
-592.0530071
-583.1123094
-567.220219
-545.360213
-513.1737009
-500.5673171
-497.8851077
-483.870564
-462.9940346
-444.5538455
-447.2360548
-445.7608397
-437.513046
-439.9046826
-462.2117236
-480.8754302
-489.637314
-510.8714713
-550.8810938
-590.0413501
-630.1403797
-680.9235431
-735.2829856
-778.1312797
-802.0476463
-818.7667511
-843.35367
-875.4731268
-900.6411911
-917.8296826
-935.4428572
-953.480715
-967.0258721
-973.2620088
-977.1288606
-991.1881079
-993.8926689
-983.9908462
-980.6380845
-992.842137
-989.3776166
-981.0851194
-971.3844623
-974.4019478
-976.4136048
-969.484564
-965.1706773
-970.2668751
-978.760538
-968.9257704
-946.9987091
-961.7285087
-981.8897822
-974.0666716
-959.5380377
-964.5448285
-977.5088403
-973.9996164
-961.6391017
-966.3553198
-979.8557734
-985.1307851
-981.7109682
-978.2911513
-984.5719915
-993.1550614
-989.2435061
-988.5729538
-1000.642896
-1007.571937
-998.7206458
-994.496166
-1006.789626
-1024.648669
-1030.638937
-1020.603004
-1028.359059
-1055.829353
-1062.736042
-1049.168533
-1049.324995
-1054.063565
-1052.856571
-1049.749678
-1046.911007
-1057.081051
-1058.220989
-1044.38526
-1037.322108
-1056.56696
-1068.659254
-1056.857533
-1043.893521
-1047.827428
-1054.5106
-1052.007205
-1046.262806
-1044.966405
-1056.81283
-1060.076184
-1050.621396
-1050.219065
-1054.957635
-1049.347347
-1041.166608
-1048.587388
-1065.328844
-1059.875019
-1040.049021
-1038.037364
-1052.878923
-1055.874056
-1046.396917
-1047.603911
-1069.016882
-1074.135432
-1054.845876
-1047.313338
-1065.306492
-1093.983781
-1098.677647
-1076.996455
-1076.728234
-1087.211202
-1079.164574
-1060.344405
-1051.850742
-1068.033405
-1072.593161
-1047.805077
-1050.733155
-1071.408519
-1080.930362
-1064.25596
-1065.798231
-1084.059606
-1082.651446
-1050.397879
-1040.227835
-1064.25596
-1079.701016
-1077.197621
-1066.267617
-1071.185001
-1076.16944
-1076.54942
-1058.712728
-1056.209332
-1046.978062
-1019.865396
-991.2551631
-979.9898839
-994.3620556
-997.9606864
-976.7041775
-965.0589186
-1000.285268
-1014.65744
-1005.426169
-1009.695352
-1023.307565
-1042.552417
-1046.039289
-1047.089821
-1069.173344
-1087.881754
-1085.311304
-1075.00715
-1085.847746
-1105.025542
-1099.527013
-1082.293818
-1095.593106
-1111.127569
-1106.65722
-1085.601876
-1089.312266
-1099.549365
-1084.908972
-1066.915818
-1070.603856
-1099.124682
-1120.560005
-1095.973086
-1055.02469
-1028.001431
-919.7966361
-706.4939387
-417.0164963
-145.7333738
67.41286128
183.2843045
254.2734449
138.8713883
-229.8206365
-744.8271805
-1247.249692
-1396.961677
-1303.330219
-1182.854317
-1046.396917
-975.6759972
-970.1551163
-970.5797995
-946.3505085
-929.4972932
-953.7712877
-973.0831949
-965.6177122
-945.9258253
-954.263026
-971.2727036
-954.7100609
-923.4846739
-924.4905024
-932.8053514
-930.1454938
-921.3389064
-917.5167581
-925.2728135
-917.4944064
-893.6003916
-889.800595
-898.5624788
-897.1766707
-875.1602024
-867.582961
-875.7636995
-871.8297925
-832.2895565
-813.1341115
-822.5218442
-831.2613763
-793.4645764
-756.7853638
-757.1206399
-772.4539366
-743.8884072
-714.0041249
-723.7494855
-719.1003226
-688.5007845
-657.4542114
-643.8196473
-635.2589292
-602.0442369
-543.4379629
-511.1843957
-506.2223084
-484.1164332
-443.8832931
-441.5140082
-446.5655025
-420.9056998
-378.4820889
-355.8844752
-363.9087515
-383.3547692
-380.3596354
-366.6356643
-366.8591817
-380.3596354
-382.1924784
-391.3119902
-450.6558717
-527.3670587
-574.9092191
-610.7167138
-659.4658684
-708.2820783
-743.0613927
-763.6697011
-814.5199197
-860.855086
-886.6042956
-888.0795107
-903.6586766
-938.2368253
-952.8101626
-944.4506102
-952.4972382
-981.9791892
-993.1550614
-977.8441164
-967.562314
-988.5953055
-992.2609916
-976.391253
-959.6497964
-963.1590203
-986.0025032
-969.6410262
-963.8966279
-983.2755903
-995.636105
-978.6487792
-946.216398
-945.1882178
-961.5049912
-971.2280001
-970.1551163
-961.6614534
-976.8382879
-983.3202938
-953.7712877
-935.1299328
-951.3125958
-968.523439
-960.1862383
-944.5400172
-958.4204505
-983.8343839
-982.8285554
-966.511782
-982.4485758
-1002.609849
-1000.866413
-987.1424421
-993.0656544
-1004.979134
-999.1900324
-982.2474101
-980.0792909
-1003.63803
-1012.265803
-993.5126893
-978.0452821
-997.4242446
-1011.125864
-998.2959626
-992.2833433
-1016.020896
-1021.944108
-1005.582631
-981.8227269
-993.4009306
-1007.415474
-991.4786805
-974.4913548
-985.7342822
-1001.156986
-1001.984
-985.8236892
-990.5399073
-1012.981059
-1015.350344
-993.8256137
-995.3008289
-1011.863471
-1018.077256
-989.7128927
-981.8674304
-1005.001486
-1020.290079
-1009.985925
-1003.39216
-1016.445579
-1029.946033
-1021.228852
-1010.321201
-1024.671021
-1038.193826
-1030.661289
-1009.427131
-1024.335745
-1040.317242
-1034.706954
-1026.459161
-1034.952824
-1042.038327
-1034.639899
-1021.899405
-1025.632146
-1045.592254
-1048.274463
-1015.350344
-1010.142387
-1035.399858
-1039.333765
-1021.161797
-1010.276498
-1031.4436
-1041.613643
-1023.642841
-1015.417399
-1029.946033
-1046.508675
-1027.800265
-1002.207518
-1008.153082
-1030.840103
-1025.922719
-1011.103512
-1024.939242
-1043.781763
-1034.751658
-1021.206501
-1016.512634
-1034.058754
-1042.708879
-1013.226928
-989.2658578
-970.6915582
-957.593436
-920.1095605
-913.7840168
-930.7042874
-944.1600375
-943.6906509
-953.480715
-969.1492878
-975.4524798
-969.7974884
-965.9976919
-996.3513608
-1026.123884
-1030.996565
-1033.857588
-1038.931434
-1053.683585
-1047.648614
-1040.943091
-1053.147144
-1066.647597
-1068.726309
-1057.32692
-1053.571827
-1060.322053
-1062.981911
-1054.935283
-1052.409536
-1069.195696
-1075.208315
-1048.654443
-1033.835236
-1040.607815
-1054.823524
-1049.928492
-1024.581614
-954.9335784
-799.4995474
-549.3611752
-227.0043167
42.82594238
190.2133453
212.6768485
188.4252058
-24.3857532
-464.5586568
-1024.067524
-1358.874304
-1316.160121
-1201.383913
-1081.511507
-965.282436
-917.3602959
-916.3321157
-916.9803163
-903.2116417
-898.9648102
-909.2019092
-910.9453453
-902.4516824
-885.7325775
-886.0007985
-891.2311067
-883.1844787
-871.8521442
-877.7977082
-882.804499
-876.2330861
-862.4420598
-862.4197081
-866.6665395
-858.3293388
-846.1923416
-847.4216875
-853.9707487
-843.1972078
-827.349821
-820.9572221
-818.7220477
-818.4985302
-801.6453149
-788.25662
-782.3557594
-779.8300123
-771.7163291
-744.0895729
-731.1032094
-725.1576454
-708.0585609
-679.9177146
-666.7525371
-655.5543131
-631.950871
-604.1900044
-586.3533123
-564.1133266
-537.2018262
-505.73057
-482.641218
-463.6422352
-437.7812669
-410.9144701
-386.1040337
-371.6201033
-350.8776845
-324.9273091
-314.7349137
-311.560966
-310.6221927
-307.358838
-298.0381606
-311.8068352
-336.1255331
-359.0584229
-384.2935424
-431.5227785
-488.9667617
-537.1124193
-581.5029837
-637.9411385
-699.9672294
-749.4092881
-778.0418727
-814.4752162
-854.3283766
-890.3593886
-903.9939528
-921.9647553
-944.4506102
-963.6060552
-966.601189
-966.2659128
-972.3902908
-981.1968781
-976.4136048
-969.2610466
-977.1065089
-989.0423404
-993.2891718
-991.7692532
-995.0996632
-998.608887
-998.4077213
-995.5243463
-1003.168643
-1010.902346
-1016.780855
-1016.177358
-1013.785722
-1011.237623
-1007.840157
-998.9218115
-1006.834329
-1028.537873
-1036.428039
-1028.023783
-1001.447559
-994.4738143
-1000.754654
-1004.397989
-1018.323126
-1031.421248
-1040.384297
-1036.606853
-1018.278422
-1011.170567
-1017.116131
-1034.997527
-1035.556321
-1053.951806
-1075.700054
-1089.35697
-1090.675722
-1080.550382
-1082.137356
-1076.54942
-1068.48044
-1061.372585
-1066.602894
-1072.593161
-1072.727272
-1067.385205
-1077.085862
-1085.534821
-1081.176231
-1077.845821
-1084.998379
-1101.113987
-1097.023618
-1088.507603
-1090.251039
-1097.157728
-1098.297667
-1086.607705
-1087.166499
-1094.430816
-1091.949772
-1080.997417
-1083.903144
-1094.609629
-1098.118853
-1092.9556
-1082.852612
-1090.809833
-1111.306383
-1113.385095
-1101.695132
-1111.753417
-1123.95747
-1117.319002
-1105.025542
-1107.372476
-1118.123665
-1118.414237
-1105.137301
-1110.792292
-1124.583319
-1118.905976
-1108.981801
-1108.154787
-1119.73299
-1117.117836
-1090.608667
-1078.650484
-1095.973086
-1104.310287
-1107.216013
-1127.489046
-1131.244139
-1102.835071
-1053.862399
-1037.366812
-1058.913894
-1076.080033
-1078.449318
-1088.574658
-1112.155749
-1123.130455
-1111.328734
-1081.466804
-1066.468783
-1065.686472
-1053.638882
-1041.881864
-1041.546588
-1045.704013
-1056.723423
-1062.467821
-1082.517336
-1101.002228
-1103.304458
-1097.001266
-1100.197566
-1126.058534
-1143.69406
-1142.352956
-1144.498723
-1166.49284
-1177.534601
-1160.72609
-1135.35686
-1131.020621
-1137.703793
-1132.004098
-1120.11297
-1114.614441
-1114.457979
-1114.212109
-1105.807853
-1107.618345
-1118.928327
-1120.783522
-1109.585298
-1103.036237
-1101.471615
-1080.39392
-1023.665193
-927.5079879
-764.0720325
-539.0346693
-274.121794
13.56750888
194.4601768
169.3144642
33.32645098
-165.9169991
-588.3426176
-1174.494764
-1513.637783
-1459.390099
-1319.35642
-1230.262367
-1147.963243
-1087.367664
-1055.158801
-1042.284196
-1030.482475
-1020.155969
-1015.015067
-1020.491245
-1022.189977
-1008.197785
-997.3348376
-998.9665149
-992.3727503
-975.3630728
-966.2435611
-976.1230321
-970.356282
-954.1512673
-938.3932875
-930.6372321
-934.9287671
-923.30586
-894.1591852
-886.4925368
-882.3351124
-855.3118533
-811.5694894
-794.0680735
-795.8562131
-811.1448063
-813.4917395
-811.4577307
-814.1175883
-802.4946812
-783.6968641
-760.6075121
-739.0157269
-717.9156802
-696.0109706
-701.8000724
-718.7873982
-717.7592179
-690.1324618
-659.7117376
-632.9566995
-606.760455
-578.4854982
-561.5652277
-562.325187
-569.9471319
-558.0336521
-519.3651342
-484.3175989
-461.8764474
-463.4187178
-473.544058
-482.1494796
-486.2398489
-472.0017877
-460.1553631
-455.8414764
-473.6558168
-501.9531252
-537.224178
-582.0170739
-633.7166588
-688.9478193
-728.1974826
-753.9466922
-796.5938206
-841.1184956
-875.3837198
-904.3739324
-944.0706306
-986.5612968
-1006.119073
-1012.019934
-1021.094742
-1029.834274
-1031.242434
-1033.656422
-1049.950844
-1072.950789
-1084.350179
-1080.125699
-1067.496963
-1065.954693
-1064.948865
-1055.650539
-1046.106344
-1055.181152
-1067.83224
-1071.274408
-1066.222914
-1059.38328
-1059.025652
-1054.175324
-1044.787591
-1047.983891
-1045.145219
-1044.452315
-1047.514504
-1053.415364
-1058.779783
-1052.029556
-1041.412478
-1047.112172
-1058.690376
-1061.752565
-1050.688452
-1045.368736
-1049.704975
-1049.034423
-1043.11121
-1050.777859
-1079.388091
-1121.699944
-1151.338357
-1150.243121
-1133.814589
-1121.766999
-1107.059551
-1112.42397
-1124.09158
-1147.046822
-1179.456851
-1162.335415
-1147.40445
-1161.486049
-1162.380119
-1148.43263
-1141.168313
-1142.420011
-1133.9487
-1116.603746
-1111.976935
-1125.700906
-1125.991479
-1123.801008
-1115.597918
-1115.262641
-1124.873891
-1124.180987
-1118.414237
-1117.81074
-1122.079923
-1115.419104
-1102.231574
-1099.638772
-1105.316115
-1101.91865
-1097.001266
-1104.109121
-1112.200452
-1108.758284
-1100.063455
-1096.822452
-1094.274353
-1088.552307
-1083.746682
-1085.624228
-1096.867156
-1106.65722
-1108.467711
-1118.973031
-1138.731973
-1148.857313
-1141.302424
-1134.261624
-1135.736839
-1127.377287
-1117.475464
-1099.61642
-1090.228688
-1088.239382
-1071.050891
-1059.38328
-1065.53001
-1081.690321
-1087.211202
-1092.687379
-1107.618345
-1121.051743
-1123.152807
-1129.903034
-1149.997252
-1169.622084
-1171.320816
-1163.028319
-1159.362633
-1172.77368
-1179.322741
-1168.728014
-1148.186761
-1138.351993
-1145.99629
-1145.459848
-1140.207188
-1143.202322
-1149.013775
-1146.912711
-1140.944796
-1139.693098
-1148.566741
-1158.490915
-1151.271302
-1127.93608
-1080.103347
-952.8325144
-734.545378
-462.7705172
-187.5534877
31.47125619
105.0755507
78.99106491
-63.99304438
-420.7492376
-944.2270928
-1422.353258
-1529.440466
-1401.767302
-1273.021254
-1150.533694
-1082.69615
-1071.073243
-1065.574713
-1049.280292
-1048.095649
-1055.02469
-1052.253074
-1035.04223
-1027.844969
-1033.388201
-1031.376544
-1015.909137
-1010.075332
-1012.131692
-1010.611774
-1002.74396
-992.9091922
-998.698294
-999.4135498
-981.7780235
-966.5788372
-961.8626191
-956.6323109
-947.7363166
-935.4875607
-929.2290722
-926.7927321
-915.169825
-899.4118451
-896.3273044
-891.6781416
-877.0153972
-853.8589899
-839.7997427
-835.575263
-824.3323355
-808.0379138
-782.8251461
-767.089518
-757.5229713
-735.1488751
-714.7640842
-704.549337
-688.9254676
-657.230694
-624.7983128
-605.0170189
-587.9402862
-561.8558004
-529.088143
-510.6479538
-502.3331049
-482.3059419
-458.5683892
-449.582988
-450.9240926
-444.1515141
-437.5353977
-442.7657059
-463.5304765
-486.3516076
-506.4458259
-534.7207826
-579.9160099
-633.8284175
-675.156793
-716.0604854
-768.0282912
-818.0738471
-857.0776411
-886.0678537
-923.4623222
-957.8393051
-975.3407211
-984.3484741
-1001.514614
-1022.726419
-1033.164684
-1029.476646
-1037.72444
-1052.923626
-1058.86919
-1056.879885
-1055.382318
-1060.724385
-1061.327882
-1050.889617
-1046.709841
-1051.336652
-1057.528085
-1052.610702
-1046.195751
-1054.197675
-1058.958597
-1053.951806
-1046.709841
-1052.275425
-1057.729251
-1050.911969
-1040.250187
-1045.189922
-1054.220027
-1053.124792
-1044.027632
-1043.915873
-1052.454239
-1054.242379
-1042.507713
-1042.351251
-1055.449373
-1059.048004
-1054.711766
-1054.622359
-1063.116022
-1071.497926
-1071.632036
-1069.933304
-1074.984798
-1082.562039
-1082.494984
-1079.611609
-1084.484289
-1094.900202
-1094.095539
-1088.038217
-1094.184946
-1105.986667
-1103.97501
-1095.436644
-1097.068321
-1107.193662
-1112.401618
-1108.154787
-1112.535729
-1122.03522
-1123.465732
-1113.496854
-1109.652353
-1122.795179
-1132.808761
-1125.432685
-1117.453112
-1123.353973
-1130.640642
-1127.511397
-1115.486159
-1119.040086
-1122.526958
-1119.509473
-1110.12174
-1111.239327
-1120.291784
-1116.603746
-1112.289859
-1116.626098
-1127.153769
-1127.399639
-1119.531825
-1116.067304
-1123.219862
-1131.758229
-1127.131418
-1124.940947
-1132.853464
-1139.089601
-1133.591072
-1124.113932
-1130.506531
-1135.647432
-1128.137246
-1120.336487
-1121.364668
-1124.315098
-1121.185854
-1114.770903
-1111.90988
-1120.783522
-1122.571662
-1114.413275
-1111.39579
-1107.350124
-1086.987685
-1060.322053
-1051.068431
-1051.940149
-1051.202542
-1037.322108
-1025.788608
-1034.595196
-1052.901274
-1059.070356
-1058.824487
-1070.648559
-1080.840955
-1075.811812
-1075.342426
-1099.147034
-1125.611499
-1132.67465
-1124.024525
-1121.588185
-1128.986612
-1125.835016
-1120.649412
-1124.359801
-1135.87095
-1138.039069
-1129.187778
-1125.946775
-1133.769886
-1133.814589
-1125.030354
-1120.515301
-1124.583319
-1128.271357
-1124.940947
-1118.861272
-1117.386057
-1089.1111
-990.9645904
-802.7629021
-550.7693351
-267.5280294
-1.519918623
133.4622661
122.2416904
36.83567486
-218.6224125
-669.8370778
-1220.204082
-1503.35598
-1421.772113
-1279.838536
-1162.178953
-1064.814754
-1021.787646
-1002.162814
-999.3017911
-1006.58846
-1008.018971
-1000.039399
-993.1774131
-994.6973318
-996.6419335
-988.2600293
-975.0054449
-974.6031135
-977.4194333
-974.55841
-965.5730087
-959.6721482
-958.8898371
-949.2562353
-930.6372321
-921.2718512
-924.959889
-924.9375373
-916.1756535
-902.3622754
-896.7296358
-892.2816387
-878.3788536
-864.788993
-859.2681121
-854.2836731
-841.342013
-823.7511902
-815.4810447
-809.5578324
-792.3916927
-774.175021
-761.9039132
-749.4092881
-728.5327588
-702.2247556
-678.5095547
-660.6952144
-641.137438
-610.0014579
-586.0627396
-568.6507307
-548.6235677
-523.1202272
-496.901631
-478.2379244
-460.9600259
-436.0601826
-415.7647986
-407.5617084
-396.8775745
-383.801804
-368.5579143
-373.0729667
-382.7289203
-393.6812751
-402.3314002
-432.0592203
-475.2204389
-518.9628028
-560.9393789
-611.0966934
-666.7972406
-711.4113225
-743.5978345
-787.3178467
-833.2283298
-870.3992808
-892.1251764
-914.4769209
-942.0589736
-963.1590203
-964.2542558
-966.7352994
-983.7673287
-996.1725469
-998.608887
-1000.419378
-1008.153082
-1013.048114
-1008.868338
-997.0889684
-1005.448521
-1017.004373
-1019.53012
-1010.835291
-1012.35521
-1021.430018
-1020.535948
-1007.124902
-1001.559317
-1007.571937
-1011.192919
-1001.134634
-993.5797445
-999.0559219
-1004.330934
-996.0831399
-990.0258172
-996.5301748
-1005.292059
-1003.325105
-999.5923638
-1003.369809
-1012.802245
-1016.691448
-1013.092817
-1017.339649
-1026.414457
-1026.928547
-1023.106399
-1025.989774
-1037.255053
-1042.619472
-1038.886731
-1041.501885
-1049.995548
-1054.018862
-1045.771068
-1042.910045
-1050.509638
-1058.779783
-1058.042176
-1054.868228
-1063.071318
-1070.648559
-1066.826411
-1058.422155
-1062.221952
-1069.329806
-1071.363815
-1068.86042
-1071.16265
-1077.711711
-1079.097519
-1073.107251
-1072.280237
-1079.008112
-1081.042121
-1070.78267
-1069.106289
-1076.482365
-1078.136394
-1077.376434
-1080.729196
-1088.887583
-1095.324885
-1087.278257
-1078.628132
-1082.293818
-1091.122757
-1089.334618
-1083.009074
-1083.72433
-1094.922554
-1096.710693
-1091.27922
-1097.381246
-1109.719409
-1107.148958
-1096.353066
-1096.867156
-1103.259755
-1104.153824
-1098.230612
-1098.990571
-1103.550327
-1108.043028
-1107.908917
-1104.556156
-1109.317077
-1109.875871
-1099.012923
-1093.045007
-1106.254888
-1117.341354
-1112.55808
-1106.813682
-1113.608612
-1117.900147
-1112.200452
-1101.806891
-1099.683475
-1107.126606
-1109.004153
-1097.336542
-1096.196603
-1103.907955
-1104.533804
-1092.106234
-1089.692246
-1097.023618
-1095.280182
-1093.84967
-1093.20147
-1104.109121
-1115.664973
-1101.583374
-1094.676685
-1096.263659
-1085.892449
-1053.325957
-1030.728344
-1023.37462
-1028.202597
-1037.85855
-1041.211312
-1045.972234
-1065.932341
-1078.069339
-1062.445469
-1051.359004
-1070.223876
-1099.527013
-1114.167406
-1120.291784
-1135.960357
-1149.84079
-1142.688232
-1139.424877
-1145.213979
-1149.349052
-1143.135267
-1138.68727
-1145.258682
-1157.52979
-1154.132325
-1143.001156
-1148.410278
-1155.562837
-1151.070136
-1140.60952
-1144.543427
-1152.925331
-1152.254778
-1143.604653
-1136.742668
-1131.735877
-1082.226763
-958.8674854
-767.1342215
-531.0998
-256.2851019
6.683171592
99.39820759
50.04555584
-52.97363436
-332.1692744
-826.1875303
-1339.383583
-1509.726227
-1383.327113
-1258.917303
-1165.665825
-1100.957525
-1062.020786
-1041.680699
-1040.898388
-1049.526161
-1048.565036
-1031.980042
-1023.665193
-1031.354193
-1037.076239
-1025.94507
-1008.980096
-1004.710913
-1002.74396
-991.9257154
-982.7391485
-990.8081282
-995.9713812
-986.3377793
-971.0044826
-970.5127442
-969.8421919
-957.7722499
-942.4389532
-933.9676421
-931.7995229
-921.9200518
-903.099883
-896.5955253
-901.5129091
-899.0318655
-879.0941094
-861.1680104
-861.1680104
-853.7919347
-827.349821
-807.5908789
-803.7910824
-799.7230649
-773.6162273
-749.2304741
-741.2732531
-729.8515117
-704.2587643
-669.4123947
-652.8497521
-643.2832054
-618.2268999
-584.8557454
-564.5603615
-555.0608701
-537.2912332
-509.5303666
-493.3253519
-487.4468431
-477.1426889
-459.1048311
-449.582988
-456.3779183
-466.0562236
-465.2739126
-474.3040173
-503.3165816
-537.2688815
-565.6332452
-595.472824
-645.6971938
-698.8719939
-737.0487734
-763.8708668
-803.6793236
-851.5344085
-882.6256851
-903.1222347
-930.3466595
-959.6944999
-975.519535
-976.0783286
-983.2755903
-1005.1803
-1015.864434
-1008.823634
-1004.621506
-1011.394085
-1019.306602
-1010.254146
-1000.888765
-1010.276498
-1015.395047
-1006.499053
-997.8936312
-1001.000524
-1008.533062
-1005.962611
-999.3241429
-1003.213346
-1015.775027
-1014.500977
-1004.040361
-1002.565146
-1012.466969
-1010.231794
-999.5029568
-1000.82171
-1014.009239
-1015.216233
-1006.364942
-1004.643858
-1020.111265
-1025.788608
-1016.982021
-1017.540815
-1029.230777
-1035.355155
-1033.187036
-1025.475684
-1029.878978
-1042.842989
-1041.792457
-1029.096666
-1038.283233
-1054.734117
-1059.427984
-1054.488248
-1062.177248
-1072.70492
-1071.185001
-1058.422155
-1060.813792
-1071.43087
-1074.940094
-1067.07228
-1065.708824
-1079.589257
-1091.525089
-1083.187888
-1071.520277
-1077.644655
-1082.517336
-1076.772937
-1064.50183
-1070.067414
-1083.836089
-1079.008112
-1065.932341
-1072.749623
-1087.144147
-1089.669894
-1083.634923
-1082.003246
-1095.25783
-1097.671818
-1087.814699
-1086.987685
-1099.795234
-1102.835071
-1091.145109
-1090.966295
-1100.845766
-1107.864214
-1099.10233
-1087.390016
-1096.107196
-1103.930307
-1099.035275
-1092.352103
-1100.599897
-1107.797159
-1100.734007
-1093.782615
-1098.632943
-1103.97501
-1101.046932
-1087.457071
-1089.35697
-1102.56685
-1103.237403
-1091.905068
-1088.552307
-1095.749568
-1097.068321
-1089.558135
-1092.329752
-1102.231574
-1103.080941
-1099.884641
-1098.565888
-1099.884641
-1092.173289
-1064.345367
-1038.663213
-1031.264786
-1032.762353
-1024.961594
-1011.46114
-1020.334783
-1045.636957
-1054.309434
-1045.078164
-1048.922664
-1062.356062
-1071.095594
-1079.477498
-1095.838975
-1111.887528
-1117.989554
-1105.494929
-1101.784539
-1113.250984
-1120.962336
-1112.111045
-1105.159653
-1113.586261
-1124.248043
-1116.894319
-1107.260717
-1107.30542
-1112.446322
-1107.81951
-1095.190775
-1098.632943
-1107.484234
-1104.265583
-1088.641714
-1077.667007
-1063.563056
-992.7303782
-849.0310131
-641.2044932
-397.6822373
-121.8840625
159.1667723
248.5737501
149.8013913
-9.544194882
-304.7883874
-828.6685739
-1332.856874
-1442.313366
-1324.363211
-1208.13414
-1130.461828
-1067.988702
-1018.546643
-989.3999683
-983.2755903
-987.3659596
-978.671131
-964.6789389
-964.4554215
-973.7090437
-972.7032152
-958.7557267
-949.7256219
-949.5915114
-943.6459474
-933.8335316
-923.3952669
-924.7140199
-924.5128542
-912.9346505
-903.18929
-898.7189411
-899.6577143
-892.9745427
-882.1786502
-881.0610629
-879.5858478
-866.532429
-849.4109928
-847.0417079
-846.1923416
-834.9941176
-811.8377104
-801.8017771
-801.6900184
-786.5802391
-762.2838929
-746.61532
-743.1284479
-731.2596716
-707.1868428
-687.7408251
-679.7836041
-663.1539062
-633.3813826
-605.5981643
-593.4164635
-582.2629431
-557.8771899
-527.3894104
-507.0269712
-496.2757821
-480.1154709
-456.5567322
-445.559674
-445.9396536
-436.8871971
-417.9776213
-417.9329178
-434.6967262
-441.7598774
-446.2972815
-466.0785754
-499.3379711
-533.5808436
-560.31353
-591.4942135
-644.4678479
-693.0828921
-725.8281977
-758.4840963
-795.073902
-830.7696379
-851.0426701
-863.1126121
-884.0785484
-904.9550778
-911.3253249
-911.9735255
-923.037639
-941.6566422
-947.8704271
-938.4603427
-941.9919183
-954.3300813
-953.7936394
-941.8801596
-942.0589736
-947.445744
-948.6974417
-940.4272962
-936.426334
-944.7635346
-946.7975434
-942.6848224
-932.4700752
-937.1639415
-942.7742294
-929.7878659
-919.5060634
-925.4963309
-936.7839619
-936.4710374
-926.8374356
-930.7936944
-941.7013456
-943.333023
-931.8218746
-934.5934909
-946.5069707
-950.7985056
-944.115334
-944.8529416
-956.3193865
-958.4875057
-948.8986074
-950.6867469
-968.1881628
-978.1793926
-976.6147705
-971.0715379
-976.2124391
-984.616695
-982.9850177
-976.0559769
-982.9179624
-993.0656544
-992.9985992
-983.6779217
-985.1978404
-997.8042242
-997.647762
-990.8975352
-989.511727
-1000.553489
-1005.470873
-1000.777006
-997.2901341
-1006.364942
-1012.265803
-1003.682733
-1002.87807
-1013.718666
-1021.787646
-1013.89748
-1008.264841
-1017.272594
-1024.961594
-1019.552472
-1007.683695
-1008.935393
-1024.447504
-1026.727382
-1020.826521
-1025.520387
-1035.533969
-1034.841065
-1022.547605
-1021.430018
-1026.928547
-1028.426114
-1018.099608
-1013.405742
-1015.104474
-1016.624393
-1009.315373
-1002.051056
-1006.856681
-1021.318259
-1013.405742
-1006.990791
-1016.087951
-1027.755562
-1020.781818
-1006.297887
-997.1113202
-989.0423404
-975.7877559
-956.274683
-960.8567906
-963.8742761
-953.4136597
-938.5050462
-951.7372789
-969.3504535
-975.2066106
-970.445689
-973.7313955
-984.6613985
-997.8489277
-1001.939297
-1013.38339
-1032.225911
-1035.086934
-1025.43098
-1018.703105
-1029.946033
-1043.401783
-1040.786629
-1030.728344
-1033.276443
-1041.725402
-1040.473704
-1030.594233
-1030.817751
-1036.428039
-1031.622414
-1018.300774
-1009.91887
-1018.077256
-1015.417399
-999.5029568
-956.0735173
-872.4556413
-710.8525289
-470.481869
-201.1657001
88.15528013
287.9575238
297.3229047
194.8625082
-1.072883734
-407.7852258
-976.2347908
-1314.863719
-1292.646085
-1182.362578
-1085.333656
-1000.039399
-946.0152323
-924.6693164
-910.1406825
-900.1718044
-901.5129091
-910.87829
-909.6489441
-896.7743393
-887.0736822
-888.7947665
-890.1135194
-876.6354175
-861.6597488
-864.5878273
-871.2039436
-860.0951266
-845.2982718
-843.6442427
-845.9464724
-838.9280246
-825.8299024
-821.9406989
-825.3158123
-816.9115564
-793.6657421
-787.5860676
-793.6880939
-787.4296054
-768.2071052
-754.7737068
-757.4335644
-753.7678783
-733.8748257
-718.5638807
-713.1100551
-706.3374765
-683.9410286
-665.0538045
-656.5377899
-646.993595
-619.3221354
-594.4669955
-578.6419605
-562.8839806
-540.8228088
-514.4030469
-502.4448636
-490.1961076
-469.9677789
-441.8269326
-426.7842086
-418.6705254
-410.1098073
-394.5306414
-381.4325191
-386.0369785
-383.1312517
-369.5860946
-369.7649085
-389.926182
-413.4178654
-432.0368686
-459.1942381
-504.2777067
-545.8295996
-579.8266029
-615.4329318
-658.0577085
-703.6999707
-735.3276891
-760.8533813
-795.0068468
-830.9261001
-851.6238155
-862.5314668
-878.3788536
-895.8579178
-902.0046475
-898.987162
-908.95604
-923.2388047
-930.9054531
-922.7023629
-917.2485372
-926.3904007
-934.6605461
-921.025982
-909.6712958
-918.2096622
-922.0541623
-913.7169616
-907.7266941
-910.0736272
-909.3136679
-900.5070806
-893.3545224
-901.2446882
-915.7062668
-921.3165547
-918.5449384
-918.9696215
-928.2455955
-930.5701769
-921.8529966
-919.6178221
-931.7101159
-929.5643484
-917.3379442
-913.8287203
-925.0045925
-933.2300345
-929.4078862
-928.200892
-938.3932875
-949.8150289
-946.0152323
-941.142552
-950.7985056
-966.2435611
-971.9879594
-967.9199419
-969.7974884
-977.1065089
-980.0792909
-973.7760989
-975.8771629
-988.9976369
-995.1220149
-986.0695584
-978.2911513
-984.3484741
-991.1434044
-983.2308868
-979.7663665
-986.0695584
-989.6458375
-980.7945467
-975.9218664
-983.7226252
-995.2337736
-992.3280468
-983.3202938
-988.818823
-997.1336719
-995.5019946
-985.8236892
-988.5953055
-999.0559219
-1001.536966
-995.7031603
-997.9383347
-1007.214309
-1006.096721
-996.5078231
-993.1997649
-999.9052882
-1001.827538
-991.7692532
-986.9189247
-996.4631196
-1003.816843
-1000.508785
-987.8129945
-982.6273897
-972.3455873
-965.5730087
-946.0822876
-944.7858864
-952.2066655
-940.9413863
-924.5128542
-934.0346973
-951.379651
-953.2571975
-949.5244562
-956.36409
-976.8606397
-986.4048346
-982.9850177
-990.6963695
-1013.38339
-1021.206501
-1011.438788
-1008.957745
-1021.854701
-1032.896463
-1028.493169
-1018.434884
-1023.195806
-1032.829408
-1027.509693
-1015.730323
-1017.205538
-1026.973251
-1021.698239
-1013.495149
-1016.311469
-1028.023783
-1028.582576
-1008.153082
-989.1317474
-933.2300345
-798.5607742
-579.6030855
-322.312155
-54.65001519
196.6059442
281.7884423
214.3085258
67.07758511
-253.82641
-777.9971693
-1247.182637
-1348.145467
-1238.264291
-1124.225691
-1032.047097
-969.4398605
-937.7227351
-916.5332814
-901.4235021
-899.5236039
-905.983258
-901.2223364
-885.5314118
-880.882249
-884.816156
-883.3185891
-868.6111413
-859.3575191
-863.9619784
-864.2749029
-853.2107893
-842.571359
-844.7394782
-846.415859
-834.25651
-817.5374052
-818.0067918
-822.2983268
-811.3683237
-793.5316317
-789.2624485
-791.0729398
-780.6346751
-758.5735033
-749.6551573
-749.7445643
-741.2285496
-717.8039214
-702.4035695
-700.1013398
-687.8302321
-661.7233946
-644.6913653
-643.7078886
-634.6330803
-609.4426643
-584.4087105
-569.7012627
-555.5302567
-522.4943784
-491.2019361
-479.4225668
-469.5430958
-445.559674
-419.3857812
-407.7852258
-400.6997229
-383.4441761
-359.8854375
-349.0448414
-355.6833095
-358.3431671
-350.7659257
-356.3538619
-378.4820889
-401.4373304
-416.9717928
-442.2516158
-488.2515059
-535.0113553
-568.360158
-603.4747485
-651.8439236
-695.1169008
-725.9399564
-748.2022939
-781.6405036
-814.6987337
-830.7025827
-837.58692
-854.2166178
-872.5226966
-875.7636995
-873.8190977
-884.2126589
-898.4954236
-899.7247696
-887.6324758
-884.6149903
-894.9861997
-899.3894934
-890.1135194
-885.8219845
-889.7335398
-893.7568538
-883.1397752
-872.1427169
-880.0328827
-886.3137229
-876.4119001
-870.2875221
-877.641246
-881.9774845
-875.4954786
-865.3254348
-866.8230017
-872.4109378
-870.8910192
-857.4799725
-856.2282748
-865.1019174
-863.2020191
-854.6860045
-857.2117516
-869.8851907
-873.2379524
-867.1806296
-864.9231034
-878.1329844
-885.9337432
-876.4566036
-871.1145367
-880.8375455
-887.9901037
-884.3467694
-880.2340484
-892.4604526
-903.6363248
-901.6470196
-894.2932957
-897.6237056
-911.0794557
-913.2922784
-907.2573074
-911.928822
-924.3340402
-929.1173135
-920.1095605
-917.4049994
-926.6362699
-931.8889298
-922.0318105
-918.2096622
-928.7373339
-930.7042874
-924.7140199
-922.4564937
-930.5925287
-938.9073776
-934.2805665
-928.1561885
-931.9783368
-935.4875607
-929.4302379
-922.4117902
-926.7033251
-936.068706
-940.09202
-932.7606479
-930.5478252
-941.1202003
-943.4894852
-933.095924
-931.9112816
-938.5721014
-940.5167032
-933.2076828
-928.2455955
-936.4486857
-940.9860898
-933.8335316
-922.4788454
-923.6634879
-929.6314036
-927.2174152
-918.6119936
-923.6411361
-933.1629793
-935.2193398
-923.9540605
-915.5498046
-909.1795575
-898.4730719
-882.6256851
-874.3555396
-879.8540687
-876.2107344
-858.575208
-853.9036934
-873.0591384
-881.6198566
-870.6898535
-874.8696297
-891.6334381
-900.9541155
-900.2835632
-906.0056098
-927.8656158
-944.8082381
-935.8004851
-923.5293774
-930.3243077
-942.193084
-941.0978485
-934.2135113
-941.2096073
-951.379651
-947.9374823
-933.4982554
-932.2465577
-942.7071741
-941.9919183
-931.4642467
-929.4078862
-938.348584
-947.8927789
-941.2096073
-932.9171101
-912.5770226
-829.8308646
-640.8021618
-374.5928853
-75.81711719
154.025871
281.4978697
334.2479866
268.3103404
-6.727875081
-448.8230287
-966.9364651
-1260.705443
-1204.446102
-1074.314245
-936.6274997
-849.8133242
-827.3945245
-821.404257
-812.3741522
-812.2400418
-820.8231116
-820.2866698
-809.6248877
-801.0418178
-804.4616347
-806.2050708
-796.9067451
-785.7979281
-782.7133873
-785.3285414
-776.4996024
-761.4121749
-758.1264684
-761.5686371
-756.6289016
-744.1342764
-737.4734566
-739.0380787
-729.471532
-712.9312411
-707.7456364
-707.9691539
-700.436616
-680.5882669
-667.4007377
-666.1937435
-659.2870545
-641.7409351
-626.2288244
-621.1773302
-613.845958
-591.717731
-566.6614254
-555.7314224
-542.9909281
-517.4428841
-485.882221
-468.9395987
-454.8132962
-427.18654
-394.6647518
-376.3810249
-361.1818387
-337.0643064
-303.0002478
-278.1004045
-264.063509
-246.0032995
-219.2482614
-205.8595664
-203.1326536
-200.3610373
-187.1735081
-179.1268801
-189.0510546
-205.2560693
-218.1753776
-241.3317849
-281.3637592
-331.3869633
-374.972865
-413.8425486
-465.2292091
-524.7295528
-566.9296464
-596.6351147
-637.1588274
-679.7389006
-706.3374765
-714.6299737
-730.4103053
-753.7231748
-767.8047738
-765.6143028
-772.7668611
-788.3236752
-794.4480532
-789.6200764
-783.7415676
-789.5306694
-793.2187072
-787.0943292
-780.6123234
-788.949524
-797.4431869
-792.0340648
-781.6628553
-782.9592565
-789.8659456
-785.4626519
-771.9621983
-775.5384774
-784.1886025
-783.6521606
-770.7775558
-765.6143028
-769.4140994
-768.6317883
-756.6289016
-750.6833375
-761.1216022
-765.949579
-762.1721342
-752.829105
-762.3509481
-768.7658988
-763.5132388
-755.0642794
-759.4675731
-769.8611343
-768.2518087
-762.9991487
-770.3528727
-784.1662507
-785.1273757
-776.9466373
-778.6453698
-791.4752712
-795.0068468
-784.9709135
-783.875678
-793.1069485
-797.5996491
-794.1798322
-791.0952915
-800.2148032
-804.4616347
-801.1535765
-799.9465823
-807.7473411
-811.3906755
-806.6968091
-801.7123701
-807.9038033
-814.8998994
-813.2458703
-808.6414109
-812.5082627
-822.7900651
-820.9572221
-812.5306144
-813.7376086
-827.4839315
-828.400353
-817.0680186
-815.6375069
-826.3663443
-830.7249344
-821.8289401
-815.5033965
-827.7074489
-833.2283298
-824.3099838
-818.1856058
-824.7570187
-831.6190042
-825.0922948
-816.3974662
-823.9523559
-835.0164694
-828.4450565
-820.2196145
-821.6724779
-827.3274693
-823.5276727
-814.1175883
-817.4479982
-832.1330943
-831.8648734
-821.0466291
-820.443132
-827.7521524
-830.322603
-822.8347686
-821.0689808
-829.0038501
-832.6918879
-827.0592483
-820.9572221
-828.6462222
-833.4294955
-825.6957919
-814.0281813
-818.9679168
-829.0932571
-822.5665477
-811.5471377
-816.9786116
-828.3780013
-829.6744024
-823.1476931
-824.7346669
-832.33426
-828.6015187
-806.4956434
-785.3061897
-770.7552041
-767.7377186
-751.8009248
-741.5191223
-757.6347301
-768.0059395
-767.1118697
-774.3761867
-791.8105473
-795.6773991
-792.3246375
-792.6822654
-813.6705534
-840.7832194
-850.3050626
-851.7355742
-861.9726732
-875.2719611
-874.3778913
-862.2855976
-858.9998912
-865.3701383
-869.684025
-863.4925918
-862.7996877
-869.4605076
-869.9298942
-861.7044522
-856.4964958
-859.9163127
-862.4420598
-853.8142864
-848.3157573
-856.474144
-862.2185424
-850.9309114
-829.272071
-776.4772506
-644.6466618
-421.2856795
-113.8374345
168.10747
344.7309547
394.4635861
393.5471646
235.1179999
-141.3300802
-675.8049936
-1102.119816
-1146.979767
-1030.03544
-915.3933424
-802.069998
-747.0847067
-741.2732531
-743.642538
-734.6571368
-726.7446192
-733.0478112
-737.7193257
-727.5045785
-713.5347382
-713.5123865
-717.1333691
-709.4890725
-695.7203979
-692.1664705
-696.5697642
-688.7913571
-670.5523337
-665.4337842
-667.2666272
-660.7399178
-647.172409
-637.4941036
-641.4503624
-641.919749
-625.4241616
-610.5155481
-613.2871644
-614.5835655
-597.573888
-580.4971552
-581.5253355
-578.7760709
-559.7100329
-538.4535239
-528.5293494
-523.7013726
-505.8646805
-478.9755319
-462.0552614
-451.2370171
-433.9814703
-403.1807665
-380.8513738
-368.0438242
-349.2236554
-318.8476347
-291.7573204
-279.1285848
-258.9449595
-225.0597149
-198.6176012
-183.239601
-164.9111706
-136.7926761
-113.5245101
-110.2611554
-110.4399694
-101.9463065
-94.01143718
-101.2310506
-121.7276003
-138.7149261
-157.5350949
-195.7565779
-244.3269186
-287.242268
-322.8038934
-374.5034783
-431.7686476
-475.6004185
-506.2670119
-535.3466314
-568.7624894
-600.7925392
-616.639926
-630.4980076
-652.0227375
-669.2335807
-671.3569965
-671.044072
-683.8292699
-693.4628717
-688.18786
-679.7836041
-688.277267
-698.8496421
-697.8885171
-691.0041798
-693.172299
-704.5716887
-704.1023021
-691.6076769
-688.2996188
-696.502709
-698.6708282
-685.7291681
-679.6718454
-687.5173077
-693.8428514
-688.277267
-683.7398629
-691.3841595
-698.4026073
-691.0265316
-684.9468571
-693.7310927
-704.4822817
-697.7320549
-690.2442205
-694.222831
-704.1470056
-707.0303806
-702.2471073
-707.3880085
-717.2004243
-714.2276423
-702.269459
-705.2645928
-718.9662121
-722.8777674
-716.0381336
-714.9428981
-725.537625
-731.1479129
-725.4929215
-722.8330639
-734.7465437
-742.592006
-737.2946426
-734.6794885
-745.4083258
-756.4947911
-750.4821718
-741.720288
-746.1235817
-751.86798
-751.6444625
-743.5307793
-745.6094915
-755.5113143
-755.8689422
-746.3470991
-746.2353404
-756.4500876
-757.1429917
-745.2295119
-743.4413723
-753.5890643
-755.1536864
-742.9943374
-739.9545002
-751.2421311
-759.0205382
-749.2081224
-738.5463403
-743.5307793
-750.8845032
-746.5259131
-739.9321484
-742.6367095
-750.1468957
-745.7883055
-739.7309827
-743.9554625
-752.2926631
-752.4938288
-741.9438054
-740.4909421
-750.3704131
-755.1760382
-747.6882038
-745.4083258
-753.7455265
-755.1760382
-747.4199828
-741.3403083
-752.8961602
-761.7698028
-753.1420294
-742.5696543
-748.9622532
-758.7299655
-751.1750759
-737.7640292
-742.77082
-750.4821718
-749.5881021
-741.0944392
-741.8320467
-755.5113143
-757.2323987
-745.0730497
-738.8145612
-742.7037648
-742.0555642
-734.7912472
-733.584253
-744.1789799
-749.6328055
-740.0662589
-734.9477094
-743.0390409
-753.007919
-749.9904335
-745.9000642
-749.9904335
-754.5278376
-752.5385323
-746.0118229
-754.9078172
-759.8699045
-754.3266719
-742.5473025
-742.77082
-752.3150149
-736.8923112
-709.3326103
-687.7408251
-681.6387989
-669.3453395
-660.024662
-666.327854
-677.257857
-687.3384937
-691.2947525
-698.4473107
-700.9730579
-701.3530375
-699.2072701
-709.7572934
-732.0419827
-754.7960585
-763.4238319
-761.2780644
-763.8932185
-768.0953465
-764.4520121
-754.4607823
-754.3937271
-761.7698028
-762.0603755
-752.650291
-753.9466922
-765.5472476
-768.6094366
-755.6901283
-746.0565264
-752.0467939
-756.9865295
-747.9117212
-744.603663
-753.2314364
-747.5764451
-721.2013866
-649.4522869
-516.6382213
-321.3286783
-51.3866605
255.7486601
498.7121223
561.8558004
528.037611
413.4402172
64.95416939
-514.2242329
-985.4437095
-1044.854646
-922.3223832
-834.8376554
-754.0360992
-683.382235
-644.981938
-642.009156
-641.8526938
-633.2919757
-630.2297867
-638.4552286
-641.5174176
-631.7050018
-618.830397
-616.0140772
-618.4504173
-607.2521934
-595.6069345
-595.0034374
-597.9315159
-589.8848879
-573.5010592
-571.3776435
-574.395129
-566.4602597
-548.6012159
-541.7392304
-548.4000502
-547.6400909
-528.5293494
-513.4866254
-511.6537823
-508.8151108
-498.1756804
-483.9152675
-480.4730988
-477.3662063
-458.2331131
-440.217607
-431.0310401
-423.9678888
-406.4888247
-383.1983069
-368.9825975
-356.867952
-338.7406872
-313.1255881
-287.2869715
-267.908009
-243.4775524
-212.9227177
-189.6769034
-182.8819731
-166.5204962
-135.6750888
-111.5128531
-102.5498036
-93.67616101
-73.42548054
-57.08635534
-54.44884949
-54.22533205
-45.61991043
-40.70252665
-54.18062856
-77.53820152
-96.71599826
-115.1785392
-152.5730077
-209.2346798
-252.3064914
-283.5765819
-323.9661841
-377.3645016
-420.0116301
-442.8551129
-472.3594156
-506.6246398
-536.8441983
-549.2494165
-561.4087655
-582.3970535
-593.9082019
-591.4942135
-589.6613705
-605.0170189
-609.9344027
-602.9830102
-593.3047048
-600.9490014
-609.3309056
-607.2521934
-598.2891438
-597.4621293
-606.6039928
-604.6370393
-590.2201641
-588.1638036
-600.636077
-602.7818445
-588.655542
-584.4757658
-589.1696321
-589.52726
-581.5253355
-574.2833703
-580.8994866
-589.5049083
-585.8839257
-586.8003472
-598.9373444
-604.3688183
-599.0491031
-593.550574
-602.5136235
-612.5048533
-611.7672457
-604.748798
-610.1802719
-623.4125046
-629.4921791
-622.7419523
-625.4241616
-644.2666822
-649.4075834
-635.0354117
-629.3133651
-639.2375397
-645.2725107
-644.7584206
-643.5290746
-649.1617142
-655.7107753
-655.219037
-652.246255
-658.8623713
-665.5902464
-662.6174644
-653.3861939
-653.20738
-661.8128016
-653.6767666
-641.1597897
-648.7817346
-662.8856853
-665.0314528
-657.4542114
-672.2063627
-688.5231362
-687.226735
-681.7729094
-675.7379384
-673.4580604
-679.9624181
-670.4852784
-659.6893859
-679.3365692
-688.5007845
-673.9050953
-663.3997754
-671.9828453
-681.5717437
-679.0907
-672.6981011
-678.6213134
-686.7573484
-680.9905983
-664.1820865
-662.6174644
-671.044072
-670.5076302
-660.4493452
-661.8798568
-673.1004325
-676.6543599
-668.2277522
-657.4095079
-660.7846213
-663.1539062
-655.911941
-652.5144759
-658.191819
-666.9089993
-663.4668307
-663.5338859
-675.2685517
-693.3064095
-687.8302321
-664.0703278
-652.3133102
-644.803124
-633.4707896
-610.7167138
-608.3697806
-612.795426
-602.5806788
-593.729388
-611.56608
-629.2016064
-627.7710948
-611.0296382
-616.1481877
-639.3940019
-653.8332288
-655.5096096
-656.1578102
-664.8079353
-669.5241534
-666.4619644
-666.7748888
-674.6427029
-683.8963251
-685.8409269
-679.7836041
-684.7233396
-689.0595781
-684.432767
-671.7593279
-667.1548685
-672.6310459
-673.2121912
-662.1927812
-656.3813277
-664.3609004
-656.8730661
-628.1510744
-572.562286
-476.7403575
-305.8165676
-67.43521302
184.1113191
462.8375724
638.0528972
628.4639988
502.1989944
280.2238202
-147.4768099
-699.1402148
-977.7994129
-925.5186827
-819.3702482
-729.4268286
-652.1344962
-596.791577
-568.449565
-550.8140386
-532.2173872
-531.6809454
-539.5934629
-535.6372041
-521.8238261
-515.8559103
-521.8685295
-526.8529686
-517.2417184
-502.936602
-500.7237793
-505.4399974
-496.991038
-479.6460843
-477.5897238
-483.7141018
-481.0765959
-467.6431975
-468.0231771
-471.2865318
-465.1174504
-448.7559734
-440.3517175
-443.3021478
-435.6131477
-419.9892783
-409.7968828
-411.1379875
-402.4208072
-382.2148302
-370.6589783
-370.7930888
-361.9865015
-340.7076407
-316.0313149
-312.5891462
-308.2752595
-282.8166226
-249.6242821
-234.1121714
-224.9032527
-204.2949443
-171.4602317
-149.8013913
-135.3845162
-109.9258792
-84.57900102
-70.11742236
-67.30110255
-56.05817509
-33.81818936
-21.18945374
-23.33522121
-24.94454681
-18.01550603
-17.47906416
-34.73461088
-58.6733292
-72.64316948
-95.95603895
-143.185275
-190.9733046
-228.7701045
-262.9906253
-310.33162
-356.3091584
-386.8192895
-409.3945514
-439.4129442
-475.8909912
-493.3253519
-495.8287473
-512.2572794
-534.4302099
-542.9685763
-536.1959977
-535.0784105
-547.2377595
-559.3300532
-553.228027
-549.5176374
-556.8043061
-562.414594
-554.8597044
-548.4000502
-555.8431811
-562.2134283
-548.7800299
-537.6265094
-543.1920938
-550.2775967
-546.9918903
-537.3582885
-537.224178
-548.2212363
-550.076431
-539.9287391
-537.1794745
-543.8402943
-545.1143438
-538.8558553
-539.1911315
-549.5623409
-553.3397857
-546.7013176
-545.1590473
-558.4359835
-571.0200156
-568.6954342
-561.7663934
-571.0870708
-583.8946204
-576.9208761
-573.9927976
-588.5437833
-604.4582253
-602.1112921
-591.8518414
-593.0588356
-602.2230509
-601.0160567
-598.1103299
-602.558327
-610.3814376
-606.2463649
-598.1997369
-599.2726206
-612.9295365
-620.2832604
-619.880929
-615.5446906
-623.904243
-630.4533041
-620.1267982
-613.756551
-624.5524436
-634.6554321
-631.4591326
-624.4183331
-629.939214
-636.1306472
-625.5135686
-614.9411935
-618.3833621
-634.9683565
-634.4319146
-620.9091092
-619.3668389
-629.2910134
-632.5543681
-620.3726674
-611.4096178
-624.3959814
-628.5534058
-621.4455511
-617.5339958
-624.2618709
-628.888682
-616.1928911
-602.0218852
-592.1647659
-588.4543763
-576.9432279
-565.3426725
-566.7061289
-567.8013644
-554.0103381
-546.5225037
-561.9452074
-576.4291378
-578.329036
-571.5341057
-580.5642105
-595.5175275
-601.7313125
-604.0782456
-615.5446906
-633.6943071
-636.3765164
-628.4863506
-625.0441819
-631.5708913
-637.0023652
-631.5485396
-629.0451442
-635.6612606
-641.5621211
-634.2531007
-626.0947139
-630.6097663
-639.1704844
-636.8011995
-622.4960831
-625.9159
-637.0023652
-631.0120977
-607.8556905
-554.8820561
-447.4372205
-251.6806426
16.51793915
308.7446462
572.383472
688.0761013
679.9847698
584.3193036
283.8224511
-226.713744
-753.7678783
-955.8499999
-866.1971529
-757.5229713
-646.7700776
-554.2115038
-520.5050731
-513.777198
-506.7363985
-496.8792792
-495.7169885
-503.5624508
-502.757788
-489.637314
-487.3574361
-496.4322444
-492.2301164
-476.4944883
-465.6091887
-473.4993545
-471.4876975
-458.2331131
-449.2253601
-452.8239909
-451.9075694
-438.5188745
-428.5499964
-429.9134529
-429.0864383
-414.8260253
-401.3479234
-399.9174118
-402.5549176
-394.7541588
-373.4752981
-366.7697748
-369.1390597
-358.4325741
-331.1634458
-316.9477364
-311.4268555
-299.6921897
-275.1276225
-254.005224
-242.6058343
-223.6962585
-193.4319965
-165.8275921
-152.282435
-135.2057022
-106.4166554
-76.46531778
-59.20977106
-41.82011388
-16.65204962
14.10395075
28.92315733
31.94064283
48.21271279
70.81032643
75.61595149
73.71605321
79.30398933
82.90262018
69.3351113
42.26714876
14.34981994
-11.60055537
-49.24089304
-102.5498036
-151.9695106
-187.2852668
-226.6019853
-280.1344133
-326.0895999
-350.3188908
-368.8931905
-402.0184758
-436.2613483
-452.2428456
-455.8191247
-468.6937295
-488.9667617
-494.5770496
-488.4303198
-492.699503
-505.8423288
-510.6926573
-501.8637183
-500.4332066
-508.882166
-505.9540875
-492.2077647
-491.6713228
-498.4662531
-501.0367037
-491.3136949
-484.652875
-490.5760873
-497.5051281
-490.1961076
-481.3001134
-484.4293576
-492.2301164
-489.2573344
-478.9755319
-483.781157
-493.5712211
-492.0289507
-484.6752268
-489.2796861
-501.3272764
-500.6120206
-493.2806484
-494.4652908
-505.8423288
-508.9268695
-504.0541892
-506.3340671
-517.9346225
-522.6508406
-514.9841923
-508.2339654
-512.5702038
-519.6557068
-518.4487126
-519.4768929
-529.4234192
-540.3087187
-537.7382681
-528.0823145
-529.2893087
-539.7052216
-543.1026868
-538.6323379
-544.5108467
-551.5292944
-546.2095793
-537.2688815
-537.3582885
-546.0978205
-547.6400909
-538.1405995
-533.7820093
-540.8228088
-543.080335
-538.364117
-537.5147507
-544.5108467
-552.088088
-545.8295996
-535.4136867
-537.9170821
-544.9802333
-539.9510908
-534.4525617
-542.3203757
-550.5905212
-547.6177392
-539.7499251
-537.0677158
-539.235835
-541.247492
-534.0055268
-534.2737477
-544.3543845
-550.8140386
-541.2027885
-540.4204774
-547.7294979
-557.9889486
-551.3728322
-546.7013176
-552.266902
-557.8995416
-553.9656346
-542.5662449
-543.3262042
-550.1211345
-551.1493148
-548.3553467
-551.5069427
-562.504001
-564.6721202
-550.9034456
-545.7401926
-537.3582885
-525.2883464
-512.5031486
-506.959916
-511.4973201
-502.4225119
-486.1504419
-485.6810553
-505.4847009
-515.7441516
-509.932698
-507.7645788
-515.9229655
-525.243643
-529.7139918
-538.185303
-557.6983759
-572.9646174
-572.2270098
-567.4213847
-569.500097
-577.8372977
-576.6750069
-567.1084603
-569.1648208
-580.7653762
-580.6983209
-572.8305069
-575.5127162
-584.4757658
-581.3465215
-571.6682162
-565.8567626
-572.5399342
-582.7323297
-577.5690767
-560.1570678
-515.5876894
-396.2517257
-188.2240401
94.34671335
386.1040337
589.2813908
687.0255693
708.7067614
580.0054169
241.6670611
-248.2384739
-744.3130904
-914.4769209
-807.5238237
-676.4531942
-544.7790676
-473.8793342
-460.423584
-458.5236858
-454.0533369
-453.1145636
-464.1563254
-463.8657527
-449.1359531
-440.6646419
-449.2477118
-454.0086334
-444.8220664
-429.1534935
-426.9630226
-432.9085866
-426.9853743
-414.0884178
-412.233223
-413.2614032
-403.8513188
-390.6861413
-389.5238506
-393.6142199
-383.3547692
-363.9087515
-357.9408357
-359.9748445
-353.5822455
-334.8291319
-318.8476347
-312.1197596
-301.6144397
-280.6037999
-264.5775991
-261.2695409
-253.5134856
-232.927529
-209.5923078
-196.1589093
-188.4252058
-169.336816
-143.6993651
-123.8063125
-106.6848763
-78.90165793
-45.88813137
-22.88818632
-8.113683237
16.00384903
52.45954424
75.01245439
81.6509225
96.15720465
122.8675393
140.905397
141.3524319
144.3028622
155.3669757
161.2454845
145.979243
123.2475189
104.0920739
77.35938756
33.01352656
-16.31677345
-58.20394256
-98.1465099
-149.3767082
-203.9820199
-243.6563663
-275.6640644
-315.4501695
-357.650263
-380.829022
-393.077778
-407.8746328
-431.5451302
-447.8395519
-449.5159327
-450.3429473
-459.9541974
-468.559619
-468.0678806
-467.0173486
-470.1689446
-479.3555116
-478.9755319
-474.4604796
-478.5955523
-481.9930174
-475.6227703
-461.4070608
-454.4333165
-461.4070608
-456.9590636
-448.2865868
-452.4440113
-457.7860782
-455.5956072
-450.2982438
-449.314767
-456.1767526
-455.617959
-446.1184676
-444.5314937
-450.3429473
-454.0980404
-450.6782235
-447.5489792
-457.2943398
-467.3526248
-463.8210492
-457.1602293
-462.9716829
-475.555715
-477.5003168
-472.3594156
-475.4886598
-482.8647355
-482.0600727
-474.3710726
-477.4332616
-488.3856163
-491.7607298
-484.9881512
-488.6314855
-499.2038607
-503.8306718
-499.1144537
-494.0629594
-504.4788724
-516.3476487
-511.4526166
-505.1494247
-510.893823
-519.029858
-517.4875876
-516.1911865
-523.9025383
-534.0055268
-532.6420704
-527.4564657
-527.8587971
-534.072582
-535.4583902
-528.6187564
-530.6527651
-542.0745065
-544.8237711
-535.7042594
-536.4195152
-546.7907246
-546.8577798
-536.7994948
-532.5526634
-537.8723786
-539.4146489
-532.6420704
-532.8432361
-541.9403961
-545.181399
-537.1794745
-535.8830733
-545.0696403
-556.290216
-557.8995416
-552.8927508
-555.1726288
-559.3971085
-559.9335503
-547.4165735
-548.4447537
-560.8723236
-565.0968033
-556.1784573
-555.418498
-564.5380097
-567.0861086
-557.8548381
-554.1668003
-555.4632015
-556.0890503
-552.6468817
-548.0424223
-552.6692334
-558.2348178
-545.6954891
-532.3738494
-538.9899658
-549.204713
-549.0706025
-543.6167769
-545.2484542
-554.099745
-560.1570678
-552.8927508
-554.189152
-566.0132248
-569.1871726
-560.492344
-551.4175357
-550.4787624
-550.0317276
-538.4982274
-537.6712129
-544.0191083
-550.0540793
-548.243588
-547.7071461
-551.4398875
-548.0200706
-535.3466314
-514.1571777
-501.0367037
-486.575125
-477.9920552
-478.5732005
-497.7062938
-515.7217998
-524.4613319
-525.3554017
-518.3816574
-533.4467332
-548.6459194
-557.8101346
-568.2483993
-589.4602048
-610.4484928
-613.1977574
-600.7701875
-597.6409432
-597.4174258
-587.4932513
-581.1677076
-593.0588356
-604.0782456
-600.0325799
-585.5710012
-582.9334954
-589.6390187
-590.4436815
-581.659446
-585.503946
-594.511699
-593.8634984
-589.437853
-593.2823531
-597.4397775
-578.597257
-494.2864769
-331.5657773
-109.5906031
191.7109122
480.3613401
639.2151879
649.8993218
607.6545248
397.6598856
-14.05924726
-546.8577798
-906.8773278
-880.8151938
-738.5910438
-620.3950191
-533.5137884
-492.5206891
-467.4867353
-466.3914998
-476.4944883
-479.84725
-463.664587
-454.3215578
-459.0154241
-455.8414764
-441.0669733
-427.9464993
-433.400325
-432.0145168
-427.0077261
-421.9562318
-423.2749848
-430.6734122
-414.0213625
-392.8542605
-394.5306414
-398.062217
-384.7852808
-364.0652137
-362.0759084
-355.4597921
-347.3684606
-333.0186406
-332.9962889
-337.4219343
-326.7378004
-305.9283264
-293.2325355
-293.5454599
-286.6164192
-263.7058811
-247.9479012
-245.086878
-232.7710668
-201.9256594
-173.7401097
-160.6196357
-148.0579553
-113.7480275
-81.13683237
-66.87641941
-41.59659643
-11.42174142
20.07186652
42.06598306
65.46825951
96.11250116
130.7353533
151.8577518
161.5807607
166.0511096
178.6351417
186.4135488
185.251258
184.1560226
187.6428947
177.383444
150.4495919
113.3903996
77.9852364
33.70643064
-22.10587527
-72.9560939
-111.2893356
-148.5720454
-197.589421
-244.6845466
-278.6368464
-305.5036432
-338.4277628
-369.9437225
-392.116653
-396.922278
-410.132159
-429.9358046
-436.3284035
-436.5966244
-447.571331
-461.0717846
-464.446898
-458.2778166
-449.5159327
-454.1203921
-464.1563254
-459.0824794
-449.5606362
-458.0766509
-469.9454272
-464.2010288
-450.9911479
-453.0251566
-463.1504969
-460.9823776
-452.0193281
-460.423584
-467.2408661
-466.8385347
-460.602398
-464.9609882
-474.2369621
-475.7792325
-470.9736074
-471.8676772
-476.6733023
-478.1038139
-470.9736074
-468.4478603
-480.5625058
-493.6829798
-487.3797878
-475.5110115
-489.637314
-503.6965613
-500.3885031
-489.3690931
-496.6781135
-508.3010207
-508.3457241
-500.9472967
-505.8646805
-516.4147039
-515.0288957
-501.014352
-505.4847009
-521.0191633
-522.4273232
-514.8724335
-511.8996515
-519.3427824
-521.8908813
-515.1183027
-500.7014275
-505.7082183
-515.4982824
-520.0356865
-528.1940732
-543.5497217
-555.9549398
-557.4748585
-543.8849978
-547.3048147
-558.3242247
-554.7479456
-537.2465297
-533.5137884
-542.8791693
-543.080335
-533.1561605
-530.8315791
-543.9744048
-547.8636083
-539.5264077
-541.0910298
-547.0142421
-548.3106432
-542.3650792
-536.8441983
-547.9083118
-560.7829166
-554.5691317
-547.9530153
-557.5419137
-566.8849429
-559.0394806
-549.5399892
-553.228027
-562.0346143
-561.542876
-553.6527102
-561.1628963
-571.9587889
-571.3999953
-555.9102363
-556.7372509
-565.0073963
-570.3271115
-562.2134283
-556.7819544
-570.1930011
-578.0831668
-573.7245767
-566.3932045
-573.5681145
-586.5097745
-585.7274635
-577.5020215
-580.4524518
-592.9023734
-599.8314142
-594.4669955
-602.9159549
-615.7458563
-613.3542196
-601.7313125
-605.9334404
-623.636022
-631.8391123
-617.7575133
-617.1316644
-630.2744902
-639.125781
-627.9946122
-619.2327284
-630.0509727
-639.3940019
-624.5300918
-606.8051585
-604.9723154
-604.5029288
-592.2541728
-585.5710012
-586.8226989
-597.2609636
-585.3474838
-573.7692802
-572.9199139
-574.4174808
-558.301873
-530.8539308
-522.5614336
-513.2631079
-515.3418202
-518.3146022
-521.7120673
-540.7557536
-562.8839806
-565.9014661
-553.9432828
-548.1988845
-566.9743499
-583.9169722
-591.1142339
-608.7497602
-635.9518332
-638.4999321
-637.0917722
-641.4727141
-640.6904031
-631.4814844
-626.1617692
-634.6554321
-643.9761095
-644.020813
-632.9566995
-632.3532024
-642.5455979
-639.5728158
-627.4805221
-622.8760627
-626.9440802
-640.1316095
-638.9693187
-634.923653
-633.6496036
-606.4698823
-505.9540875
-322.3568585
-93.69851276
180.6020952
438.7423919
554.5691317
517.8675673
432.4839035
204.9431449
-225.4396946
-749.9233782
-1028.269652
-932.7159444
-784.4568234
-680.0741768
-602.9383067
-553.7197654
-534.161989
-534.0502303
-553.9432828
-563.5768847
-554.9267596
-541.068678
-539.6381664
-543.1920938
-522.2708609
-503.3389334
-508.5245381
-517.1746632
-509.932698
-500.7684828
-503.2718782
-507.1163782
-493.1241862
-477.4332616
-475.0639767
-474.4157761
-467.8220114
-452.7569357
-436.1048861
-432.1486273
-437.7812669
-427.6559267
-409.2380892
-412.1661678
-405.326534
-385.1876122
-372.5588766
-360.891266
-343.6133675
-320.5463672
-299.7145414
-295.0206751
-292.2490588
-277.5863144
-250.6301106
-231.6758313
-219.3376683
-194.2143076
-169.9850166
-164.0171008
-152.014214
-124.9238998
-82.0532539
-53.55477971
-49.06207908
-35.00283182
-7.599593115
11.46644491
18.37313394
30.86775909
53.91240763
66.09410835
56.16993382
52.52659947
61.8919804
62.60723622
38.02031732
-0.670552334
-33.77348587
-65.24474207
-112.1163502
-168.9791881
-217.9518602
-252.2617879
-291.1985268
-351.6599955
-383.6006383
-407.3158392
-437.5577495
-473.7452237
-498.4886048
-497.5945351
-497.1251484
-516.5041109
-536.5536256
-532.4856082
-529.6692884
-536.0171838
-539.4146489
-534.0055268
-532.8879396
-534.8101896
-548.5341607
-548.243588
-536.2183495
-542.4991897
-549.3164717
-549.3611752
-538.185303
-536.1065908
-546.410745
-553.2727305
-553.1162683
-549.0258991
-548.7576781
-549.8529136
-536.2854047
-531.4127244
-538.8782071
-540.9569193
-530.3845442
-521.6226604
-528.4175907
-534.7207826
-525.4224569
-526.0036023
-531.3456692
-546.2542827
-550.165838
-533.5584919
-544.8237711
-567.4213847
-580.1171756
-565.3426725
-561.0958411
-574.1269081
-576.3844343
-564.515658
-556.6254922
-567.6672539
-581.3465215
-577.2561523
-577.4126145
-580.0054169
-574.8198122
-566.4826115
-570.0365388
-585.7051117
-595.2940101
-580.4971552
-572.383472
-588.0520449
-596.433949
-598.9149927
-591.8294897
-590.8460129
-599.4290828
-598.5126613
-591.7847862
-588.2755623
-599.8314142
-599.1161584
-591.7624345
-587.0462164
-594.9140304
-597.1045014
-584.453414
-586.7779954
-601.7313125
-602.9606584
-597.8197572
-593.2600013
-599.8761177
-603.519452
-600.725484
-595.2493066
-603.4523968
-607.9674492
-598.3561991
-587.0462164
-596.523356
-611.655487
-615.0306004
-605.2405364
-601.686609
-606.3134201
-613.6224405
-615.2764696
-612.3483911
-615.7458563
-620.5291296
-603.787673
-593.6176292
-599.764359
-604.0782456
-594.9140304
-594.9140304
-606.9616207
-617.3328301
-609.8449957
-605.6428678
-612.9071847
-615.4329318
-593.5282223
-575.5127162
-574.0598528
-575.9597511
-570.4835737
-554.3009107
-559.1512393
-578.4854982
-591.7847862
-586.3086088
-584.632228
-602.4465683
-614.5388621
-615.4105801
-625.7594378
-644.5125514
-657.2977492
-659.7340893
-649.2734729
-647.7759061
-650.2122462
-640.6904031
-638.9916705
-640.2210164
-655.12963
-669.5018017
-660.0693655
-652.5368276
-660.292883
-650.7263363
-632.9566995
-636.3318129
-651.2180747
-654.3920224
-635.6836123
-615.3658766
-592.7235595
-513.866605
-357.3596904
-138.4467052
104.6061641
375.7104725
