 EMG Channel 
8738.705067
8726.009277
8691.542887
8738.794474
8749.232739
8734.078256
8681.171677
8761.839123
8691.565238
8674.577913
8747.824579
8751.512617
8708.150233
8701.176489
8704.059864
8759.380431
8719.39316
8675.851962
8694.873297
8751.870245
8741.923719
8665.078421
8656.025965
8751.602024
8714.632239
8680.210552
8652.494389
8699.343645
8724.981096
8672.141572
8657.814104
8708.060826
8743.6001
8705.713893
8661.278625
8697.331988
8741.342573
8703.366959
8646.571177
8667.648872
8723.75175
8722.701218
8670.264026
8677.818916
8733.810035
8742.862492
8694.448613
8701.847041
8751.177341
8771.763298
8726.43396
8722.254184
8729.116169
8804.195679
8753.032536
8715.191032
8764.498981
8808.263696
8767.628225
8816.355028
8784.99553
8716.263916
8737.252204
8798.495984
8794.897353
8738.615661
8757.011146
8814.678647
8819.439568
8748.159855
8733.74298
8787.968312
8811.862327
8820.132473
8721.471873
8780.659292
0.0
9271.168324
9262.317033
9260.193617
9246.067315
9255.343289
9302.281952
9300.091481
9270.251902
9257.01967
9268.307301
9270.408365
9251.521141
9244.480341
9286.903952
9285.33933
9270.60953
9286.792193
9284.288798
9308.719255
9294.727063
9296.626961
9294.212972
9271.637711
9286.166344
9326.064208
9350.919348
9332.792083
9263.412269
9236.254899
9261.042984
9287.39569
9271.995338
9281.137202
9300.426757
9316.184737
9282.165382
9262.294681
9256.013841
9259.9701
9267.681452
9287.708615
9279.036138
9282.098327
9276.778612
9284.95935
9265.088649
9265.826257
9263.769896
9240.032344
9276.24217
9288.80385
9268.419059
9263.859303
9276.443336
9267.301472
9257.332594
9246.469646
9264.261635
9292.581295
9311.490871
9279.1926
9242.759257
9254.270405
9287.574504
9289.630865
9268.799039
9253.17517
9268.17319
9266.295644
9244.055658
9255.74562
9279.729042
9274.521086
9277.426812
9274.990472
9268.597873
9260.238321
9264.082821
9267.413231
9268.776687
9285.093461
9275.035176
9274.498734
9284.557019
9275.549266
9274.655196
9275.951597
9305.634714
9312.943734
9281.673644
9260.640652
9269.603702
9297.722196
9308.182813
9300.560868
9319.313981
9307.959295
9287.663911
9287.507449
9259.59012
9243.273347
9240.479379
9235.159664
9225.101379
9239.875882
9258.383126
9229.974059
9214.752521
9253.331632
9272.554132
9264.19458
9251.25292
9242.423981
9265.178056
9259.299548
9245.955556
9246.804922
9275.638673
9266.76503
9248.503655
9244.480341
9248.034268
9254.71744
9254.33746
9251.878768
9254.940957
9244.681507
9241.932242
9232.320992
9253.666908
9267.413231
9246.603757
9230.912832
9237.305431
9262.451144
9254.225702
9232.142178
9230.018762
9242.468684
9240.412324
9234.891443
9258.606644
9272.375318
9276.175115
9249.442428
9261.087687
9278.67851
9277.225647
9255.320937
9257.086725
9295.799946
9295.598781
9268.463763
9257.734925
9275.012824
9273.090574
9242.15576
9230.219928
9238.154797
9255.902082
9247.341364
9220.921602
9231.471626
9244.882672
9229.48232
9215.110149
9201.989675
9220.183995
9243.541568
9241.418152
9254.002184
9242.267518
9200.469756
9202.012027
9227.716533
9236.165492
9245.575576
9235.763161
9239.182978
9243.876844
9260.037155
9276.130411
9271.12362
9263.30051
9272.934112
9274.163458
9241.26169
9247.721344
9259.634824
9255.857379
9238.423018
9266.921492
9255.566806
9250.001222
9251.521141
9258.070202
9271.771821
9269.335481
9245.2403
9225.794283
9240.255861
9236.858396
9233.416228
9249.733001
9255.544455
9250.001222
9214.059617
9208.762253
9229.549376
9241.149931
9241.596966
9214.171376
9226.598945
9255.387992
9242.446332
9226.174262
9218.261745
9231.628088
9234.533815
9226.442483
9211.466814
9213.836099
9222.083893
9211.735035
9212.919678
9229.974059
9221.078065
9201.564992
9185.538791
9195.418262
9204.224849
9188.332759
9189.11507
9204.49307
9208.85166
9198.033416
9194.36773
9209.701027
9222.799149
9209.410454
9190.90321
9201.788509
9226.509538
9221.368637
9194.099509
9204.202498
9220.072236
9208.315218
9193.563067
9194.948875
9215.445425
9233.19271
9209.723378
9199.463928
9212.025608
9222.933259
9204.314256
9193.071329
9189.204477
9203.487242
9215.423073
9206.840003
9226.487187
9247.40842
9237.618355
9216.361846
9211.220945
9213.59023
9203.934277
9184.085927
9199.799204
9214.640762
9213.299657
9200.872088
9204.671884
9211.980905
9219.647553
9206.527079
9206.750596
9219.111111
9217.367675
9196.781718
9210.751559
9234.891443
9234.936146
9231.695143
9214.081969
9201.006198
9216.853585
9213.567878
9211.779739
9221.592155
9241.172283
9244.167417
9227.984754
9207.778777
9219.491091
9237.573652
9228.722361
9220.809844
9245.307356
9237.953632
9220.586326
9206.92941
9210.572745
9235.606698
9222.866204
9207.264686
9215.579535
9229.72819
9228.118864
9198.681617
9207.555259
9216.898288
9214.953687
9212.427939
9220.11694
9235.405533
9222.262707
9208.784605
9213.098492
9226.934222
9230.689315
9215.244259
9224.922565
9239.361792
9238.44537
9231.158701
9218.127634
9230.734018
9232.700972
9220.049884
9219.960477
9224.073198
9225.436655
9217.568841
9216.473605
9226.889518
9228.275326
9202.704931
9193.965399
9193.585419
9237.752466
9248.57071
9227.001277
9204.381311
9217.792358
9201.654399
9154.380459
9140.030639
9176.30752
9202.861393
9181.783698
9178.386233
9177.983901
9173.245331
9154.872197
9166.137477
9150.379497
9159.364898
9146.937328
9126.619593
9132.051066
9158.716698
9162.561198
9128.027752
9126.97722
9144.210415
9139.896529
9132.22988
9135.292069
9148.948985
9142.154055
9115.846052
9107.821775
9127.647773
9141.014116
9130.82172
9124.116197
9140.522378
9138.555424
9127.558366
9129.637078
9150.088924
9174.921712
9177.022776
9158.560235
9155.922729
9169.51259
9168.774983
9164.014061
9186.008178
9202.190841
9198.21223
9170.317253
9159.543712
9166.383346
9173.826477
9188.399814
9190.590285
9185.091756
9168.730279
9162.695308
9154.961604
9190.120898
9207.376445
9198.59221
9171.233674
9155.006308
9171.30073
9185.583494
9177.380404
9182.409547
9187.773965
9186.276398
9172.418317
9176.6875
9192.870163
9188.265704
9166.204532
9148.770171
9174.117049
9206.28121
9186.634026
9176.039299
9193.004274
9188.153945
9161.734183
9152.681727
9174.228808
9185.024701
9175.525209
9168.730279
9202.146137
9222.910908
9187.461041
9167.880913
9167.389174
9186.835192
9197.161698
9177.134535
9164.371689
9161.555369
9181.314311
9172.105392
9163.74584
9188.712739
9186.365805
9158.224959
9137.840168
9159.454305
9184.622369
9185.359977
9174.228808
9180.822573
9194.591247
9179.526172
9168.886741
9176.978073
9206.147099
9197.161698
9182.45425
9187.997483
9195.150041
9192.087852
9183.795355
9186.030529
9196.379387
9189.62916
9172.351262
9170.853695
9195.753538
9190.076195
9176.642797
9178.565047
9194.971227
9195.060634
9179.12384
9181.984864
9189.472698
9199.083948
9186.566971
9168.9985
9175.79343
9189.49505
9178.766212
9162.292977
9171.233674
9186.321102
9173.938236
9180.822573
9190.255009
9200.223887
9189.159773
9172.843
9186.477564
9201.408529
9191.305541
9169.825515
9189.092718
9198.391044
9170.473715
9132.363991
9134.733276
9169.914922
9200.581515
9183.683596
9176.531038
9199.195707
9226.844815
9225.034323
9223.022666
9237.059562
9263.255806
9266.697975
9237.283079
9234.042076
9231.471626
9228.387085
9225.146082
9236.500768
9264.507504
9278.81262
9251.208216
9253.555149
9266.005071
9261.914702
9230.912832
9211.176242
9241.77578
9256.460876
9227.94005
9222.709742
9243.362754
9275.772783
9276.041004
9248.838931
9235.673754
9253.532798
9260.238321
9256.840856
9265.088649
9279.974911
9245.48617
9223.648515
9242.044001
9265.289815
9256.930263
9239.697068
9255.946786
9282.165382
9271.749469
9248.838931
9258.94192
9241.596966
9241.686373
9248.973042
9234.869091
9255.61151
9283.41708
9282.724176
9273.93994
9259.366603
9253.756315
9259.880693
9263.658138
9263.658138
9276.689205
9276.733908
9242.088704
9238.423018
9249.621242
9244.815617
9219.960477
9207.801128
9234.712629
9262.451144
9245.329707
9233.773855
9238.57948
9238.020687
9226.755408
9218.686428
9229.057637
9232.700972
9222.329762
9210.192765
9243.586271
9282.053623
9261.244149
9228.722361
9235.360829
9259.545417
9260.215969
9255.566806
9249.420077
9260.506542
9254.426867
9228.297678
9227.135387
9251.431734
9273.068222
9247.386068
9254.560978
9269.246074
9281.964216
9267.79321
9261.199446
9267.569693
9273.582312
9263.702841
9247.698992
9250.87294
9272.554132
9259.746582
9245.687335
9265.558036
9275.437507
9270.028385
9262.317033
9263.166399
9284.534667
9285.831068
9268.240245
9253.666908
9268.530818
9264.84278
9254.091591
9242.558091
9253.242225
9287.082766
9275.21399
9252.057582
9276.689205
9300.136185
9291.530763
9282.545362
9281.047795
9271.078917
9266.519161
9261.668833
9268.910798
9283.148859
9275.281045
9257.936091
9265.513333
9287.529801
9279.460821
9265.289815
9260.148914
9277.404461
9277.292702
9261.937053
9251.409382
9277.046833
9299.085653
9282.947693
9262.093516
9266.943844
9270.47542
9239.652364
9245.10619
9266.675623
9283.059452
9283.260618
9259.031327
9254.382164
9268.754335
9260.640652
9234.712629
9243.921547
9264.440449
9263.501676
9250.470609
9241.686373
9246.737867
9255.61151
9239.652364
9226.598945
9225.280193
9247.67664
9243.921547
9238.043039
9248.302489
9247.967213
9237.327783
9234.98085
9242.80396
9244.145065
9239.898233
9236.210196
9234.287946
9239.026515
9244.636803
9225.146082
9213.791396
9230.532852
9238.870053
9228.208271
9222.463873
9243.742733
9245.2403
9210.349227
9206.661189
9231.561033
9244.5921
9238.847701
9227.761236
9232.119826
9223.670867
9213.210251
9204.046035
9205.074216
9224.162605
9222.285059
9213.366713
9212.763216
9215.110149
9213.232602
9207.130576
9203.867221
9219.401684
9231.963364
9219.938126
9196.245276
9210.840966
9232.656268
9209.119881
9209.522213
9219.021704
9245.821446
9241.664021
9218.954649
9198.771024
9204.895402
9211.131538
9204.157794
9203.911925
9218.686428
9206.437672
9178.766212
9192.758404
9224.699047
9228.387085
9205.275381
9207.041169
9206.460024
9214.327838
9198.323989
9191.976093
9210.975076
9206.348265
9183.661244
9183.169506
9212.763216
9229.392914
9211.01978
9190.210305
9205.945934
9233.639745
9231.069294
9201.319122
9185.359977
9199.173355
9213.389064
9204.694236
9189.875029
9206.258858
9201.095605
9177.290997
9183.34832
9220.273402
9246.804922
9222.150948
9198.391044
9199.7545
9210.460986
9211.489166
9212.852623
9197.228753
9207.30939
9194.568896
9169.177314
9179.436765
9199.598038
9191.596114
9168.059727
9186.097584
9207.219983
9200.357997
9174.966416
9160.326023
9168.305596
9171.971282
9168.350299
9183.102451
9201.833213
9208.046998
9182.789526
9156.19095
9166.383346
9192.736053
9176.441631
9161.890645
9170.719584
9193.85364
9175.234637
9159.76723
9178.565047
9187.997483
9175.815782
9153.084058
9165.66809
9178.900323
9163.567026
9144.232767
9158.269663
9191.17143
9196.535849
9145.752686
9117.790653
9120.629325
9138.823645
9117.924764
9094.142508
9099.775147
9120.450511
9119.891717
9100.780976
9097.204697
9117.254212
9104.759586
9095.952999
9098.344636
9110.615743
9105.005456
9099.372816
9098.858726
9103.127909
9076.439926
9071.120211
9101.295066
9118.930592
9127.401904
9117.567136
9089.873325
9115.041389
9118.505909
9107.307685
9095.371854
9095.19304
9118.818834
9111.08513
9103.284371
9112.225069
9132.051066
9117.254212
9084.911237
9080.84322
9099.93161
9112.6274
9096.981179
9100.982142
9108.26881
9092.421423
9073.645958
9109.699322
9116.874232
9110.503985
9102.725578
9098.098767
9106.905354
9122.216299
9103.574944
9096.444737
9105.407787
9121.992781
9113.968505
9105.139566
9093.114328
9101.809156
9086.632322
9078.138659
9101.049197
9112.962677
9089.582752
9086.565266
9107.687665
9140.120046
9127.088979
9106.190098
9086.833487
9080.642054
9108.917011
9122.439816
9121.21047
9097.182345
9115.734293
9125.122026
9125.479654
9135.984973
9141.796427
9146.870273
9148.121971
9157.710869
9182.431898
9184.577666
9153.396982
9147.540825
9179.794393
9189.383291
9185.538791
9189.24918
9213.299657
9191.17143
9161.488314
9166.450401
9173.021814
9172.351262
9156.123895
9160.102506
9174.318215
9188.802146
9185.40468
9178.453288
9174.38527
9177.313349
9157.152075
9155.587453
9166.204532
9181.627236
9175.324044
9166.383346
9160.862465
9164.148171
9178.22977
9163.36586
9152.704078
9169.646701
9177.20159
9166.986843
9176.933369
9168.61852
9157.330889
9149.686593
9148.658413
9149.060744
9160.571892
9176.888666
9176.039299
9173.513552
9169.914922
9131.894604
9137.147264
9161.085982
9185.695253
9195.619428
9180.263779
9178.743861
9176.128706
9157.353241
9148.323136
9153.955776
9179.392061
9191.529058
9171.859523
9165.154
9179.347358
9167.322119
9155.520398
9155.296881
9175.480506
9183.460079
9166.718622
9149.664241
9168.573817
9189.338587
9168.707927
9152.458209
9161.130686
9177.000425
9155.565102
9145.17154
9158.940215
9170.898398
9158.090849
9138.421314
9144.232767
9171.792468
9173.602959
9159.230788
9148.814875
9147.183197
9159.119029
9145.596224
9143.62927
9163.477619
9174.63114
9156.57093
9152.167636
9167.992671
9173.35709
9159.119029
9152.502913
9164.461096
9168.10443
9158.448477
9155.989785
9146.132665
9153.799314
9163.991709
9155.967433
9134.643869
9157.241482
9163.790544
9147.384363
9159.633119
9174.318215
9164.751669
9149.999517
9151.31827
9163.410564
9164.036413
9145.082133
9141.505854
9138.018982
9149.776
9152.525264
9176.195762
9187.841021
9176.262817
9142.422276
9134.822683
9151.720602
9161.801238
9154.13459
9144.500988
9147.607881
9164.282282
9153.039354
9135.113255
9149.485427
9168.417355
9158.671994
9133.906261
9123.13272
9114.192023
9117.88006
9130.218223
9134.643869
9145.9315
9155.207474
9139.427142
9129.257098
9134.979145
9149.552482
9137.48254
9126.150206
9138.331907
9154.805142
9141.125875
9121.21047
9113.610877
9131.916956
9141.751723
9130.441741
9133.794502
9155.654509
9163.61173
9140.880005
9139.963584
9147.406715
9149.26191
9144.746857
9132.073418
9125.747874
9138.220148
9144.389229
9131.693438
9135.202662
9149.731296
9138.063686
9130.285279
9130.82172
9140.343564
9139.583604
9118.058874
9129.704133
9168.886741
9167.031546
9151.161808
9140.276508
9154.469866
9145.775038
9137.147264
9138.711886
9143.450456
9144.344526
9135.761456
9128.698305
9141.617613
9156.123895
9144.210415
9126.306668
9136.409657
9146.602052
9130.285279
9118.64002
9136.409657
9156.548578
9135.582642
9114.504947
9114.41554
9129.502968
9136.208491
9129.994706
9117.477729
9129.122988
9136.432008
9120.115235
9104.245496
9111.46511
9135.403828
9131.671087
9121.478691
9121.836319
9132.878081
9129.435912
9107.531203
9116.471901
9139.203625
9129.950002
9118.528261
9124.563232
9136.677878
9131.224052
9116.740121
9128.161863
9156.548578
9158.783753
9126.84311
9116.516604
9137.214319
9142.7352
9124.339715
9124.429122
9130.799369
9135.314421
9123.982087
9116.33779
9128.139511
9137.683706
9148.993689
9147.496122
9142.556386
9144.568043
9138.018982
9130.017058
9145.41741
9171.099564
9165.243407
9147.943157
9147.607881
9163.678785
9163.052936
9150.625366
9155.341584
9169.154962
9185.717605
9156.034488
9127.73718
9138.398962
9155.02866
9144.478636
9140.120046
9156.146247
9172.060689
9150.513607
9135.761456
9143.24929
9162.85177
9159.499009
9138.331907
9138.108389
9156.325061
9140.723543
9136.744933
9150.580663
9164.952834
9168.931445
9155.855674
9150.155979
9156.772096
9166.204532
9142.645793
9135.761456
9159.878988
9170.384308
9148.434895
9133.861558
9135.42618
9149.843055
9148.323136
9148.233729
9158.336718
9165.28811
9153.844017
9130.933479
9126.46313
9138.041334
9137.951927
9130.061761
9142.064648
9156.034488
9168.573817
9143.003421
9125.747874
9143.785732
9155.140418
9138.041334
9129.480616
9142.288165
9158.783753
9136.744933
9125.479654
9145.462113
9155.319232
9149.574834
9133.12395
9123.803273
9145.395058
9143.875139
9130.240575
9136.141436
9156.258006
9152.972299
9135.604994
9130.955831
9140.231805
9143.942194
9138.2425
9143.741029
9156.705041
9167.769154
9147.205549
9142.176407
9130.955831
9113.856746
9103.172613
9096.355331
9107.419444
9131.447569
9115.913107
9101.697397
9095.125985
9105.899525
9092.220258
9063.16299
9057.217426
9075.97054
9068.885037
9059.83258
9043.918138
9058.335013
9073.66831
9042.957013
9033.792798
9058.402068
9072.953054
9055.161065
9038.799589
9062.872417
9078.295121
9052.188283
9041.481798
9055.585749
9080.373833
9054.19994
9034.84333
9049.70724
9067.678042
9069.376775
9040.923004
9039.20192
9061.441906
9056.233949
9053.574092
9061.397202
9076.752851
9074.897656
9052.031821
9053.216464
9082.296083
9073.377737
9041.951185
9041.302984
9064.459391
9070.784935
9055.161065
9034.97744
9038.777237
9030.931774
9020.471158
9014.682056
9014.72676
9039.045458
9025.790873
8995.928943
8991.145669
8993.58201
8985.311864
8966.178771
8963.742431
8980.841515
8986.764727
8966.871675
8963.742431
8980.014501
8971.900817
8945.235186
8944.721096
8964.301224
8959.652061
8941.837721
8944.00584
8958.892102
8965.709384
8955.360526
8936.741523
8938.216738
8974.806544
8984.864829
8977.511105
8969.620939
8971.118506
8959.585006
8935.623936
8932.33823
8943.022364
8957.349832
8957.908625
8945.548111
8962.20016
8970.000919
8953.594739
8944.654041
8953.125352
8968.123373
8964.211817
8957.84157
8959.674413
8972.258445
8959.786172
8947.112733
8952.298337
8962.088402
8951.493675
8929.00782
8931.287698
8947.20214
8947.604471
8937.613241
8931.555919
8954.086477
8966.759916
8933.701686
8936.31684
8944.318765
8943.849378
8926.660887
8922.056427
8925.252727
8936.160378
8942.307108
8927.756122
8919.240107
8954.064125
8954.958195
8935.690991
8933.925204
8933.053486
8934.305183
8913.674523
8918.5025
8949.392611
8949.236149
8925.051561
8934.238128
8954.689974
8937.881462
8917.697837
8914.076854
8934.036962
8939.848416
8941.502445
8942.97766
8948.833817
8957.148666
8926.303259
8912.936916
8923.174014
8937.322669
8943.804675
8939.759009
8930.997125
8948.74441
8971.453782
8940.049582
8931.242994
8949.727887
8950.465494
8936.808579
8932.829968
8955.494637
8936.719172
8906.477261
8908.846546
8957.595701
8975.588855
8938.484959
8914.479186
8915.976753
8937.725
8937.367372
8925.878576
8915.574421
8925.051561
8918.524852
8910.455872
8919.374218
8941.368334
8943.536454
8921.050599
8928.404323
8925.67741
8940.496616
8924.738637
8919.597735
8936.942689
8939.602547
8919.1507
8912.780453
8928.381971
8968.548056
8944.586986
8938.10498
8952.946538
8939.379029
8930.505387
8916.602602
8922.682276
8954.041774
8954.645271
8929.164282
8921.408227
8947.537416
8944.7658
8929.991297
8926.05739
8929.097227
8945.861035
8941.547148
8944.855207
8953.661794
8933.522872
8924.157491
8930.17011
8928.739599
8935.66864
8935.80275
8933.74639
8943.581157
8937.367372
8928.672544
8917.049636
8921.296468
8935.892157
8931.913547
8945.302241
8953.974718
8943.178826
8921.564689
8903.348017
8928.337267
8949.437314
8946.464532
8927.465549
8921.676448
8960.076745
8963.071878
8936.741523
8909.338285
8929.588965
8931.108884
8932.874672
8928.985468
8949.884349
8980.439184
8956.053431
8918.726017
8910.679389
8941.524797
8951.806599
8941.614204
8937.255613
8957.148666
8966.156419
8959.227378
8965.01648
8962.803657
8960.166152
8934.998087
8929.00782
8956.81339
8953.751201
8925.431541
8927.532605
8939.401381
8957.70746
8943.625861
8930.684201
8954.064125
8965.731736
8948.275023
8935.735695
8928.24786
8966.514047
8947.604471
8930.438331
8944.788151
8962.356623
8965.955253
8938.686125
8921.83291
8908.555974
8915.283849
8933.791093
8933.858148
8961.462553
8964.6365
8951.493675
8954.242939
8930.885366
8899.570572
8923.352828
8956.366355
8985.915361
8999.035835
8949.906701
8899.503517
8895.882534
8920.335343
8931.622974
8924.40336
8949.973756
8948.811465
8935.199253
8933.36641
8946.17396
8958.713288
8962.356623
8897.35775
8894.586133
8943.201178
8962.513085
8943.290584
8948.677355
8972.817239
8988.105832
8973.867771
8940.518968
8933.858148
8950.66666
8938.686125
8930.460683
8944.989317
8964.815314
8959.406192
8936.585061
8943.692916
8960.389669
8961.015518
8939.736657
8933.411113
8963.250692
8990.229248
8964.412983
8959.964986
8987.94937
8974.337158
8940.854244
8941.904776
8951.136047
8948.006803
8931.511215
8942.575329
8967.944559
8975.924131
8953.818256
8952.521855
8960.009689
8988.731681
8951.225454
8922.771683
8954.019422
9000.466347
9002.343893
8967.765745
8950.15257
8962.96012
8976.92996
8946.777457
8935.713343
8963.250692
8968.123373
8957.886274
8956.9475
8953.013593
8961.015518
8962.20016
8966.134067
8975.65591
8971.699652
8965.038832
8978.159306
8952.790076
8961.797829
8963.183637
8946.978622
8947.403305
8970.358547
8964.12241
8946.486884
8955.874617
9005.607248
9001.40512
8956.276948
8946.68805
8959.026213
8948.543244
8921.296468
8946.263366
8977.82403
8976.54998
8953.86296
8953.259463
8985.758899
8980.617998
8954.37705
8955.494637
8948.655003
8955.427582
8953.259463
8941.5695
8947.671526
8978.33812
8973.152515
8936.383895
8936.473302
8974.62773
8982.584951
8965.262349
8944.855207
8964.211817
8966.469343
8938.596718
8941.770666
8967.341062
8980.506239
8961.730774
8956.165189
8957.930977
8974.918303
8950.219625
8940.295451
8968.503352
8982.294379
8953.907663
8946.196311
8952.141875
8964.189466
8948.677355
8933.36641
8951.18075
8977.511105
8963.362451
8946.777457
8935.869805
8952.812428
8956.880445
8938.216738
8941.971832
8936.875634
8950.957233
8958.333308
8973.107812
8995.213687
8991.816222
8955.472285
8914.523889
8931.220642
8958.534474
8946.866864
8949.213797
8962.71425
8962.446029
8954.466457
8950.554901
8971.364376
8984.417794
8955.829913
8937.59089
8951.001936
8960.680242
8959.182675
8951.203102
8960.233207
8975.365338
8978.382823
8966.961082
8973.241922
8966.514047
8955.628747
8926.213852
8931.041829
8946.464532
8974.314806
8971.386727
8947.939747
8958.065088
8982.428489
8964.547093
8948.878521
8939.289622
8966.916378
8971.6773
8948.319727
8927.465549
8945.995146
8993.380844
8972.70548
8950.01846
8952.298337
8952.253634
8946.553939
8952.700669
8956.589872
8955.91932
8944.028192
8947.939747
8974.381861
8971.073803
8943.379991
8929.499558
8950.66666
8969.464477
8947.582119
8932.248823
8940.742486
8964.703556
8961.082573
8956.880445
8945.995146
8946.30807
8933.254651
8918.167224
8929.678372
8962.848361
8987.278818
8985.155402
8971.252617
8984.686015
9006.65778
9005.406082
8990.519821
8996.174812
9035.379772
9036.184434
9018.303039
9030.596498
9062.604196
9067.610987
9064.839371
9068.92974
9102.993799
9104.223145
9069.689699
9073.735365
9070.650824
9069.130906
9048.008507
9053.03765
9060.078449
9071.835467
9066.672214
9057.597406
9063.475914
9061.933644
9046.421533
9033.524577
9055.541045
9068.952092
9053.149408
9038.196091
9049.818999
9056.077487
9047.516769
9027.28844
9030.037705
9060.547836
9065.889903
9028.406027
9035.044495
9049.237853
9068.840333
9045.214539
9025.768522
9034.97744
9047.248548
9058.357365
9051.987118
9040.855949
9047.449714
9045.34865
9050.087219
9044.231062
9056.613929
9052.635318
9020.806434
9023.242774
9053.618795
9051.7636
9020.918193
9028.741304
9051.718897
9071.835467
9042.375868
9033.837501
9049.863702
9057.463295
9044.253414
9033.479873
9044.119304
9068.482705
9053.216464
9038.397257
9048.81317
9050.824827
9042.509978
9025.321487
9031.669382
9040.140693
9030.864719
9018.817129
9011.239888
9026.170853
9018.079521
9007.283629
9004.713178
9019.867661
9025.455597
9016.872527
9010.479928
9019.711199
9015.37496
8996.15246
8990.430414
9011.038722
9033.256356
9017.856004
9010.256411
9023.019257
9011.53046
9001.874507
8989.737509
9002.187431
9018.168928
9002.29919
8979.276893
8990.2516
9019.062998
9007.104815
8997.381806
9005.719007
9017.788949
9016.939582
9001.181603
8992.576181
9011.01637
9016.201975
9008.96001
9002.165079
9004.109681
9008.624734
8994.386672
8984.887181
8985.915361
9002.030969
8976.54998
8988.485812
9007.797719
9015.62083
9005.897821
8987.167059
8976.862905
8992.486774
8975.745317
8979.478059
9002.589763
9005.11551
9011.999847
9023.82392
9023.421588
9023.265126
9029.300097
9015.732588
9016.604306
9012.268068
9046.175664
9031.937603
9026.170853
9025.209728
9041.12417
9035.379772
9004.176736
9007.708312
9020.091178
9029.791836
9037.547891
9037.302022
9052.076525
9061.732478
9018.459501
8998.857021
9051.584786
9060.659595
9028.115455
9024.181548
9020.739379
9044.164007
9020.962896
9051.562435
9056.189246
9033.81515
9039.246623
9024.315658
8993.783175
9001.583934
9010.792853
9004.780233
9017.967763
9046.220368
9032.943431
8977.041719
8994.051396
9032.764618
9029.255394
9013.45271
9031.602327
9034.865682
9017.565431
9012.201013
8987.792908
8995.034873
9030.350629
9023.198071
8997.381806
9021.499338
9034.888033
9005.182565
8988.172887
9019.912364
9027.914289
9004.981399
9013.050379
8991.480946
9005.987228
9030.372981
8992.643236
8996.755957
9032.183472
9017.67719
9008.512975
8994.811355
8987.94937
9031.378809
9007.574202
9014.637353
9013.340952
9021.029952
9001.136899
8980.975626
8998.499393
9031.311754
9032.988135
9006.635428
8985.13305
9009.563507
9033.613984
8998.678207
9016.26903
9015.866699
8986.272989
8991.659759
8992.039739
9009.898783
8999.728739
8986.563562
8978.114602
9004.109681
9033.591632
9008.155347
8991.92798
9015.844347
9009.339989
8985.423623
8994.61019
8990.341007
8991.79387
8980.640349
8983.479021
9006.210745
9012.603344
9028.18251
9020.582917
9035.804455
9045.661574
9048.880225
9047.9191
9048.991984
9070.47201
9068.683871
9049.371964
9042.040591
9066.11342
9091.080319
9076.954016
9042.398219
9056.680984
9088.15224
9078.183362
9047.673231
9067.231007
9079.993854
9058.692641
9060.883112
9052.814132
9077.64692
9098.255229
9067.90156
9041.481798
9073.556551
9065.778144
9071.209618
9075.299987
9068.460353
9080.664406
9078.451583
9070.628473
9080.485592
9112.87327
9068.639167
9051.316565
9059.251435
9073.914179
9068.303891
9055.09401
9047.829693
9054.892845
9034.597461
8985.580085
8983.993111
9007.440091
9003.595591
8987.122355
8998.834669
8999.684036
9001.114547
8981.579123
8978.159306
8984.283684
8984.082518
8977.756974
8975.253579
8993.291437
8987.681149
8970.827934
8976.214704
8989.35753
9002.612114
8990.117489
8979.992149
8987.792908
9008.468271
9001.628638
8987.100004
8974.851248
8988.552867
9002.545059
8993.023216
8973.577198
8991.41389
8990.877448
8978.271065
8974.381861
8996.957123
8997.471213
8959.786172
8963.071878
8979.388652
8975.275931
8968.458649
8971.16321
8982.31673
8995.414853
8988.776384
8960.792
8963.876541
8992.866754
8988.59757
8974.359509
8971.6773
8990.564524
8981.333254
8947.291547
8969.88916
8989.089309
8985.334216
8946.755105
8949.794942
8980.081556
8984.708367
8976.058242
8983.031986
8989.558696
8994.833707
8991.056262
8964.6365
8985.714195
8988.038777
8981.869695
8989.111661
8989.87162
8990.788041
9004.288495
8992.375015
8988.932847
8997.56062
8987.681149
8968.682166
8969.553884
8995.347797
8994.811355
8967.8328
8974.180695
8980.752108
9010.189356
8987.345873
8977.153477
8994.252562
8961.17198
8963.697727
8981.914399
9006.635428
9013.609173
8992.486774
8971.29732
8964.971777
8966.379937
8963.183637
8992.240905
8995.884239
9005.808414
8998.946428
8975.65591
8960.635538
8971.230265
8970.492657
8980.953274
9001.136899
8994.632541
8983.031986
8981.109736
8965.955253
8971.453782
8991.346835
8999.125242
8979.612169
8974.49362
8998.96878
8992.82205
8992.106794
8991.212725
9003.774405
8989.35753
8971.856114
8972.996053
9005.674303
8996.800661
8996.733605
8993.20203
8985.222457
8988.686977
8968.056317
8976.795849
8995.370149
8984.596608
8964.390631
8965.552922
8983.702538
9005.875469
8997.9406
8966.491695
8984.328387
8992.799698
8954.600567
8963.273044
9002.500356
8989.513992
8971.498486
8937.814407
8963.831838
8989.268123
8964.077707
8950.398439
8980.148611
8973.890123
8945.816332
8941.211872
8968.324538
8996.823012
8978.382823
8973.577198
8968.101021
8964.323576
8989.49164
8971.520838
8937.769704
8966.312881
8966.156419
8978.293416
8964.033003
8949.482018
8947.984451
8945.190483
8960.836704
8950.063163
8964.547093
8973.510143
8938.395552
8961.283739
8974.873599
8980.617998
8945.078724
8924.626878
8957.84157
8964.234169
8948.878521
8952.4548
8977.779326
8968.503352
8959.450896
8957.908625
8977.935788
8977.153477
8970.403251
8952.790076
8963.809486
8964.748259
8956.701631
8944.318765
8938.395552
8960.344965
8972.347852
8961.753125
8939.155512
8959.473247
8968.101021
8957.908625
8949.392611
8941.234224
8970.917341
8958.892102
8944.497579
8943.983489
8963.47421
8951.739544
8932.002954
8946.755105
8974.851248
8974.314806
8952.410096
8954.913492
8971.453782
8964.480038
8952.499503
8959.182675
8961.529608
8959.294434
8947.470361
8945.324593
8955.53934
8954.824085
8936.294488
8932.114712
8936.070971
8963.675375
8957.685108
8964.323576
8979.589817
8969.419774
8942.307108
8926.817349
8942.642384
8957.573349
8968.458649
8957.975681
8957.081611
8963.898893
8953.751201
8941.681259
8946.68805
8962.691899
8962.222512
8959.674413
8957.260425
8964.770611
8964.971777
8966.849323
8955.964024
8969.24096
8972.549018
8969.017442
8970.112678
8976.170001
8980.90857
8967.653986
8963.183637
8969.732698
8984.082518
8979.992149
8963.384803
8967.721041
8992.263257
8981.981454
8965.932902
8975.767669
8980.796812
8969.911512
8971.140858
8973.063108
8980.729756
8978.427527
8968.145724
8960.121448
8977.846381
9000.689864
8980.461536
8961.395497
8972.549018
8986.340044
8974.560675
8970.224437
8962.088402
8976.371166
8968.21278
8963.340099
8963.407154
8980.841515
8983.143745
8961.462553
8985.490678
9001.27101
8993.112623
8982.026158
8964.301224
8977.399347
8985.714195
8974.605378
8977.645216
8991.659759
9002.701521
8988.105832
8967.721041
8965.687032
8971.029099
8978.159306
8988.195239
8998.521745
9007.909478
8992.196201
8981.310902
8979.3663
8994.0961
8993.291437
8988.619922
8982.786117
9003.305018
8999.147594
8984.216629
8971.16321
8983.546076
8998.45469
8983.568428
8975.454745
8984.417794
8997.024178
8989.558696
8988.910495
8986.67532
8997.113585
8989.290475
8980.193315
8981.333254
8994.990169
8982.629655
8973.800716
8980.349777
8981.690881
8976.594684
8971.029099
8982.808469
8994.990169
8994.833707
8983.747242
8987.100004
8995.146632
8993.604361
8962.848361
8953.371221
8984.194277
9000.622809
8980.796812
8966.379937
8978.516934
8980.103908
8973.912474
8971.118506
8980.26037
8996.174812
8978.293416
8960.546131
8971.587893
8987.234114
8977.332291
8959.205027
8972.236094
8997.9406
8997.113585
8983.099041
8986.02712
8983.389614
8979.165134
8968.548056
8974.605378
8995.660722
8996.219515
8972.370204
8978.829858
8998.253524
9002.008617
8988.172887
8973.823067
8980.528591
8992.196201
8986.965893
8981.579123
8983.680187
9002.500356
9002.857983
8986.876486
8996.778309
9012.089254
8986.205934
8970.582064
8979.74628
8993.134975
8993.224382
8984.864829
8979.075727
8980.036852
8988.508164
8993.760823
8989.916323
8998.499393
9007.395388
8984.976588
8991.346835
8999.371111
9004.646123
8982.808469
8970.000919
8976.54998
9003.059149
9002.522707
8986.183582
8982.406137
8985.356568
8986.004768
8974.806544
8967.8328
8987.56939
8990.475117
8977.041719
8970.760878
8976.572332
8984.373091
8954.533512
8961.68607
8985.714195
8995.705425
8980.170963
8970.157381
8979.969797
8994.431376
8981.400309
8965.105887
8973.331329
8980.975626
8975.231227
8976.214704
8986.496507
8983.948408
8979.612169
8971.900817
8967.139896
8991.592704
8995.25839
8971.274969
8956.098134
8981.377957
9000.421643
8983.948408
8965.217646
8980.439184
8990.341007
8985.937713
8977.756974
8976.818201
8990.341007
8987.100004
8970.894989
8973.890123
8997.851193
8992.352664
8971.118506
8967.430468
8990.318655
8989.893972
8979.254541
8980.26037
8984.395443
8992.039739
8988.910495
8974.49362
8989.715158
8999.639332
8983.546076
8983.07669
8990.76569
8994.811355
8984.417794
8983.970759
8987.100004
8997.739434
8985.714195
8971.118506
8975.566503
8992.732643
8986.854134
8982.361434
8991.078614
9001.159251
8992.039739
8972.750184
8968.749221
8986.496507
9001.852155
8989.201068
8981.087384
8986.116527
8995.25839
8990.631579
8993.112623
8990.206896
9005.294324
9000.533402
8990.855097
8990.631579
9001.069844
8999.706387
8982.227323
8975.65591
9004.444957
9003.32737
8981.601474
8978.271065
8989.156364
8990.922152
8978.293416
8969.039794
8987.189411
8996.778309
8994.587838
8979.612169
8988.686977
8988.038777
8968.168076
8962.043698
8982.428489
9000.913382
8993.023216
8981.757937
8983.59078
8984.507201
8972.861942
8962.334271
8971.252617
8992.375015
8986.362396
8979.165134
8984.99894
9000.533402
9000.242829
8985.289512
8974.828896
8989.49164
8989.134012
8964.435335
8959.674413
8986.340044
9001.516879
8980.975626
8968.749221
8980.997977
9002.410949
8985.311864
8975.164172
8989.134012
9001.583934
8996.375978
8964.100059
8959.853227
8997.18064
8995.079576
8980.550942
8980.863867
8989.581047
8981.892047
8964.189466
8982.875524
9008.915306
9003.573239
8965.262349
8965.53057
8984.954236
9007.55185
8985.602437
8977.175829
8984.149573
9001.181603
8984.283684
8974.091288
8983.099041
8991.369187
8982.741413
8969.777402
8982.048509
9007.909478
9001.583934
8978.405175
8966.335233
8981.221495
8980.483887
8967.653986
8965.798791
8984.820126
8989.290475
8977.153477
8969.062146
8976.684091
8985.043643
8971.096155
8959.517951
8969.285663
8987.234114
8984.127222
8976.706442
8985.356568
8995.839536
8989.335178
8967.206951
8985.043643
8996.621847
8985.557733
8971.118506
8976.661739
8987.278818
8980.640349
8964.792963
8972.481963
8990.184544
8992.576181
8972.57137
8965.642329
8969.330367
8980.439184
8979.053376
8972.169038
8971.364376
8980.282722
8964.323576
8954.265291
8967.095192
8988.239943
8989.826916
8975.544152
8966.491695
8979.120431
8974.694785
8966.134067
8968.950387
8980.77446
8977.376995
8959.070916
8967.206951
8986.898838
8993.894934
8970.559713
8960.121448
8973.197219
8972.101983
8959.562654
8956.276948
8960.501428
8975.544152
8968.972739
8954.019422
8963.876541
8977.95814
8967.989262
8947.403305
8947.559768
8975.320634
8983.2108
8968.123373
8950.01846
8974.046585
8989.066957
8973.666605
8957.662756
8971.140858
8976.974663
8962.870713
8960.434372
8977.220533
8990.989207
8974.49362
8964.36828
8977.153477
8994.23021
8979.925094
8957.260425
8958.445067
8973.420736
8969.397422
8959.406192
8964.703556
8975.365338
8967.296358
8954.622919
8947.135085
8964.323576
8973.443088
8956.165189
8949.370259
8960.501428
8979.299245
8962.088402
8943.625861
8956.9475
8969.196256
8964.994128
8959.62971
8961.17198
8973.577198
8965.754088
8954.153532
8958.534474
8966.04466
8963.697727
8965.977605
8972.034928
8973.197219
8966.782268
8953.751201
8955.494637
8959.406192
8962.446029
8943.469398
8926.437369
8945.101076
8957.819218
8940.250747
8930.795959
8946.889215
8966.648157
8946.486884
8933.031134
8934.752218
8944.676393
8940.518968
8930.795959
8933.612279
8949.906701
8942.910605
8925.319782
8923.352828
8944.363468
8943.469398
8930.237166
8936.808579
8945.235186
8953.684146
8933.74639
8926.549128
8939.490788
8949.504369
8936.383895
8924.939802
8944.363468
8947.626823
8936.562709
8931.868843
8932.785265
8951.985413
8941.860073
8928.069047
8945.838683
8970.023271
8957.685108
8923.464587
8926.124445
8953.415925
8949.616128
8926.035038
8929.454855
8951.806599
8948.722058
8940.071933
8938.060276
8955.829913
8970.78323
8938.328497
8918.88248
8939.26727
8945.92809
8934.752218
8930.17011
8938.954346
8945.771628
8936.138026
8922.235241
8929.991297
8954.131181
8948.565596
8941.793018
8942.038887
8942.195349
8943.223529
8928.158453
8931.667677
8954.913492
8951.69484
8936.272137
8938.529663
8943.625861
8944.028192
8927.711419
8917.09434
8935.512177
8947.626823
8929.65602
8927.018515
8929.231337
8944.184654
8942.284756
8927.309087
8935.623936
8935.892157
8930.103055
8932.002954
8938.820236
8943.424695
8940.384858
8938.61907
8941.323631
8953.460628
8949.392611
8934.551052
8924.001029
8933.455817
8947.872692
8943.894082
8937.613241
8945.682221
8950.867826
8936.942689
8928.694895
8935.333363
8933.031134
8911.70757
8909.584154
8920.312991
8931.175939
8936.115675
8917.340209
8923.442235
8945.771628
8943.983489
8931.57827
8915.641477
8921.296468
8928.158453
8909.248878
8918.927183
8939.334326
8939.826064
8933.478169
8926.079741
8920.849433
8938.172035
8921.899965
8912.042846
8929.298392
8956.880445
8941.748314
8916.133215
8922.816387
8935.489826
8938.082628
8928.471378
8929.164282
8940.138989
8938.931994
8915.775587
8919.128349
8939.155512
8942.575329
8929.767779
8919.262459
8928.717247
8932.740561
8924.850395
8912.065197
8917.809596
8930.326573
8933.344058
8925.230375
8927.934936
8935.199253
8931.600622
8935.959212
8950.644308
8966.648157
8950.063163
8935.467474
8943.827026
8962.311919
8944.207006
8909.53945
8916.893174
8944.698744
8944.229358
8929.991297
8922.212889
8941.413038
8944.89991
8920.290639
8906.164337
8928.560785
8943.424695
8936.965041
8925.029209
8924.135139
8929.231337
8923.106959
8906.141985
8914.948573
8937.59089
8925.878576
8923.866919
8931.354753
8936.138026
8921.050599
8899.41411
8914.233317
8937.657945
8939.893119
8924.939802
8916.133215
8926.05739
8930.103055
8922.570517
8907.974828
8913.808634
8927.08557
8917.273154
8901.381064
8908.935953
8930.795959
8921.117654
8914.658
8923.777512
8916.20027
8916.982581
8926.280907
8929.790131
8941.010707
8927.152625
8885.712491
8883.477316
8918.033113
8933.902852
8923.643401
8921.274116
8927.197328
8927.130273
8907.080758
8906.410206
8915.708532
8924.045733
8922.749331
8923.509291
8930.706552
8935.087494
8930.795959
8915.395607
8909.673561
8931.935898
8944.251709
8933.925204
8922.302296
8920.447102
8918.860128
8913.071026
8920.80473
8930.55009
8926.102093
8914.970924
8904.197383
8918.278982
8923.330477
8911.4617
8894.966113
8916.021456
8933.656983
8922.525814
8914.568593
8923.308125
8931.82414
8915.68618
8904.622067
8918.435445
8938.820236
8933.433465
8913.607468
8921.83291
8930.013648
8920.670619
8909.78532
8913.965096
8928.270212
8929.432503
8905.851413
8906.879593
8910.589982
8925.81152
8920.581212
8910.120596
8920.111825
8932.785265
8919.687142
8911.953439
8914.032151
8920.491805
8919.441273
8906.745482
8903.616238
8910.880555
8907.728959
8910.05354
8918.346038
8930.058352
8924.626878
8903.169203
8902.453947
8902.118671
8912.623991
8920.871785
8920.223584
8926.951459
8927.331439
8910.880555
8902.900982
8913.272192
8919.39657
8913.38395
8905.136157
8908.041883
8910.835852
8911.908735
8898.207116
8909.159471
8933.344058
8917.451968
8894.608485
8894.250857
8887.008892
8913.786282
8914.255668
8891.367482
8875.698909
8891.680407
8880.616293
8881.622122
8886.695968
8900.732863
8883.901999
8882.292674
8888.037072
8891.367482
8868.747517
8846.999269
8856.23054
8864.321871
8861.706717
8866.199418
8873.240217
8885.176049
8888.081776
8868.009909
8855.515284
8875.855371
8892.574476
8888.573514
8884.41609
8895.904886
8899.101186
8897.469508
8889.132308
8895.547258
8916.602602
8910.500575
8892.797994
8894.854354
8913.138081
8905.359674
8886.137174
8886.181877
8895.994293
8897.625971
8891.009854
8897.290694
8913.473357
8914.412131
8903.795052
8896.798956
8898.52004
8901.939857
8889.020549
8893.200325
8906.745482
8902.275133
8884.661959
8890.272247
8906.857241
8916.267325
8890.227543
8886.874781
8899.257648
8911.4617
8909.584154
8900.397587
8900.554049
8911.908735
8900.330532
8884.03611
8892.2392
8908.690084
8906.544317
8887.925313
8892.216848
8908.980657
8906.924296
8901.448119
8897.089529
8901.693988
8901.693988
8878.582284
8866.266473
8883.700834
8905.963171
8892.730939
8883.857296
8886.807726
8885.06429
8882.315026
8880.281017
8885.95836
8897.804785
8877.419994
8857.839865
8877.330587
8908.354808
8922.525814
8909.494747
8911.640514
8941.413038
8936.428599
8917.407264
8911.081721
8920.402398
8926.526776
8921.721151
8921.296468
8932.226471
8947.157436
8934.819273
8918.390741
8922.190538
8945.570462
8934.752218
8919.664791
8925.364485
8935.266308
8934.595756
8915.753235
8908.444215
8932.874672
8932.449988
8920.715323
8914.255668
8934.640459
8931.891195
8914.188613
8901.090491
8926.660887
8946.844512
8934.26048
8922.525814
8921.229413
8930.058352
8925.476244
8912.378122
8910.165299
8922.525814
8923.151663
8904.264439
8915.663828
8937.702648
8934.305183
8915.68618
8909.02536
8928.896061
8925.67741
8916.155567
8917.027285
8922.570517
8923.799863
8902.766872
8901.001084
8920.648267
8927.934936
8915.440311
8915.529718
8920.93884
8924.358657
8914.121558
8906.141985
8916.759064
8931.019477
8925.498596
8912.445177
8909.137119
8923.084607
8917.161395
8903.526831
8910.098244
8918.278982
8918.278982
8904.331494
8901.984561
8924.64923
8931.242994
8920.156529
8908.287753
8920.491805
8932.762913
8923.039904
8903.884459
8915.149738
8931.82414
8914.434482
8902.36454
8909.092415
8932.159416
8927.890233
8908.37716
8909.070064
8918.100168
8920.491805
8908.690084
8918.413093
8932.360581
8927.21968
8911.752273
8901.135194
8921.274116
8936.808579
8924.939802
8914.546241
8918.055465
8915.574421
8907.594849
8907.974828
8918.480148
8926.258555
8917.519023
8904.577363
8905.069101
8921.922317
8935.221605
8926.817349
8926.392666
8924.425712
8914.121558
8911.32759
8908.332456
8906.633724
8922.615221
8919.664791
8924.246898
8946.30807
8953.639442
8929.276041
8920.134177
8941.5695
8953.348869
8945.235186
8935.847454
8939.155512
8947.380954
8945.972794
8944.810503
8941.725962
8945.436352
8936.719172
8927.711419
8924.760988
8937.300317
8931.332401
8922.011724
8924.023381
8943.268233
8947.604471
8929.365448
8922.883442
8939.222567
8944.631689
8930.192462
8927.420846
8947.20214
8958.199198
8945.302241
8921.095302
8916.915526
8942.240052
8935.132198
8922.391703
8933.74639
8946.889215
8933.902852
8922.436407
8934.439294
8950.800771
8940.273099
8923.509291
8934.953384
8939.468436
8934.081666
8929.186634
8919.798901
8929.387799
8936.383895
8921.341171
8917.09434
8933.344058
8943.648212
8935.556881
8929.030172
8932.070009
8944.855207
8939.311974
8932.181767
8934.528701
8943.737619
8927.957288
8919.620087
8923.285773
8933.142892
8930.572442
8919.843605
8916.043808
8927.756122
8933.299355
8921.117654
8914.903869
8929.65602
8938.440256
8928.225509
8921.698799
8926.303259
8935.713343
8918.860128
8905.359674
8918.949535
8936.897986
8934.551052
8916.759064
8925.409189
8940.630727
8935.266308
8918.100168
8917.586078
8939.602547
8939.624898
8923.75516
8927.443198
8940.563672
8939.379029
8922.525814
8919.262459
8935.80275
8942.84355
8927.756122
8913.451006
8929.946593
8950.465494
8942.508273
8924.090436
8925.252727
8934.305183
8911.931087
8911.506404
8924.358657
8941.904776
8935.601584
8922.950497
8925.632706
8939.535491
8936.942689
8919.374218
8923.37518
8943.044715
8936.652116
8930.885366
8926.660887
8939.110808
8952.745372
8935.445122
8933.411113
8945.436352
8951.918358
8945.436352
8932.85232
8929.432503
8931.377105
8926.370314
8925.744465
8929.276041
8941.860073
8941.971832
8937.300317
8941.323631
8947.448009
8935.020439
8912.288715
8917.116692
8930.818311
8934.975736
8916.826119
8919.843605
8938.127332
8944.251709
8936.205081
8931.488863
8935.243956
8933.634631
8923.978677
8924.40336
8935.80275
8952.991242
8953.594739
8929.611317
8920.648267
8929.164282
8925.990334
8923.464587
8912.244011
8933.120541
8940.854244
8925.766817
8923.643401
8926.258555
8938.015573
8934.036962
8920.491805
8919.284811
8942.642384
8931.310049
8911.953439
8924.716285
8941.480093
8922.145834
8909.271229
8926.727942
8936.138026
8920.178881
8906.298447
8919.061293
8942.061239
8922.302296
8890.69693
8895.010816
8909.003008
8909.40534
8898.028302
8889.199363
8897.089529
8885.891305
8876.8612
8870.893284
8880.482183
8882.605598
8858.823342
8847.289842
8864.187761
8877.487049
8863.91954
8852.989537
8853.41422
8858.555121
8858.823342
8860.700889
8865.215941
8876.749441
8874.402508
8867.317005
8860.857351
8873.307273
8882.359729
8867.741688
8860.834999
8866.445287
8873.0167
8849.100333
8847.759229
8874.536619
8885.108994
8869.708642
8851.536673
8857.906921
8866.86997
8863.450153
8848.429781
8862.109049
8876.503572
8860.745592
8846.686345
8853.570682
8870.222732
8865.3277
8863.606615
8863.584264
8873.083755
8859.091563
8849.212092
8849.212092
8859.04686
8874.782488
8871.072098
8860.611482
8862.220807
8874.491915
8866.802915
8858.80099
8876.123592
8880.057499
8862.936063
8858.264549
8856.409354
8874.760136
8860.030336
8859.382136
8867.629929
8873.799011
8857.281072
8850.262624
8863.941892
8881.957398
8875.520095
8872.167334
8876.168296
8893.222677
8912.825157
8887.88061
8869.105145
8876.570627
8885.310159
8876.525924
8877.621159
8882.896171
8884.751366
8874.626026
8874.246046
8885.533677
8895.077872
8880.392776
8864.098354
8862.623139
8886.137174
8885.690139
8871.116802
8884.594904
8896.150755
8901.738692
8887.075947
8883.879648
8893.289732
8893.155622
8869.775697
8871.943816
8888.528811
8893.736767
8886.740671
8882.940874
8895.122575
8896.97777
8880.929217
8866.802915
8881.867991
8895.681369
8886.427747
8872.681424
8879.006967
8898.76591
8895.815479
8877.732918
8871.899113
8885.846601
8893.960284
8879.185781
8873.553142
8887.098299
8896.016645
8879.431651
8866.847618
8880.906866
8887.50063
8875.654206
8872.681424
8872.569665
8892.127441
8873.329624
8867.428764
8888.752328
8897.380101
8889.28877
8866.22177
8845.836979
8872.592017
8894.183802
8872.100278
8885.57838
8907.326628
8899.28
8888.864087
8895.748424
8927.21968
8929.499558
8899.592924
8903.415072
8915.596773
8918.390741
8911.774625
8902.655113
8913.294543
8932.740561
8930.728904
8913.071026
8920.648267
8931.153587
8919.977715
8905.583192
8911.796977
8918.055465
8916.71436
8907.036055
8900.95638
8915.462663
8929.499558
8912.691046
8906.20904
8921.877613
8924.582174
8901.604581
8903.057444
8923.576346
8925.699762
8904.130328
8903.951514
8912.758102
8923.24107
8910.455872
8897.201287
8917.496671
8927.487901
8919.240107
8904.577363
8907.125462
8924.805692
8913.674523
8899.168241
8894.004988
8905.314971
8903.146851
8893.177973
8899.369407
8918.435445
8923.017552
8904.800881
8897.424805
8906.58902
8922.302296
8917.429616
8904.040921
8904.398549
8918.770721
8912.065197
8901.112843
8907.952476
8927.018515
8917.854299
8900.531697
8904.309142
8922.794035
8917.98841
8909.986485
8904.331494
8912.758102
8916.803767
8906.119633
8899.056482
8917.831948
8923.509291
8911.528756
8906.611372
8920.067122
8935.266308
8921.743503
8899.838793
8910.992314
8924.358657
8908.444215
8903.63859
8913.071026
8925.900927
8924.984506
8909.338285
8915.753235
8924.112788
8921.229413
8900.710511
8901.71634
8920.380046
8926.303259
8925.543299
8927.59966
8928.851358
8920.04477
8907.080758
8902.923334
8905.158508
8909.986485
8901.559878
8902.521003
8912.22166
8924.068084
8917.295506
8908.690084
8915.015628
8920.000067
8915.194442
8905.672599
8897.268343
8915.596773
8921.095302
8894.67554
8888.26059
8914.814462
8928.516081
8916.379084
8907.661904
8922.570517
8918.658962
8896.754253
8892.350959
8904.800881
8916.446139
8902.632761
8892.395662
8891.367482
8905.627895
8898.38593
8887.522982
8897.044825
8915.68618
8913.38395
8895.971941
8899.41411
8901.381064
8910.388817
8898.452985
8893.446194
8906.678427
8916.155567
8897.201287
8893.64736
8905.650247
8921.989372
8909.427692
8898.274171
8912.601639
8918.994238
8903.146851
8893.781471
8907.505442
8918.927183
8912.311067
8897.268343
8897.022473
8910.455872
8906.521965
8883.857296
8883.231447
8902.722168
8904.845584
8892.775642
8892.462718
8914.076854
8905.69495
8896.262514
8895.547258
8917.295506
8917.384913
8901.381064
8887.858258
8891.85922
8900.486994
8906.07493
8908.980657
8898.721206
8900.978732
8881.800935
8866.132363
8865.9759
8879.588113
8860.387964
8845.300537
8839.265566
8843.735915
8834.683458
8818.366685
8808.576621
8819.752493
8813.494004
8794.271504
8793.757414
8802.564001
8798.384225
8774.311396
8768.231722
8782.000396
8791.723405
8785.599027
8781.463955
8785.37551
8793.891525
8786.515449
8783.542667
8790.538763
8801.871097
8792.259847
8783.430908
8777.865324
8797.579562
8795.322036
8775.943074
8772.05387
8777.775917
8782.089803
8775.183114
8771.696242
8782.022748
8790.158783
8780.50283
8770.310434
8773.819658
8797.400748
8788.303588
8770.802173
8773.014995
8792.125737
8786.604856
8768.254074
8764.297815
8784.459088
8784.280274
8765.39305
8762.599082
8791.097556
8791.164612
8774.892542
8768.20937
8785.733138
8786.068414
8774.713728
8776.010129
8789.175306
8791.544591
8771.495077
8765.437754
8775.652501
8787.208353
8772.880885
8771.852705
8776.904199
8783.363853
8780.480478
8780.905161
8777.351234
8791.075205
8797.445452
8779.541705
8781.262789
8788.616513
8791.902219
8777.239475
8772.657367
8792.639827
8790.672873
8767.628225
8764.521332
8785.666083
8794.942057
8774.445507
8770.980986
8778.066489
8789.510583
8771.562132
8761.369736
8776.568923
8788.281237
8782.693301
8771.875056
8774.132582
8788.638865
8781.374548
8768.611702
8767.18119
8781.307492
8780.279312
8762.934358
8749.746829
8767.583521
8777.507696
8773.931417
8764.208408
8771.606835
8781.083975
8765.102478
8748.562187
8758.106382
8777.462992
8773.260864
8761.995585
8773.350271
8786.694263
8774.199638
8757.435829
8765.169533
8780.793402
8778.915856
8761.302681
8764.320167
8774.512562
8767.136486
8760.945053
8770.623359
8780.592237
8786.202524
8772.635016
8759.961576
8767.963501
8772.970292
8766.935321
8755.625338
8769.863399
8783.900295
8772.43385
8758.106382
8758.709879
8777.619455
8774.423155
8767.225893
8759.671004
8764.36487
8765.951844
8760.90035
8757.70405
8768.790516
8772.43385
8765.080126
8763.157876
8776.613626
8775.585446
8753.256053
8753.770143
8772.56796
8779.139373
8759.425135
8766.689452
8768.634053
8770.712766
8758.21814
8756.407649
8767.538818
8776.501867
8762.755545
8750.685603
8752.83137
8765.057774
8758.575768
8759.447486
8755.64769
8765.325995
8773.216161
8759.693356
8752.540797
8762.755545
8763.940187
8749.836236
8743.823617
8751.378507
8770.936283
8758.352251
8737.945108
8747.154027
8757.346422
8755.64769
8748.405725
8761.012108
8778.066489
8764.722498
8754.708917
8754.865379
8771.875056
8766.845914
8751.154989
8750.52914
8776.054832
8779.161725
8757.167608
8753.546626
8770.533952
8782.805059
8765.90714
8757.927568
8761.302681
8766.264768
8753.256053
8742.750733
8749.12098
8765.325995
8765.370699
8749.568015
8748.718649
8761.369736
8761.369736
8749.679774
8742.013126
8756.67587
8758.709879
8748.0928
8753.814847
8778.692338
8778.066489
8756.005318
8747.891634
8753.032536
8763.381393
8760.90035
8752.809018
8759.291024
8772.724423
8752.429039
8746.327012
8761.190922
8771.472725
8763.873132
8761.682661
8766.778859
8779.474649
8771.763298
8754.530103
8759.067507
8776.457164
8767.851742
8750.193864
8746.885806
8766.689452
8769.282254
8742.035477
8742.013126
8772.143277
8786.515449
8761.213274
8751.199693
8761.526199
8767.047079
8756.586463
8751.624376
8752.518446
8758.687527
8751.512617
8743.756562
8753.636033
8778.558228
8777.015957
8753.099591
8739.219158
8754.664213
8770.913931
8754.150123
8750.082105
8769.10344
8771.875056
8757.413478
8753.881902
8763.940187
8770.5116
8756.385297
8759.872169
8766.689452
8767.337652
8754.083068
8743.86832
8751.870245
8768.052908
8764.767202
8751.982004
8754.284233
8768.969329
8757.994623
8747.95869
8750.01505
8768.812867
8768.611702
8755.424172
8754.37364
8778.826449
8773.216161
8751.445562
8745.030611
8760.185094
8767.807039
8755.178303
8760.185094
8764.990719
8768.231722
8752.272576
8752.83137
8761.861475
8769.48342
8758.329899
8747.288137
8753.233701
8764.387222
8765.147181
8749.277443
8751.870245
8770.042213
8768.187018
8756.29589
8758.732231
8775.428984
8760.185094
8748.539835
8746.662289
8772.366795
8782.067452
8763.359042
8752.741963
8753.479571
8765.616568
8753.479571
8734.055905
8750.52914
8766.577693
8751.378507
8733.22889
8730.345515
8742.035477
8739.956765
8720.443692
8717.001524
8729.697314
8741.677849
8733.251242
8731.597213
8747.71282
8764.834257
8750.685603
8731.016067
8748.785704
8764.23076
8757.70405
8749.009222
8764.275463
8766.555341
8751.624376
8740.806131
8737.743942
8753.993661
8741.901367
8723.952916
8725.852814
8742.527216
8751.736134
8741.722553
8738.325088
8757.882864
8765.817734
8748.897463
8741.29787
8761.325033
8764.186056
8747.377544
8743.108361
8747.645765
8755.334765
8751.646728
8745.65646
8751.467914
8754.977137
8737.341611
8728.713838
8740.739076
8752.406687
8746.952861
8738.034515
8732.357172
8745.321184
8742.415457
8726.322201
8720.577803
8734.301774
8733.698277
8715.146329
8724.355248
8748.115152
8764.320167
8750.797361
8732.558338
8744.471818
8763.537856
8744.136541
8731.127826
8742.974251
8758.21814
8753.278405
8744.807094
8739.733248
8750.462085
8748.361021
8741.029649
8743.644803
8760.430963
8752.585501
8741.521387
8737.676887
8750.797361
8765.460106
8746.103495
8726.255146
8735.911099
8751.266748
8740.962594
8723.572936
8741.007297
8768.455239
8763.806077
8750.193864
8749.299794
8759.894521
8762.979062
8749.836236
8744.471818
8755.312414
8768.343481
8751.579672
8735.53112
8754.083068
8760.676832
8749.210387
8743.264823
8757.838161
8770.243379
8756.787629
8740.26969
8743.711858
8762.867303
8756.16178
8738.570957
8729.518501
8742.683678
8757.435829
8735.464065
8728.780893
8742.035477
8752.674908
8741.923719
8713.4923
8719.504919
8747.466951
8747.824579
8732.111303
8735.352306
8744.605928
8738.436847
8726.545718
8730.993716
8749.411553
8746.371716
8742.817788
8744.717687
8757.860512
8761.302681
8748.696297
8736.380486
8742.32605
8759.961576
8741.074352
8717.180338
8722.701218
8751.467914
8740.001469
8716.330971
8727.395085
8754.083068
8753.814847
8722.812977
8721.494224
8746.818751
8743.331879
8722.58946
8732.513634
8756.318242
8758.352251
8735.441713
8725.428131
8746.103495
8757.56994
8746.595233
8733.564166
8732.468931
8750.439733
8737.96746
8715.749826
8725.226966
8738.660364
8736.134617
8715.92864
8720.331934
8744.047134
8733.944146
8713.62641
8711.592401
8728.244451
8722.164777
8706.920887
8701.020026
8732.133655
8736.067562
8705.780948
8705.870355
8721.002486
8736.648707
8716.219213
8699.209535
8726.813939
8748.785704
8730.300812
8709.983076
8718.923774
8734.346477
8739.107399
8718.767311
8719.683733
8738.950937
8737.341611
8715.146329
8718.990829
8747.71282
8748.495132
8719.951954
8714.743997
8739.420323
8742.638975
8723.260012
8715.503957
8727.84212
8751.087934
8736.380486
8718.163814
8736.268727
8751.199693
8728.49032
8725.495187
8744.270652
8748.763352
8739.979117
8730.41257
8732.245413
8742.616623
8745.14237
8718.320277
8718.566146
8744.62828
8743.778913
8725.204614
8720.890727
8735.218195
8737.542777
8715.593364
8711.793567
8738.906233
8743.197768
8732.535986
8726.501015
8735.307602
8735.240547
8711.458291
8704.573954
8732.066599
8742.035477
8729.518501
8715.325143
8717.582669
8737.431018
8722.231832
8705.982114
8720.644858
8734.860567
8723.371771
8718.007352
8727.775064
8740.806131
8740.537911
8729.518501
8725.651649
8744.471818
8752.026707
8736.805169
8727.708009
8736.112265
8737.922756
8725.092855
8720.577803
8745.097666
8752.719611
8743.823617
8736.246376
8742.303698
8747.981041
8730.971364
8725.249317
8750.596196
8758.486361
8740.716724
8732.178358
8740.984945
8746.03644
8740.962594
8739.219158
8754.463047
8760.699184
8750.059754
8744.091838
8750.238568
8753.256053
8756.072373
8744.047134
8729.049114
8752.160818
8763.090821
8756.608815
8770.533952
8776.613626
8766.6671
8754.395992
8752.83137
8761.347385
8763.537856
8745.052963
8737.810998
8756.407649
8775.138411
8768.276425
8756.094725
8766.555341
8775.76426
8763.895483
8750.819713
8759.916873
8783.699129
8776.41246
8758.195789
8769.796344
8787.186001
8782.268617
8766.845914
8767.494114
8791.701054
8788.370644
8763.873132
8760.453315
8785.286103
8795.232629
8784.369681
8777.530048
8791.969275
8788.482402
8779.407594
8768.164667
8772.880885
8788.169478
8782.42508
8789.465879
8794.785594
8799.792385
8792.282199
8776.65833
8781.218085
8797.713673
8795.791423
8780.63694
8781.598065
8802.653408
8803.100443
8789.085899
8788.169478
8798.406577
8801.021731
8793.288027
8780.480478
8787.074242
8804.620362
8800.641751
8794.338559
8802.094615
8807.771958
8804.396844
8794.204449
8794.226801
8810.722388
8809.962429
8791.745757
8806.184984
8816.757359
8803.100443
8792.505716
8792.863344
8802.966333
8810.141243
8807.056702
8798.272466
8798.719501
8812.510528
8808.643676
8800.954676
8804.061568
8809.783615
8792.438661
8786.068414
8795.344388
8811.549403
8812.197603
8800.23942
8801.513469
8816.578545
8812.1529
8800.865269
8793.19862
8806.743778
8817.673781
8801.491118
8787.878905
8808.598972
8810.700036
8788.19183
8789.018844
8807.302571
8809.090711
8799.747682
8790.963446
8813.762225
8834.236423
8808.084882
8784.213219
8797.356045
8807.950772
8798.741853
8789.108251
8797.93719
8801.826394
8799.144184
8797.736025
8797.668969
8802.832222
8807.727254
8798.026597
8801.759339
8810.342408
8807.503737
8796.238458
8786.627208
8793.690359
8801.312304
8790.583466
8789.778804
8802.653408
8821.585336
8806.922592
8788.504754
8793.109213
8804.821528
8798.674798
8793.556248
8795.970237
8806.319094
8799.233591
8785.286103
8789.175306
8794.875001
8798.764205
8796.841955
8795.50085
8809.247173
8801.379359
8779.474649
8781.575713
8806.162632
8812.711693
8802.854574
8804.374493
8808.666028
8800.306475
8779.184077
8781.15103
8788.392995
8810.722388
8806.453205
8795.098519
8802.407539
8822.121778
8811.437644
8794.830298
8783.989702
8802.094615
8807.79431
8792.863344
8795.724368
8816.667952
8810.23065
8779.564056
8786.001359
8807.727254
8810.722388
8795.791423
8789.845859
8801.625228
8810.655333
8799.144184
8798.026597
8814.902164
8815.013923
8802.005208
8796.819603
8794.875001
8806.90024
8803.882754
8793.422138
8793.533897
8807.235516
8801.357007
8788.974141
8797.28899
8820.266583
8820.825377
8802.586353
8798.69715
8810.297705
8804.933286
8794.182097
8799.904144
8817.852595
8812.890507
8802.54165
8792.505716
8803.167498
8812.823452
8794.60678
8778.804097
8794.942057
8807.749606
8796.126699
8783.520315
8797.691321
8809.403635
8804.106272
8800.217068
8796.350216
8807.682551
8807.235516
8794.60678
8786.850725
8799.814737
8801.871097
8790.382301
8799.099481
8807.660199
8804.173327
8788.571809
8785.397862
8794.226801
8804.441548
8795.456147
8784.324978
8791.14226
8799.300647
8792.997455
8790.583466
8796.037292
8811.929382
8802.318132
8787.409519
8777.038309
8790.047024
8786.40369
8770.13162
8765.929492
8785.084937
8792.371606
8777.574751
8771.137449
8793.19862
8808.867193
8787.409519
8775.049004
8784.012053
8795.12087
8787.163649
8783.989702
8793.668007
8795.769071
8786.515449
8776.300702
8775.563094
8797.154879
8795.836126
8775.943074
8777.552399
8796.037292
8799.971199
8784.369681
8781.866286
8794.763243
8794.495022
8776.010129
8766.756507
8784.593199
8791.723405
8777.932379
8771.875056
8785.062585
8802.496946
8787.096594
8776.680681
8786.716615
8794.897353
8782.268617
8770.891579
8771.986815
8794.003283
8781.329844
8763.359042
8763.224931
8787.655388
8797.065472
8783.855591
8787.186001
8788.907086
8795.322036
8782.715652
8773.618492
8785.554324
8795.165574
8784.48144
8768.566998
8766.622396
8785.844897
8789.59999
8778.290007
8779.832277
8783.922647
8779.631112
8766.778859
8774.646673
8791.321074
8787.364815
8774.289045
8777.977082
8790.76228
8780.614588
8764.476629
8770.042213
8786.470745
8790.449356
8779.139373
8767.963501
8781.240437
8794.271504
8777.17242
8765.661271
8769.505771
8783.252094
8783.319149
8768.991681
8775.808963
8796.01494
8785.554324
8755.379469
8752.540797
8774.199638
8797.892487
8790.315245
8777.284178
8793.936228
8808.040179
8792.148088
8775.987777
8785.777841
8792.349254
8781.866286
8772.277388
8785.531972
8807.995475
8807.481385
8794.718539
8798.339522
8807.190812
8797.959542
8784.503792
8791.030501
8807.637847
8793.265676
8776.904199
8777.977082
8799.188888
8802.854574
8780.435774
8779.787574
8804.329789
8810.253001
8790.002321
8784.660254
8798.004246
8788.013016
8774.981949
8771.808001
8783.050928
8784.056757
8777.664158
8773.663196
8784.079109
8794.271504
8781.642769
8765.191885
8776.27835
8788.057719
8788.84003
8783.810888
8779.564056
8783.944998
8773.059699
8770.332786
8778.312359
8790.605818
8795.657312
8779.295835
8775.76426
8780.63694
8786.582504
8764.74485
8759.246321
8788.638865
8803.636885
8792.349254
8770.64571
8775.160763
8781.463955
8771.584484
8767.248245
8776.211295
8798.495984
8788.415347
8775.987777
8768.388184
8777.530048
8785.956655
8776.546571
8769.10344
8779.340539
8777.619455
8763.694318
8765.616568
8796.283161
8800.418234
8784.570847
8776.166591
8787.945961
8800.887621
8786.26958
8774.087879
8781.374548
8791.499888
8777.954731
8764.096649
8770.019861
8787.856554
8788.281237
8774.534914
8771.428021
8800.060606
8800.082958
8786.716615
8776.613626
8783.497963
8788.415347
8770.980986
8758.352251
8772.478553
8772.210332
8757.346422
8756.54176
8769.416364
8789.845859
8777.060661
8766.264768
8776.881847
8786.046062
8774.512562
8771.740946
8779.452298
8787.051891
8780.972216
8765.281292
8769.863399
8782.246266
8775.741908
8755.312414
8760.922701
8772.322091
8763.046117
8758.732231
8761.459143
8776.457164
8780.614588
8772.657367
8761.995585
8758.46401
8765.974196
8750.059754
8739.152102
8743.376582
8746.863454
8752.406687
8754.060716
8751.534969
8766.264768
8745.365887
8748.651594
8765.25894
8775.876019
8770.980986
8752.630204
8754.664213
8771.092745
8791.097556
8778.513524
8768.522295
8768.812867
8782.536838
8781.486306
8775.160763
8771.852705
8772.232684
8761.861475
8763.023765
8778.692338
8789.175306
8793.265676
8788.884734
8795.813775
8806.810833
8798.138356
8784.436737
8781.039271
8793.645655
8798.898315
8789.22001
8782.022748
8792.55042
8792.416309
8782.156859
8778.960559
8790.427004
8790.024673
8779.631112
8769.461068
8774.199638
8796.573734
8784.034405
8768.477591
8776.501867
8798.116004
8788.951789
8773.305568
8773.596141
8797.534859
8817.114987
8814.343371
8791.365777
8792.461013
8796.081995
8776.613626
8766.398879
8780.078146
8789.868211
8789.756452
8782.782708
8781.262789
8772.523257
8765.460106
8753.188998
8785.040234
8812.242307
8800.641751
8771.517428
8761.481495
8761.906178
8756.430001
8747.981041
8732.804207
8752.69726
8758.821637
8739.286213
8721.091893
8720.577803
8721.561279
8711.771215
8701.779986
8714.185204
8725.40578
8714.945163
8698.740148
8694.247448
8714.743997
8715.503957
8694.180393
8699.075425
8721.31541
8733.072428
8711.19007
8699.14248
8715.436902
8718.141463
8708.709026
8701.06473
8703.232849
8713.894631
8718.566146
8703.858698
8715.012218
8726.165739
8722.321239
8704.976285
8704.350436
8721.605983
8720.644858
8700.327122
8710.452462
8722.567108
8718.789663
8701.377654
8697.421395
8709.960724
8717.3368
8712.374713
8696.795547
8695.633256
8711.05596
8706.585611
8700.304771
8712.08414
8714.38637
8711.681808
8695.990884
8697.086119
8711.413588
8714.028742
8697.466099
8694.761538
8717.157986
8722.812977
8706.272686
8700.662398
8718.655553
8725.383428
8708.440805
8712.195899
8729.719666
8727.506844
8715.973343
8703.344608
8705.04334
8729.831425
8725.0258
8700.371826
8709.960724
8732.021896
8725.249317
8707.882012
8709.26782
8733.206538
8737.788646
8726.143387
8711.726512
8716.085102
8717.560317
8709.804262
8710.720683
8720.220175
8734.592347
8720.242527
8704.708064
8708.731378
8712.911154
8711.346532
8711.100663
8715.705122
8727.439788
8718.789663
8709.379579
8706.496204
8718.633201
8724.64582
8698.896611
8700.640047
8716.934468
8715.682771
8713.067617
8711.078311
8714.1405
8719.124939
8694.649779
8693.286323
8706.473852
8723.304716
8713.514651
8711.793567
8699.365997
8699.075425
8714.364018
8719.370809
8733.675925
8751.780838
8753.323108
8743.913024
8761.280329
8790.024673
8797.557211
8795.299684
8804.396844
8817.226746
8815.215089
8812.219955
8821.942964
8836.181025
8841.478388
8818.769016
8817.718484
8833.632926
8851.35786
8843.28888
8834.482292
8842.819493
8855.694098
8843.355935
8830.548385
8830.950717
8840.830188
8836.672763
8824.06638
8820.244231
8847.580415
8855.224711
8829.341391
8819.305458
8832.157711
8852.274281
8838.03622
8823.462882
8835.532824
8845.21113
8828.93906
8825.60865
8840.025525
8848.049801
8828.000287
8816.51149
8828.872005
8848.742705
8837.52213
8820.4901
8824.513414
8840.539615
8832.157711
8810.208298
8814.656295
8839.489083
8838.863234
8814.499833
8804.061568
8822.099426
8847.468656
8833.789388
8820.579507
8829.386095
8843.42299
8826.50272
8813.270487
8825.005153
8841.88072
8827.687362
8809.247173
8818.389036
8835.286955
8826.614478
8815.662124
8816.690304
8830.436627
8823.395827
8810.118891
8822.345295
8841.701906
8834.437589
8820.512452
8813.941039
8833.834092
8840.494912
8822.211185
8810.029484
8822.926441
8825.675705
8808.800138
8813.896336
8837.924461
8843.445342
8821.495929
8806.833185
8824.088731
8835.421066
8818.187871
8798.071301
8809.001304
8825.005153
8821.719446
8803.368664
8808.487214
8827.620307
8833.744685
8821.38417
8823.708752
8834.929327
8826.234499
8802.273429
8803.592182
8829.58726
8829.095522
8816.220917
8816.869118
8818.634906
8821.697095
8815.036275
8818.344333
8828.469673
8826.301554
8808.688379
8804.620362
8820.400693
8839.243214
8827.352086
8815.23744
8817.114987
8819.886603
8810.253001
8803.994513
8812.376417
8812.108196
8813.494004
8815.975048
8816.355028
8819.573679
8809.358932
8803.70394
8815.528013
8822.434702
8818.590202
8807.436682
8802.988685
8810.409464
8813.04697
8797.333693
8799.613571
8822.971144
8833.096484
8814.924516
8800.686455
8812.935211
8816.958525
8799.546516
8798.384225
8810.096539
8818.679609
8818.210223
8813.941039
8819.685438
8824.3346
8808.420158
8804.910935
8825.183967
8838.349144
8824.044028
8815.952696
8819.372513
8832.113008
8836.359839
8817.271449
8802.005208
8828.223804
8830.458978
8816.779711
8812.823452
8823.775807
8817.897298
8808.911897
8824.915746
8822.948792
8817.003228
8814.58924
8794.60678
8813.56106
8818.590202
8799.85944
8779.809926
8786.738966
8802.809871
8786.515449
8761.056812
8759.894521
8775.38428
8764.186056
8757.458181
8775.563094
8786.26958
8777.127716
8767.382356
8765.996547
8780.145202
8785.241399
8768.119963
8763.269635
8766.175361
8773.037347
8755.893559
8744.069486
8759.291024
8777.440641
8770.5116
8758.911044
8771.338614
8786.381338
8767.292949
8747.042268
8767.963501
8794.718539
8788.102423
8761.749716
8758.575768
8772.81383
8769.975158
8766.443582
8760.185094
8778.290007
8785.062585
8774.713728
8764.990719
8762.643786
8777.731213
8787.923609
8767.449411
8768.969329
8778.938207
8781.66512
8777.351234
8777.619455
8790.583466
8779.854629
8777.060661
8785.442565
8796.104347
8777.239475
8770.399841
8782.268617
8794.003283
8792.908048
8779.005263
8770.288082
8788.974141
8795.791423
8777.351234
8773.663196
8777.530048
8795.634961
8793.109213
8786.224876
8797.691321
8811.303533
8794.740891
8780.949865
8786.873077
8802.631057
8808.621324
8795.456147
8800.887621
8810.968257
8806.207336
8793.489193
8787.454222
8788.951789
8797.244286
8797.579562
8802.899278
8812.66699
8809.627153
8792.885696
8782.872115
8794.807946
8813.896336
8806.274391
8794.405615
8797.825432
8805.067397
8799.255943
8790.002321
8793.824469
8810.543574
8799.948847
8792.55042
8804.486251
8823.149958
8815.796234
8790.091728
8787.901257
8819.8419
8824.267545
8805.357969
8804.732121
8819.193699
8812.756397
8786.224876
8774.244341
8786.470745
8803.256905
8792.215144
8789.979969
8801.871097
8813.292839
8802.653408
8785.263751
8794.271504
8814.231612
8810.655333
8799.680626
8796.52903
8811.750568
8798.607743
8780.547533
8782.916818
8802.02756
8806.117929
8790.225838
8787.29776
8816.355028
8822.032371
8787.320112
8775.496039
8786.046062
8789.644693
8774.646673
8777.127716
8792.773937
8788.907086
8789.778804
8800.150013
8804.910935
8817.606725
8812.018789
8793.332731
8797.736025
8810.342408
8801.2676
8777.999434
8780.368719
8801.044083
8798.563039
8776.457164
8770.802173
8779.765222
8782.246266
8774.669024
8775.563094
8788.392995
8787.565981
8770.243379
8759.782763
8765.705975
8775.607798
8773.618492
8773.998472
8784.48144
8786.627208
8773.439678
8762.710841
8768.477591
8779.429946
8783.341501
8776.948902
8770.623359
8772.120925
8757.793457
8765.169533
8768.969329
8786.761318
8781.687472
8764.767202
8755.692393
8765.325995
8780.368719
8759.849818
8753.099591
8769.818696
8780.413423
8769.058736
8759.000451
8767.449411
8780.726347
8773.685548
8759.402783
8767.672928
8781.15103
8769.416364
8766.845914
8762.532027
8777.68651
8779.251132
8765.325995
8764.342518
8783.944998
8783.207391
8761.861475
8750.059754
8766.15301
8784.168516
8779.273484
8770.757469
8762.688489
8765.90714
8764.498981
8755.982966
8764.834257
8784.704958
8770.064565
8748.428076
8752.920777
8781.285141
8773.596141
8764.36487
8769.572827
8772.791478
8771.718594
8762.643786
8757.458181
8773.774955
8770.489248
8760.855646
8763.515504
8775.674853
8763.269635
8731.194881
8729.339687
8746.930509
8756.005318
8746.952861
8738.190977
8766.577693
8768.857571
8756.452353
8739.979117
8748.60689
8767.985853
8770.980986
8765.705975
8749.836236
8778.245303
8780.815754
8760.408611
8765.169533
8783.386205
8788.303588
8773.037347
8758.240492
8767.18119
8769.170495
8753.85955
8737.006335
8744.717687
8760.855646
8740.582614
8734.592347
8744.717687
8752.183169
8750.931472
8738.99564
8747.869283
8770.243379
8759.671004
8746.394068
8756.653518
8774.378452
8764.87896
8729.38439
8733.765332
8752.406687
8758.419306
8764.253111
8755.312414
8763.98489
8770.422193
8750.640899
8729.138521
8752.96548
8769.930454
8753.21135
8739.196806
8738.906233
8754.127771
8754.932434
8740.247338
8739.688544
8752.429039
8757.994623
8753.72544
8746.282309
8755.26771
8761.03446
8745.209425
8736.358134
8750.976175
8756.944091
8746.662289
8743.823617
8755.26771
8757.011146
8752.585501
8739.621489
8749.50096
8755.334765
8748.025745
8744.918852
8753.188998
8769.014033
8755.200655
8747.556358
8750.52914
8747.869283
8742.102533
8748.293966
8739.621489
8751.266748
8755.7818
8738.503902
8747.06462
8770.064565
8768.008204
8740.716724
8726.880995
8747.511655
8747.377544
8745.567053
8749.299794
8754.932434
8756.452353
8742.907195
8726.366905
8735.66523
8746.483475
8738.369791
8742.258995
8761.436792
8769.081088
8751.691431
8734.324126
8736.04521
8736.447541
8739.442675
8736.268727
8735.709934
8751.512617
8757.480533
8740.78378
8732.20071
8734.368829
8740.157931
8737.542777
8738.928585
8740.91789
8757.234664
8751.847893
8746.438771
8732.893614
8753.971309
8747.154027
8725.696352
8742.013126
8765.080126
8760.475667
8748.785704
8755.379469
8766.108306
8757.70405
8739.532082
8744.896501
8747.690469
8756.16178
8742.437809
8739.465027
8743.957727
8756.139428
8753.501922
8742.951899
8759.067507
8758.620472
8744.650632
8738.302736
8754.016012
8764.700146
8754.261882
8745.969384
8749.50096
8756.720574
8744.516521
8728.266803
8731.351344
8743.890672
8750.260919
8746.282309
8741.588443
8751.177341
8758.307547
8742.214291
8742.504864
8752.183169
8756.765277
8741.007297
8729.876128
8741.119056
8763.71667
8744.136541
8726.389256
8731.597213
8756.832332
8749.12098
8731.887785
8748.942166
8760.475667
8746.17055
8724.802282
8730.010239
8754.530103
8758.508713
8748.0928
8757.05585
8779.273484
8792.818641
8782.55919
8784.369681
8793.511545
8806.341446
8802.049911
8793.600952
8811.996438
8829.050819
8814.276315
8792.081033
8776.79244
8783.676777
8783.944998
8771.875056
8775.943074
8787.409519
8780.63694
8766.041251
8763.806077
8780.793402
8786.604856
8780.771051
8778.312359
8790.203487
8791.455184
8779.452298
8773.752603
8784.548495
8790.002321
8770.64571
8762.8226
8773.551437
8782.447431
8777.015957
8767.248245
8777.552399
8790.561115
8783.58737
8774.914893
8773.931417
8791.410481
8796.506679
8769.259902
8760.632129
8782.469783
8787.521277
8767.739984
8768.455239
8795.389091
8796.350216
8780.301664
8771.428021
8791.14226
8800.574696
8792.483365
8793.712711
8792.192792
8788.884734
8773.46203
8775.808963
8782.0451
8793.355083
8789.242362
8772.746774
8768.499943
8783.944998
8787.43187
8774.289045
8778.468821
8796.506679
8794.763243
8772.143277
8775.428984
8792.595123
8790.62817
8774.579617
8764.096649
8774.087879
8781.01692
8773.216161
8774.803135
8787.610684
8801.200545
8790.874039
8779.184077
8794.584429
8809.85067
8804.4639
8788.638865
8785.8896
8810.543574
8808.688379
8795.634961
8800.284123
8807.54844
8804.59801
8777.664158
8775.540742
8807.391978
8810.87885
8786.068414
8782.715652
8810.789443
8822.546461
8791.879868
8780.726347
8786.26958
8797.177231
8797.847783
8784.48144
8786.358987
8810.029484
8812.778749
8797.892487
8796.886658
8811.415292
8804.106272
8777.418289
8775.786612
8799.591219
8810.431815
8791.254019
8782.112155
8797.80308
8802.273429
8790.739929
8792.9304
8803.636885
8813.516356
8792.639827
8781.598065
8798.563039
8822.322943
8806.743778
8790.136431
8797.400748
8812.66699
8804.150975
8790.784632
8796.886658
8806.229687
8792.215144
8775.607798
8783.274446
8816.399731
8827.732066
8812.711693
8816.265621
8832.068304
8840.696077
8821.160653
8812.510528
8825.854519
8828.804949
8811.437644
8812.309362
8821.965316
8847.468656
8833.588223
8813.382246
8813.225783
8830.593089
8822.166481
8812.041141
8830.704848
8837.678592
8823.664048
8811.325885
8811.080016
8842.886548
8843.378287
8817.293801
8815.550365
8831.218938
8836.963336
8821.048894
8803.122795
8812.063493
8828.156749
8812.890507
8800.150013
8814.477481
8831.107179
8818.858423
8807.391978
8804.575658
8829.251984
8830.771903
8817.338504
8819.931307
8827.061513
8830.950717
8820.467749
8817.047932
8825.183967
8821.674743
8806.184984
8799.568868
8827.620307
8835.242252
8820.937135
8804.285086
8810.700036
8822.479406
8806.944943
8799.635923
8809.202469
8823.440531
8815.907993
8800.23942
8805.1121
8830.682496
8827.776769
8807.391978
8810.74474
8834.348182
8830.101351
8806.319094
8800.708807
8829.408446
8843.668859
8824.491063
8816.310324
8825.854519
8827.441493
8817.003228
8815.684475
8822.881737
8828.961412
8818.165519
8816.958525
8836.337487
8850.776714
8822.41235
8792.639827
8807.123757
8813.382246
8806.90024
8799.524164
8794.584429
8811.884679
8817.02558
8806.944943
8802.653408
8807.168461
8809.247173
8801.580525
8790.583466
8799.568868
8805.290914
8791.723405
8784.168516
8793.936228
8808.084882
8801.044083
8782.089803
8796.283161
8807.749606
8792.662179
8773.305568
8782.872115
8803.972161
8805.447376
8792.729234
8796.260809
8814.790406
8808.934249
8782.313321
8782.536838
8797.93719
8799.747682
8783.609722
8786.358987
8798.875964
8812.532879
8798.227763
8783.699129
8789.22001
8798.853612
8790.851687
8774.892542
8786.828373
8797.154879
8798.563039
8790.471708
8796.126699
8816.064455
8801.357007
8768.097611
8772.702071
8797.80308
8802.742815
8782.536838
8785.800193
8800.015903
8794.115042
8780.413423
8787.789498
8800.909972
8801.155841
8789.443527
8798.205411
8788.147126
8781.218085
8779.876981
8767.404707
8767.739984
8766.823562
8743.86832
8732.066599
8731.530158
8752.361983
8745.701163
8731.239585
8734.212367
8744.874149
8741.409629
8723.662343
8712.911154
8731.82073
8747.265786
8734.480588
8729.786721
8728.043285
8730.658439
8727.171567
8719.884899
8725.53989
8739.576786
8726.255146
8717.090931
8728.982059
8750.506789
8730.479626
8713.738169
8725.182262
8739.956765
8734.25707
8728.289155
8721.1813
8738.235681
8737.229852
8716.375675
8720.577803
8737.095742
8744.605928
8726.277498
8714.811053
8731.463102
8736.827521
8714.699294
8704.126919
8723.975268
8744.270652
8729.876128
8722.477701
8725.003448
8734.078256
8735.084085
8719.594326
8715.123977
8731.485454
8728.467969
8710.653628
8717.448559
8736.536948
8735.195844
8725.271669
8721.740093
8735.419361
8747.668117
8721.136596
8698.315465
8709.111358
8736.604004
8727.59625
8714.833404
8719.884899
8729.943184
8726.702181
8725.472835
8735.061733
8742.661326
8731.641916
8719.013181
8732.513634
8748.897463
8742.929547
8721.538928
8718.633201
8733.318297
8728.512672
8715.101625
8721.605983
8738.660364
8747.556358
8726.903346
8721.360114
8729.00441
8739.576786
8723.371771
8709.40193
8719.169643
8746.058791
8742.348402
8725.40578
8725.674
8735.441713
8725.651649
8714.632239
8718.834367
8734.905271
8733.072428
8720.443692
8722.522404
8731.261937
8742.996602
8727.775064
8710.340704
8728.803245
8743.644803
8723.081198
8717.001524
8734.815864
8748.919815
8734.547643
8719.571974
8728.557375
8736.671059
8734.100608
8721.293059
8720.421341
8732.357172
8732.513634
8717.269745
8719.460216
8742.057829
8742.974251
8733.586518
8712.397064
8717.739131
8730.211405
8722.008314
8708.552564
8720.622506
8729.89848
8705.736244
8688.25718
8698.561334
8696.996712
8685.105584
8674.063823
8665.838381
8683.920942
8685.977302
8672.029814
8666.754802
8665.637215
8663.312633
8663.737317
8660.429258
8666.866561
8668.833514
8662.105639
8669.079384
8697.287285
8691.162907
8658.305843
8646.571177
8665.19018
8683.697424
8671.515724
8654.595453
8666.151305
8671.091041
8659.93752
8643.218415
8645.274776
8671.381613
8657.814104
8642.749029
8642.078476
8668.833514
8662.195046
8646.86175
8652.695555
8673.348567
8670.308729
8650.929767
8649.163979
8664.877256
8670.375785
8652.852017
8641.564386
8663.759668
8676.544866
8655.467171
8651.265043
8670.487543
8682.423375
8662.999709
8648.158151
8668.297072
8686.603151
8671.806296
8648.851055
8643.240767
8666.643043
8664.318462
8651.108581
8654.282529
8672.834477
8667.11243
8641.631441
8641.452627
8664.474924
8664.877256
8644.894796
8632.958964
8650.125104
8668.341776
8653.947253
8647.308784
8661.904474
8681.238732
8668.14061
8666.97832
8666.687747
8671.806296
8667.335947
8654.796619
8661.166866
8672.566256
8655.95891
8644.403058
8654.886026
8670.420488
8677.528343
8671.448668
8649.387497
8657.143552
8673.39327
8651.332098
8645.118313
8657.232959
8667.738279
8650.773305
8641.586738
8663.826724
8675.628445
8661.792715
8638.703363
8646.347659
8667.045375
8663.849075
8649.834532
8651.332098
8678.668282
8675.919017
8650.728601
8647.822875
8672.521552
8672.275683
8663.245578
8653.902549
8668.967625
8674.712023
8658.730526
8652.650851
8666.039546
8677.528343
8663.737317
8648.649889
8668.207665
8691.699349
8679.67411
8669.504067
8659.401078
8671.783945
8652.114409
8636.982278
8648.314613
8671.448668
8666.97832
8654.997784
8661.233921
8676.857791
8674.466154
8646.772343
8650.929767
8678.288302
8671.783945
8655.042488
8661.792715
8667.961796
8674.846134
8672.186276
8657.277662
8660.049279
8669.705232
8662.575026
8657.143552
8663.200875
8671.33691
8670.711061
8654.640157
8650.750953
8668.989977
8668.945273
8660.183389
8650.952119
8665.391346
8677.885971
8665.637215
8664.072593
8676.924846
8684.904419
8666.196008
8650.527436
8666.866561
8680.456421
8658.39525
8648.046392
8660.876293
8675.740203
8663.133819
8648.091095
8655.645985
8675.427279
8674.66732
8673.057994
8672.029814
8683.362148
8671.515724
8649.499255
8650.035697
8656.405944
8662.664433
8652.047354
8654.014308
8671.672186
8676.634273
8662.23975
8657.88116
8662.910302
8668.498238
8656.629462
8644.984203
8650.549787
8673.214456
8669.146439
8662.731488
8659.825761
8666.531285
8660.272796
8650.125104
8657.411773
8659.110505
8651.22034
8639.575081
8640.558558
8655.869503
8661.122162
8642.793732
8635.797636
8648.560482
8661.144514
8647.241729
8626.633421
8645.408886
8662.619729
8648.202854
8634.657697
8645.990031
8669.41466
8660.429258
8635.752933
8635.708229
8644.604223
8638.435142
8639.932709
8648.694593
8660.764535
8654.193122
8638.189273
8637.183444
8657.590587
8656.852979
8634.635345
8630.433217
8644.067781
8652.181465
8642.793732
8638.144569
8631.886081
8644.358354
8637.719886
8635.59647
8643.464284
8650.683898
8644.648927
8630.768494
8625.515834
8640.938537
8644.671279
8630.008534
8631.148473
8655.020136
8652.852017
8639.485674
8629.472092
8634.255366
8644.447761
8634.814159
8626.49931
8634.18831
8648.359316
8640.871482
8634.031848
8651.309747
8655.780096
8642.659622
8627.818063
8633.584813
8648.895758
8639.776247
8630.72379
8618.609145
8636.155264
8630.030886
8610.204889
8614.585831
8637.697534
8647.487598
8630.232052
8614.45172
8639.597433
8648.292261
8626.298145
8615.658714
8639.68684
8637.429313
8632.489578
8639.709191
8647.018212
8646.794694
8632.020191
8608.215583
8614.116444
8640.066819
8624.510005
8617.245688
8631.10377
8645.677107
8640.983241
8620.129063
8610.875441
8633.048371
8629.092113
8612.864746
8619.123235
8639.373915
8632.042543
8620.978429
8619.234993
8627.080456
8631.126121
8617.446854
8610.428406
8624.666467
8641.385572
8630.321459
8603.097034
8608.126176
8626.544014
8620.933726
8616.016342
8625.873461
8641.251462
8627.303973
8611.613049
8596.950304
8619.83849
8633.517758
8620.263174
8619.659677
8629.360334
8627.125159
8608.081473
8615.144624
8643.039601
8643.129008
8619.592621
8613.93763
8625.739351
8632.310764
8616.284563
8608.617915
8621.693685
8645.766514
8629.427389
8609.690798
8619.279697
8635.305898
8634.18831
8616.977467
8613.490595
8628.399209
8630.388514
8620.330229
8617.469206
8626.722828
8633.204834
8625.739351
8611.903621
8619.547918
8615.502252
8603.834641
8611.277772
8636.132912
8650.929767
8646.526473
8635.171787
8638.435142
8656.495351
8655.534226
8645.274776
8654.908378
8677.662453
8678.310654
8668.945273
8676.321349
8703.299904
8708.932544
8691.855811
8684.390328
8703.545773
8728.602079
8719.39316
8714.587535
8732.021896
8739.219158
8736.782817
8727.886823
8730.703143
8743.689506
8732.84891
8727.46214
8738.883881
8750.752658
8735.642878
8722.58946
8730.300812
8742.080181
8741.521387
8727.216271
8725.651649
8734.480588
8747.154027
8736.916928
8729.496149
8735.620527
8744.941204
8735.799341
8724.467006
8731.239585
8735.106437
8724.087027
8721.918907
8727.417437
8730.010239
8736.089913
8731.574861
8734.704105
8751.222044
8736.156969
8713.447596
8716.398027
8730.680791
8730.233756
8716.375675
8713.984038
8731.105474
8734.882919
8736.291079
8736.916928
8742.884844
8742.147236
8726.545718
8725.0258
8735.195844
8741.722553
8719.862547
8710.318352
8731.060771
8740.359097
8723.148253
8715.593364
8729.205576
8746.706992
8744.024783
8725.830463
8732.603041
8746.215254
8739.017992
8722.254184
8722.656515
8741.700201
8737.96746
8732.737152
8726.009277
8734.413533
8746.327012
8730.993716
8719.527271
8737.296908
8747.265786
8740.247338
8731.530158
8727.953878
8730.457274
8727.260974
8719.884899
8738.883881
8749.299794
8730.747846
8720.175471
8724.13173
8741.074352
8732.535986
8718.074407
8719.795492
8743.398934
8733.60887
8718.543794
8720.175471
8734.748809
8733.653573
8724.824634
8710.608925
8711.681808
8727.97623
8722.567108
8721.784797
8743.197768
8753.703088
8748.718649
8730.434922
8756.16178
8775.697205
8761.637957
8749.344498
8748.964518
8758.128733
8757.391126
8744.471818
8738.772123
8754.708917
8757.70405
8747.936338
8744.851797
8758.821637
8767.941149
8753.323108
8739.308565
8751.445562
8767.292949
8757.905216
8741.29787
8751.467914
8777.977082
8770.913931
8753.032536
8756.027669
8772.612664
8753.300757
8734.480588
8748.159855
8769.416364
8759.872169
8744.605928
8741.521387
8757.167608
8767.807039
8751.132637
8744.874149
8766.957672
8768.634053
8740.470855
8743.644803
8760.252149
8759.805114
8744.829445
8747.57871
8754.641861
8762.934358
8750.126809
8735.218195
8743.644803
8759.514542
8757.279367
8746.952861
8751.557321
8765.169533
8761.906178
8743.376582
8747.221082
8759.000451
8763.694318
8748.897463
8747.824579
8756.988794
8764.409574
8743.801265
8737.274556
8753.121943
8770.757469
8770.712766
8746.103495
8762.643786
8774.445507
8756.117076
8752.272576
8756.944091
8764.23076
8752.272576
8745.723515
8751.758486
8757.771106
8748.383373
8729.451445
8733.430056
8761.257978
8768.768164
8756.787629
8752.406687
8754.37364
8757.838161
8741.454332
8738.10157
8757.011146
8765.571864
8749.523312
8736.983983
8738.749771
8748.919815
8744.047134
8737.363963
8739.822655
8765.661271
8755.982966
8732.938317
8722.477701
8749.143332
8755.088896
8733.810035
8733.318297
8746.259957
8749.076277
8730.658439
8715.995695
8732.245413
8747.221082
8750.238568
8740.26969
8739.241509
8742.70603
8738.056867
8742.817788
8741.141408
8751.222044
8739.330916
8723.349419
8733.452408
8750.305623
8746.885806
8738.012163
8739.330916
8751.847893
8749.724477
8723.304716
8716.710951
8746.55053
8761.906178
8738.839178
8728.378562
8743.086009
8747.668117
8735.911099
8732.647745
8742.236643
8758.374603
8753.546626
8739.621489
8735.061733
8747.779876
8744.181245
8735.218195
8738.593309
8753.72544
8746.17055
8737.207501
8738.615661
8750.618547
8747.154027
8733.474759
8729.674963
8746.215254
8745.812922
8732.759503
8723.014143
8734.726457
8758.620472
8747.399896
8739.465027
8756.184132
8758.508713
8733.027724
8720.622506
8738.749771
8759.022803
8753.323108
8731.731323
8725.517538
8733.765332
8747.645765
8746.259957
8738.526254
8747.757524
8755.692393
8743.689506
8736.536948
8748.204559
8768.410536
8767.18119
8763.426097
8773.193809
8776.166591
8754.75362
8739.710896
8750.886768
8782.380376
8776.993606
8758.732231
8752.339632
8765.795382
8767.158838
8750.171512
8750.439733
8766.957672
8772.255036
8749.232739
8753.568978
8772.165629
8766.28712
8749.299794
8745.745867
8763.560207
8775.89837
8769.639882
8753.256053
8756.206483
8763.113172
8745.544701
8742.482512
8760.073335
8775.451335
8766.555341
8751.736134
8753.837198
8769.841048
8755.938262
8746.908158
8761.369736
8779.966388
8776.434812
8756.608815
8749.031573
8761.705013
8764.454277
8747.466951
8752.920777
8768.768164
8773.640844
8767.717632
8768.634053
8771.606835
8767.896446
8756.206483
8752.83137
8771.428021
8782.738004
8766.734155
8754.284233
8758.732231
8784.48144
8765.102478
8746.438771
8756.117076
8761.906178
8766.465934
8759.380431
8755.446524
8760.945053
8767.941149
8757.882864
8746.237605
8756.564111
8773.037347
8748.629242
8747.623414
8776.457164
8793.220972
8760.14039
8731.17253
8737.676887
8750.707954
8737.788646
8727.819768
8726.724532
8746.125847
8738.570957
8714.52048
8697.846079
8705.691541
8696.862602
8680.657587
8684.457384
8690.782927
8694.806241
8681.909285
8680.456421
8698.807204
8696.639084
8683.76448
8676.991901
8685.373805
8697.130823
8686.603151
8689.821802
8702.204669
8721.69539
8705.579782
8688.279532
8692.660474
8702.830518
8699.813032
8693.37573
8699.723625
8714.922811
8714.922811
8699.030721
8697.376692
8709.603096
8704.819823
8693.420433
8687.653683
8704.819823
8711.458291
8701.332951
8696.370863
8711.301829
8721.1813
8706.652666
8704.126919
8717.426207
8720.220175
8692.593419
8688.950084
8699.410701
8702.428186
8700.014198
8695.208573
8703.702236
8717.202689
8715.347495
8693.867468
8692.727529
8701.310599
8711.681808
8697.309637
8691.855811
8707.010294
8710.720683
8697.22023
8697.22023
8707.502032
8722.008314
8700.193012
8683.496259
8682.781003
8711.435939
8708.284343
8686.692558
8681.439898
8699.678922
8704.708064
8690.715872
8684.300921
8708.306695
8699.902439
8687.385462
8694.53802
8708.865489
8702.09291
8686.603151
8701.779986
8717.806186
8701.221192
8681.59636
8668.162962
8699.723625
8710.720683
8703.903401
8703.098739
8704.752768
8719.929602
8713.022913
8713.671114
8720.354285
8737.319259
8737.162797
8731.261937
8743.197768
8770.042213
8770.690414
8754.597158
8757.100553
8767.18119
8770.064565
8758.285196
8747.601062
8760.788591
8766.555341
8749.657422
8736.894576
8751.445562
8772.702071
8771.53978
8758.441658
8763.448449
8782.983873
8774.400803
8756.206483
8759.246321
8770.422193
8757.368774
8739.107399
8748.204559
8766.6671
8761.883826
8743.421286
8746.349364
8763.224931
8771.1598
8760.073335
8755.7818
8754.038364
8755.982966
8749.299794
8738.660364
8755.088896
8774.579617
8752.160818
8738.034515
8753.658385
8773.484382
8771.316263
8757.771106
8761.213274
8770.802173
8770.064565
8756.094725
8755.044193
8764.476629
8762.30851
8738.123922
8736.648707
8764.498981
8767.047079
8760.810943
8761.816771
8770.310434
8774.043175
8754.865379
8746.125847
8761.257978
8780.212257
8766.108306
8739.353268
8753.926605
8771.897408
8767.047079
8751.222044
8758.285196
8775.719556
8769.23755
8753.166646
8745.723515
8765.616568
8771.383318
8751.490265
8759.738059
8774.020824
8772.925588
8754.708917
8742.258995
8768.164667
8781.039271
8764.096649
8749.568015
8763.046117
8770.13162
8755.26771
8755.580635
8768.812867
8782.089803
8770.198675
8760.229797
8755.960614
8768.321129
8774.110231
8767.739984
8765.840085
8757.659347
8751.624376
8741.476684
8728.065637
8729.719666
8741.968422
8724.578765
8713.738169
8731.999544
8735.888748
8710.407759
8699.500108
8706.026817
8726.769236
8719.549622
8716.44273
8720.309582
8726.523367
8720.756617
8702.495241
8706.630314
8726.210442
8722.432998
8710.050131
8719.460216
8729.183224
8727.708009
8727.216271
8725.204614
8722.477701
8723.505881
8712.017085
8705.468023
8715.503957
8724.51171
8716.465082
8709.312524
8719.996657
8731.910137
8723.930564
8714.229907
8715.325143
8729.585556
8723.036495
8703.568125
8711.167718
8727.015105
8715.92864
8702.852869
8707.591439
8722.656515
8727.953878
8717.493262
8713.648762
8728.713838
8738.99564
8725.204614
8713.827576
8709.714855
8727.260974
8725.137559
8719.035532
8725.986925
8735.15114
8731.753675
8720.533099
8713.335838
8724.310544
8720.063713
8709.692503
8728.289155
8732.133655
8719.639029
8708.709026
8703.12109
8720.086064
8722.410646
8702.696407
8699.27659
8725.048152
8736.335783
8711.637105
8709.044303
8738.213329
8739.777951
8715.280439
8703.434015
8707.882012
8723.885861
8715.369846
8699.969494
8699.678922
8722.812977
8719.214346
8690.380596
8692.660474
8729.943184
8741.29787
8729.563204
8727.59625
8750.797361
8750.52914
8741.186111
8738.235681
8753.926605
8762.710841
8744.516521
8738.10157
8770.176324
8779.74287
8761.012108
8745.254129
8756.497056
8771.070393
8755.871207
8764.23076
8765.39305
8772.322091
8766.242417
8740.850835
8744.874149
8759.223969
8754.574806
8748.450428
8749.545664
8765.102478
8764.87896
8757.592292
8747.265786
8764.275463
8765.884789
8743.086009
8731.105474
8737.408666
8746.863454
8736.782817
8726.478663
8749.277443
8766.644748
8750.350326
8741.81196
8750.059754
8758.173437
8740.001469
8730.144349
8742.907195
8765.661271
8760.788591
8751.087934
8753.010184
8763.314338
8756.54176
8736.268727
8729.160873
8740.247338
8755.26771
8740.582614
8725.070503
8732.133655
8753.390164
8748.60689
8739.643841
8739.666192
8752.160818
8739.643841
8721.226003
8733.206538
8758.106382
8754.463047
8745.455294
8750.283271
8779.832277
8784.816716
8773.260864
8764.856608
8779.921684
8791.768109
8772.322091
8767.516466
8781.374548
8786.224876
8772.076222
8768.410536
8777.150068
8784.727309
8770.265731
8761.570902
8773.46203
8774.467859
8778.804097
8777.284178
8769.818696
8776.613626
8776.323053
8770.399841
8763.806077
8776.725385
8780.905161
8769.572827
8766.376527
8778.625283
8788.795327
8774.601969
8766.28712
8779.921684
8781.598065
8774.333748
8765.951844
8772.255036
8781.128678
8768.902274
8757.949919
8771.763298
8784.369681
8777.68651
8765.504809
8772.769126
8790.091728
8780.167553
8754.664213
8754.798323
8771.048042
8773.417327
8767.136486
8761.570902
8786.761318
8792.751586
8770.489248
8757.100553
8770.5116
8781.083975
8765.840085
8758.843989
8772.702071
8784.414385
8771.696242
8762.844951
8762.129696
8774.73608
8767.494114
8758.329899
8774.065527
8791.231667
8787.275408
8775.563094
8777.552399
8799.278295
8796.551382
8785.442565
8769.349309
8769.729289
8776.501867
8762.174399
8762.286158
8773.439678
8777.239475
8756.564111
8742.862492
8752.116114
8769.505771
8774.154934
8767.047079
8777.127716
8778.781745
8760.676832
8752.31728
8766.845914
8787.186001
8781.486306
8755.424172
8748.450428
8779.74287
8781.709824
8759.782763
8746.997565
8759.6263
8774.758431
8764.811905
8762.777896
8771.070393
8773.305568
8760.788591
8750.506789
8766.488286
8774.758431
8762.621434
8751.758486
8761.369736
8784.928475
8773.685548
8751.467914
8761.682661
8770.556303
8761.749716
8748.003393
8752.093762
8775.205466
8772.970292
8757.793457
8755.155951
8775.585446
8777.574751
8759.581597
8755.26771
8760.475667
8775.630149
8766.845914
8762.330861
8775.473687
8774.043175
8763.113172
8743.823617
8754.597158
8789.018844
8765.929492
8742.370754
8757.391126
8772.523257
8774.624321
8759.469838
8750.618547
8773.685548
8776.680681
8756.988794
8745.298832
8758.262844
8771.316263
8753.546626
8744.427114
8760.185094
8765.840085
8748.0928
8739.442675
8757.905216
8772.970292
8756.228835
8745.52235
8740.02382
8770.980986
8774.847838
8755.759448
8746.796399
8764.655443
8767.829391
8753.85955
8753.412515
8756.720574
8748.741001
8734.190015
8728.624431
8749.523312
8761.056812
8747.221082
8748.383373
8766.622396
8778.535876
8757.905216
8748.517483
8761.593254
8771.383318
8761.190922
8745.254129
8749.858588
8761.526199
8768.187018
8752.138466
8746.997565
8762.532027
8768.231722
8752.250225
8751.199693
8767.985853
8777.284178
8757.547588
8752.518446
8755.893559
8749.903291
8729.294983
8740.91789
8767.538818
8791.924571
8778.178248
8754.306585
8764.87896
8781.53101
8772.031518
8749.232739
8756.318242
8770.422193
8765.951844
8756.094725
8758.240492
8777.105364
8779.675815
8766.376527
8754.775972
8766.376527
8759.246321
8748.115152
8754.083068
8777.798269
8784.213219
8764.387222
8751.400858
8759.514542
8769.148143
8755.401821
8742.549568
8750.193864
8772.165629
8755.155951
8740.046172
8743.421286
8757.100553
8757.614643
8736.469893
8746.259957
8767.807039
8763.98489
8757.324071
8752.69726
8760.922701
8755.558283
8738.213329
8740.560262
8769.975158
8775.317225
8754.395992
8741.834312
8748.405725
8764.610739
8743.622451
8735.598175
8749.724477
8755.826504
8744.963556
8736.715762
8745.611757
8767.605873
8755.290062
8741.119056
8748.629242
8763.113172
8766.935321
8756.698222
8748.495132
8751.982004
8757.257015
8759.291024
8760.252149
8776.390109
8774.49021
8765.90714
8768.298777
8776.79244
8769.036385
8753.636033
8746.349364
8764.253111
8773.551437
8767.248245
8759.335728
8757.547588
8763.604911
8764.722498
8748.428076
8731.887785
8750.193864
8760.028632
8737.855701
8735.642878
8753.993661
8753.680736
8730.859605
8725.91987
8733.810035
8735.329954
8725.606945
8727.171567
8733.407704
8740.292041
8735.687582
8727.439788
8733.519463
8739.912062
8729.518501
8727.953878
8735.66523
8748.651594
8757.368774
8751.356155
8733.988849
8724.243489
8716.95682
8710.519518
8730.390219
8752.361983
8749.322146
8740.135579
8730.79255
8743.130713
8748.47278
8727.350381
8721.583631
8739.822655
8754.485399
8735.888748
8737.252204
8749.50096
8756.027669
8741.119056
8729.719666
8723.349419
8743.197768
8744.695335
8726.635125
8724.981096
8752.540797
8753.367812
8727.260974
8733.295945
8740.359097
8752.876073
8741.253166
8722.231832
8719.281402
8732.021896
8724.824634
8736.760466
8753.099591
8753.300757
8726.188091
8705.065692
8709.558393
8737.58748
8733.60887
8729.451445
8736.402838
8745.008259
8743.533044
8729.272631
8734.435884
8762.643786
8758.240492
8751.557321
8746.818751
8769.505771
8766.823562
8759.134562
8749.433905
8764.789553
8769.10344
8755.357117
8759.335728
8766.264768
8780.234609
8756.966443
8749.50096
8756.720574
8770.5116
8758.374603
8737.162797
8756.608815
8779.586408
8772.903236
8764.87896
8760.833294
8786.78367
8790.806984
8765.996547
8769.058736
8782.42508
8785.911952
8756.899387
8752.138466
8775.227818
8786.001359
8771.651539
8771.763298
8784.86142
8796.976065
8785.040234
8771.271559
8791.65635
8802.407539
8793.645655
8770.824524
8783.676777
8792.662179
8800.351179
8794.785594
8786.671911
8799.501812
8810.163595
8789.421176
8784.682606
8799.904144
8822.166481
8796.618437
8793.176269
8824.871042
8822.613516
8809.247173
8791.343426
8788.504754
8808.062531
8792.081033
8791.589295
8813.203432
8817.472615
8803.502775
8785.219048
8781.128678
8808.733083
8806.363798
8781.709824
8785.420213
8806.833185
8801.044083
8802.318132
8790.181135
8794.360911
8790.181135
8780.771051
8759.022803
8782.000396
8799.457109
8790.047024
8773.774955
8779.720519
8782.55919
8780.212257
8762.710841
8753.077239
8768.142315
8761.302681
8757.614643
8764.320167
8770.198675
8771.003338
8745.14237
8747.601062
8765.437754
8752.406687
8737.609832
8742.527216
8763.582559
8762.688489
8742.482512
8739.152102
8742.080181
8751.132637
8733.027724
8725.092855
8752.294928
8754.060716
8746.259957
8744.807094
8744.136541
8765.482457
8742.683678
8728.825596
8736.604004
8754.038364
8745.902329
8745.924681
8741.744905
8749.679774
8748.405725
8738.392143
8736.5593
8749.679774
8744.538873
8726.724532
8722.678867
8749.903291
8760.788591
8739.800303
8723.818806
8739.37562
8751.2891
8751.199693
8746.237605
8756.653518
8776.211295
8774.601969
8769.304606
8772.635016
8784.034405
8770.243379
8761.235626
8775.697205
8792.192792
8797.445452
8774.803135
8772.590312
8786.761318
8796.7749
8778.133545
8763.783725
8778.401766
8793.668007
8791.164612
8778.178248
8786.068414
8790.695225
8773.909065
8770.958635
8774.378452
8776.099536
8772.031518
8751.132637
8746.192902
8765.080126
8767.360004
8761.369736
8758.911044
8776.434812
8771.383318
8751.892597
8758.352251
8770.13162
8766.980024
8750.462085
8742.236643
8744.740038
8755.602986
8754.485399
8743.890672
8758.128733
8775.808963
8765.437754
8751.602024
8754.485399
8783.430908
8781.978045
8763.33669
8760.028632
8777.395937
8779.027614
8759.179265
8757.636995
8769.729289
8774.087879
8754.418344
8743.980079
8757.05585
8775.116059
8763.068469
8757.525236
8766.309472
8776.65833
8758.21814
8752.049059
8764.811905
8774.87019
8765.348347
8750.39503
8758.240492
8768.946978
8761.727364
8746.662289
8752.473742
8769.61753
8770.064565
8753.971309
8744.695335
8769.528123
8765.281292
8742.750733
8740.962594
8755.155951
8758.240492
8748.137504
8746.125847
8758.46401
8772.43385
8761.03446
8747.109323
8750.193864
8769.326957
8761.570902
8755.357117
8760.989757
8778.088841
8767.360004
8749.523312
8752.630204
8783.542667
8773.819658
8755.938262
8755.737097
8767.136486
8762.464972
8749.389201
8741.655498
8751.825541
8763.739021
8754.060716
8743.73421
8751.646728
8768.119963
8754.910082
8733.139483
8740.895538
8763.806077
8760.118039
8739.129751
8735.709934
8747.57871
8748.852759
8762.107344
8764.096649
8782.872115
8796.171402
8790.62817
8791.768109
8802.586353
8811.817624
8797.624266
8783.497963
8797.110176
8812.28701
8794.830298
8788.616513
8803.256905
8806.52026
8789.7341
8784.436737
8789.689397
8798.406577
8790.047024
8786.560152
8793.600952
8811.482347
8804.642714
8787.074242
8786.91778
8802.765167
8792.505716
8786.515449
8780.301664
8795.657312
8805.067397
8781.128678
8776.568923
8785.442565
8787.81185
8779.22878
8774.311396
8785.599027
8797.199583
8790.024673
8783.319149
8787.945961
8796.864307
8784.10146
8775.652501
8774.154934
8785.397862
8783.855591
8767.538818
8773.931417
8788.772975
8788.929437
8774.73608
8768.611702
8791.097556
8794.316208
8774.423155
8769.684585
8785.107289
8794.204449
8785.867248
8779.005263
8789.979969
8795.456147
8789.577638
8786.671911
8798.004246
8810.431815
8800.909972
8774.557266
8768.477591
8784.615551
8786.895429
8770.869228
8763.4708
8773.037347
8768.835219
8756.362946
8750.797361
8767.091783
8770.243379
8754.440696
8753.770143
8765.549513
8769.863399
8758.620472
8741.253166
8752.876073
8761.950882
8755.982966
8745.388239
8757.167608
8777.239475
8768.902274
8753.367812
8750.707954
8761.235626
8757.502885
8744.605928
8754.261882
8768.902274
8765.594216
8747.981041
8755.044193
8767.874094
8774.3561
8762.487324
8750.171512
8763.940187
8769.863399
8756.251187
8746.662289
8759.805114
8779.519353
8768.768164
8755.558283
8768.991681
8780.011091
8767.628225
8752.920777
8760.967405
8768.745812
8770.712766
8754.708917
8752.518446
8771.249207
8776.613626
8759.425135
8752.406687
8767.002376
8773.640844
8745.432943
8739.152102
8768.432888
8786.560152
8774.914893
8774.087879
8782.402728
8791.768109
8786.358987
8773.752603
8783.542667
8800.015903
8788.504754
8773.663196
8778.737042
8798.250115
8788.884734
8773.663196
8769.192847
8782.581542
8790.583466
8775.38428
8766.600045
8786.940132
8792.03633
8774.981949
8772.590312
8794.383263
8799.233591
8780.50283
8773.707899
8782.93917
8790.158783
8771.763298
8766.220065
8775.943074
8790.449356
8781.933341
8772.746774
8779.497001
8794.070338
8785.666083
8769.863399
8776.680681
8795.232629
8790.404652
8773.551437
8768.768164
8787.945961
8790.918743
8775.607798
8773.260864
8786.738966
8794.830298
8784.302626
8773.864362
8779.519353
8786.381338
8777.30653
8767.829391
8779.452298
8792.9304
8783.766184
8767.874094
8772.657367
8791.410481
8788.080071
8768.969329
8766.398879
8786.046062
8787.789498
8766.823562
8759.223969
8781.463955
8787.67774
8776.390109
8771.629187
8779.497001
8786.850725
8773.037347
8761.190922
8771.942111
8789.287065
8777.150068
8763.98489
8775.339577
8797.065472
8782.447431
8763.068469
8766.28712
8784.839068
8776.099536
8755.960614
8759.223969
8779.318187
8780.055795
8764.387222
8758.888693
8767.360004
8775.965425
8759.425135
8747.19873
8761.41444
8777.619455
8763.806077
8743.86832
8751.199693
8769.863399
8761.369736
8748.137504
8754.060716
8763.582559
8758.531065
8743.913024
8748.003393
8765.795382
8765.035422
8753.256053
8750.953823
8763.649614
8763.806077
8753.188998
8761.280329
8782.492135
8782.067452
8753.256053
8761.749716
8786.046062
8802.206373
8792.885696
8795.165574
8804.21803
8813.359894
8806.162632
8790.203487
8802.608705
8828.626135
8827.083865
8813.114025
8806.877888
8812.979914
8807.593144
8800.574696
8802.653408
8823.082903
8818.389036
8792.55042
8791.701054
8802.742815
8808.084882
8796.573734
8793.869173
8812.555231
8819.372513
8803.145147
8791.365777
8798.853612
8807.235516
8796.104347
8795.322036
8800.23942
8814.991571
8806.967295
8786.001359
8791.164612
8805.805004
8811.325885
8800.351179
8791.00815
8815.259792
8824.491063
8805.715597
8788.616513
8803.100443
8813.449301
8808.017827
8807.190812
8811.303533
8821.697095
8811.482347
8796.7749
8805.1121
8819.908955
8807.839013
8793.690359
8800.686455
8820.668914
8814.611592
8806.207336
8804.843879
8818.970182
8824.602821
8807.749606
8801.692283
8814.946868
8812.130548
8797.4231
8799.144184
8813.985743
8827.754417
8818.992534
8800.105309
8810.185946
8827.977935
8822.077074
8805.782653
8805.760301
8812.376417
8818.523147
8818.165519
8832.872967
8838.013868
8824.602821
8785.8896
8794.785594
8833.610574
8819.953659
8801.200545
8802.16167
8826.301554
8829.31904
8803.279257
8792.192792
8806.497908
8825.429836
8814.633943
8810.856499
8821.719446
8844.31706
8814.499833
8786.113117
8822.904089
8863.472505
8821.495929
8788.348292
8815.170385
8854.665918
8833.29765
8797.870135
8794.942057
8828.55908
8830.213109
8796.283161
8800.798214
8828.357914
8816.802063
8811.974086
8818.903127
8822.613516
8844.18295
8828.581432
8797.28899
8816.623249
8843.892377
8817.91965
8803.726292
8830.414275
8855.537636
8829.721371
8813.717522
8818.232574
8846.23931
8851.022583
8832.872967
8834.214072
8842.953604
8838.907938
8822.479406
8825.452188
8847.580415
8851.156694
8826.413313
8824.155787
8840.651374
8849.636775
8840.360801
8828.335563
8832.448284
8838.416199
8834.504644
8831.665973
8833.230595
8840.718429
8839.422028
8830.548385
8831.174234
8840.763133
8843.110066
8820.803025
8821.38417
8845.635813
8865.640624
8835.73399
8831.531862
8852.073115
8850.866121
8835.354011
8825.005153
8816.712656
8818.903127
8812.398769
8810.185946
8807.146109
8813.918688
8796.797251
8779.966388
8787.722443
8800.395882
8783.45326
8764.834257
8775.719556
8800.038254
8796.350216
8773.372623
8768.164667
8791.27637
8798.786557
8794.539725
8810.655333
8819.596031
8812.689342
8799.747682
8799.680626
8817.740836
8828.782598
8810.767092
8804.150975
8820.4901
8827.799121
8812.711693
8799.680626
8805.827356
8827.843824
8817.249097
8801.13349
8811.996438
8832.202415
8825.787464
8813.024618
8808.420158
8812.28701
8812.264658
8789.510583
8788.862382
8806.453205
8810.767092
8790.76228
8783.58737
8789.823507
8801.446414
8794.405615
8778.133545
8794.673836
8819.104292
8803.547478
8779.407594
8793.310379
8812.622286
8798.138356
8781.195734
8783.743833
8797.110176
8790.516411
8775.89837
8779.586408
8779.474649
8793.153917
8793.44449
8788.527106
8813.650467
8815.840938
8812.443472
8816.109159
8835.331659
8842.2607
8831.017772
8811.929382
8822.479406
8838.751476
8828.000287
8816.533842
8819.953659
8838.349144
8827.977935
8812.935211
8818.81372
8828.223804
8827.888528
8810.431815
8815.215089
8835.845749
8835.823397
8819.797196
8817.830243
8834.906976
8832.26947
8814.678647
8818.903127
8826.256851
8828.849653
8819.372513
8813.31519
8823.217013
8840.830188
8825.943926
8820.579507
8827.799121
8840.673726
8835.577528
8824.379304
8820.266583
8829.855481
8820.87008
8809.291876
8815.796234
8833.275298
8827.01681
8809.671856
8808.978952
8831.218938
8836.382191
8811.482347
8804.620362
8822.635868
8828.581432
8814.656295
8805.961467
8813.04697
8825.22867
8813.471653
8800.75351
8811.839975
8823.82051
8818.321981
8807.280219
8807.146109
8824.111083
8814.455129
8786.448394
8786.627208
8809.649504
8808.017827
8786.940132
8778.737042
8797.4231
8794.271504
8785.330806
8779.22878
8786.314283
8797.4231
8775.76426
8766.376527
8783.207391
8793.153917
8778.513524
8761.92853
8768.187018
8785.420213
8770.310434
8765.236588
8769.773992
8787.67774
8782.626245
8771.204504
8766.376527
8786.180173
8785.733138
8763.873132
8759.872169
8778.669987
8780.569885
8759.201617
8763.649614
8784.168516
8791.812812
8774.691376
8767.069431
8774.959597
8783.565019
8768.119963
8764.454277
8773.305568
8789.108251
8778.737042
8764.543684
8761.906178
8772.322091
8773.372623
8763.269635
8758.687527
8780.905161
8789.376472
8773.640844
8764.946015
8769.751641
8772.456202
8749.992698
8741.901367
8768.879922
8783.140335
8771.226856
8760.162742
8770.623359
8779.117021
8765.437754
8757.078201
8768.946978
8780.033443
8764.23076
8744.293004
8752.026707
8767.829391
8771.092745
8758.911044
8754.686565
8775.339577
8773.97612
8749.746829
8752.294928
8767.18119
8781.66512
8768.857571
8754.261882
8776.837144
8788.236533
8769.326957
8756.854684
8764.275463
8781.53101
8770.332786
8751.132637
8752.093762
8770.019861
8764.253111
8756.608815
8765.504809
8775.674853
8768.812867
8759.827466
8754.530103
8772.232684
8774.266693
8763.33669
8759.268672
8765.63892
8774.892542
8760.475667
8753.032536
8770.64571
8780.435774
8775.674853
8763.493152
8770.109268
8779.251132
8769.10344
8752.116114
8760.587425
8770.891579
8772.143277
8750.730306
8751.713783
8767.896446
8767.18119
8747.06462
8749.50096
8772.679719
8777.954731
8764.498981
8746.662289
8764.476629
8773.596141
8766.220065
8762.375565
8775.719556
8777.910027
8764.543684
8754.418344
8771.02569
8781.039271
8771.249207
8757.994623
8757.994623
8771.472725
8775.317225
8760.00628
8765.102478
8785.956655
8788.214181
8761.973233
8764.811905
8781.642769
8789.35412
8781.598065
8776.077184
8776.568923
8788.392995
8770.5116
8755.379469
8768.499943
8786.26958
8768.477591
8763.940187
8782.492135
8801.848746
8788.996493
8770.735117
8769.282254
8785.688434
8782.000396
8767.896446
8768.008204
8781.262789
8779.184077
8768.455239
8762.017937
8781.262789
8790.24819
8771.91976
8760.185094
8767.56117
8780.12285
8768.455239
8748.942166
8765.191885
8778.737042
8768.946978
8759.469838
8760.676832
8773.260864
8766.577693
8758.776934
8768.20937
8775.272521
8767.717632
8756.608815
8753.680736
8774.937245
8777.597103
8758.08403
8754.61951
8768.119963
8766.108306
8762.152047
8759.49219
8766.331824
8771.249207
8756.564111
8752.250225
8766.555341
8786.046062
8788.460051
8768.857571
8763.627263
8771.852705
8751.9373
8736.894576
8743.935376
8760.00628
8748.718649
8731.619564
8730.166701
8740.649669
8741.655498
8725.785759
8716.152157
8733.206538
8735.464065
8717.225041
8708.798433
8724.668172
8744.516521
8730.41257
8717.001524
8717.694428
8736.246376
8730.27846
8723.662343
8722.120073
8738.34744
8733.854739
8716.330971
8711.882974
8724.154082
8726.880995
8721.226003
8719.728436
8734.994678
8733.988849
8718.677904
8714.855756
8723.23766
8730.434922
8710.251297
8718.23087
8730.92666
8746.505826
8731.865434
8713.358189
8722.745922
8731.954841
8723.349419
8715.906288
8717.426207
8731.284288
8724.042323
8720.510747
8727.59625
8735.978155
8737.833349
8721.337762
8710.072483
8730.725495
8731.619564
8721.360114
8718.163814
8728.982059
8733.430056
8718.968477
8715.280439
8710.720683
8734.480588
8730.591384
8718.141463
8724.422303
8734.592347
8723.304716
8710.184242
8713.537003
8737.989812
8732.044248
8722.924736
8727.171567
8743.153065
8738.570957
8718.990829
8714.252259
8732.267765
8732.781855
8719.817843
8720.957782
8732.245413
8738.772123
8720.086064
8712.754692
8722.187128
8728.400913
8717.537965
8714.90046
8722.969439
8731.843082
8726.791588
8721.941259
8726.702181
8743.35423
8750.01505
8731.351344
8724.757579
8746.215254
8746.17055
8728.959707
8731.418399
8741.253166
8741.588443
8719.862547
8724.243489
8738.123922
8738.146274
8725.584593
8719.281402
8723.081198
8725.40578
8717.940297
8729.294983
8737.721591
8761.682661
8754.37364
8744.717687
8750.350326
8771.182152
8767.583521
8758.821637
8755.446524
8768.343481
8766.130658
8751.624376
8759.916873
8783.565019
8788.460051
8759.671004
8766.264768
8778.379414
8777.842972
8767.337652
8768.857571
8779.09467
8792.751586
8785.934304
8770.086917
8778.982911
8791.544591
8787.007187
8786.828373
8786.627208
8794.562077
8793.086862
8771.40567
8773.46203
8784.593199
8779.049966
8761.839123
8754.083068
8772.389146
8782.134507
8768.902274
8758.955748
8770.310434
8783.810888
8766.711803
8759.000451
8776.211295
8774.73608
8764.722498
8767.918797
8770.064565
8781.575713
8772.992643
8750.01505
8757.949919
8784.615551
8784.369681
8753.166646
8745.499998
8766.085954
8773.305568
8760.676832
8755.938262
8764.342518
8776.211295
8762.375565
8752.764315
8763.33669
8775.607798
8760.542722
8740.336745
8758.687527
8785.286103
8763.560207
8752.093762
8762.532027
8786.291931
8780.525181
8754.977137
8741.521387
8762.643786
8762.889655
8758.173437
8767.136486
8782.492135
8780.167553
8758.061678
8748.137504
8761.973233
8774.646673
8764.543684
8752.31728
8768.432888
8775.339577
8763.046117
8759.536893
8768.119963
8789.421176
8775.451335
8759.11221
8774.400803
8799.032426
8788.84003
8766.845914
8774.378452
8780.569885
8771.1598
8767.3153
8776.948902
8802.765167
8788.437699
8765.147181
8779.072318
8790.292894
8797.624266
8780.681644
8782.894466
8793.332731
8801.468766
8779.564056
8774.624321
8797.512507
8808.286048
8804.061568
8779.251132
8793.980932
8801.088786
8788.907086
8778.71469
8785.50962
8804.106272
8798.69715
8771.852705
8776.591274
8802.429891
8808.487214
8798.607743
8794.897353
8796.730196
8801.804042
8784.503792
8789.465879
8801.64758
8810.141243
8809.448339
8799.702978
8794.115042
8808.017827
8800.105309
8800.217068
8811.661161
8831.218938
8823.909917
8795.187926
8803.70394
8815.170385
8815.684475
8807.727254
8799.613571
8794.942057
8816.936173
8811.035313
8789.175306
8811.325885
8816.578545
8812.935211
8800.664103
8809.873022
8830.078999
8832.448284
8821.808853
8827.5309
8841.098409
8832.738856
8824.155787
8830.99542
8830.99542
8829.944888
8821.115949
8817.584374
8830.48133
8817.964353
8800.172365
8794.875001
8821.697095
8833.67763
8832.627098
8827.732066
8831.196586
8825.161615
8806.363798
8811.996438
8825.161615
8838.460903
8831.88949
8811.661161
8818.81372
8830.48133
8829.96724
8821.183005
8812.532879
8820.959487
8808.464862
8816.399731
8810.87885
8818.254926
8823.529938
8815.729179
8807.079054
8821.272411
8828.804949
8816.198566
8802.832222
8823.239365
8826.055685
8811.974086
8811.370589
8823.552289
8834.795217
8821.227708
8815.148034
8809.046007
8821.25006
8826.212147
8806.408501
8794.495022
8814.388074
8826.033333
8810.074188
8794.316208
8820.579507
8823.284068
8807.704903
8802.206373
8806.699074
8815.9974
8800.529993
8799.814737
8811.884679
8842.171293
8828.872005
8801.871097
8809.47069
8820.4901
8806.252039
8795.903182
8804.061568
8820.624211
8812.711693
8794.696187
8790.11408
8803.726292
8821.518281
8808.286048
8806.184984
8817.852595
8809.515394
8797.534859
8793.779766
8810.297705
8813.270487
8802.720464
8794.897353
8808.531917
8826.100388
8814.432778
8802.474594
8807.682551
8822.926441
8814.455129
8802.251077
8798.384225
8811.549403
8804.97799
8791.991626
8791.209315
8806.430853
8798.563039
8781.396899
8787.968312
8809.046007
8818.254926
8800.015903
8787.834202
8792.103385
8790.315245
8784.570847
8787.454222
8789.22001
8795.389091
8789.868211
8779.832277
8792.081033
8796.216106
8799.792385
8798.674798
8800.127661
8804.955638
8796.685493
8790.11408
8794.249152
8798.384225
8797.758376
8785.420213
8773.998472
8793.779766
8812.555231
8789.912914
8776.010129
8787.051891
8794.785594
8784.414385
8776.010129
8784.883772
8795.254981
8784.034405
8768.924626
8776.032481
8788.102423
8776.948902
8771.53978
8772.702071
8786.716615
8782.492135
8771.897408
8776.680681
8788.571809
8783.989702
8764.968367
8769.818696
8789.532934
8797.244286
8782.42508
8774.579617
8797.691321
8799.434757
8770.913931
8758.46401
8768.946978
8780.726347
8770.377489
8753.256053
8756.050021
8766.778859
8756.094725
8736.626355
8740.247338
8760.207446
8757.324071
8741.029649
8738.034515
8750.90912
8748.875111
8745.969384
8743.488341
8750.707954
8741.744905
8740.068524
8736.738114
8747.332841
8753.188998
8744.76239
8746.17055
8755.7818
8760.229797
8739.330916
8736.469893
8740.962594
8757.324071
8754.708917
8739.442675
8736.17932
8753.032536
8760.185094
8750.372678
8748.741001
8757.458181
8749.188036
8743.130713
8739.800303
8750.596196
8750.238568
8736.715762
8733.295945
8755.088896
8764.275463
8754.150123
8745.879977
8753.278405
8770.846876
8757.860512
8737.431018
8742.035477
8759.201617
8751.602024
8731.932489
8730.144349
8747.422248
8747.891634
8737.028687
8738.883881
8755.826504
8753.770143
8737.118094
8729.160873
8749.702126
8760.833294
8741.722553
8741.208463
8759.402783
8761.54855
8750.976175
8746.505826
8750.238568
8749.232739
8750.685603
8745.365887
8745.902329
8764.655443
8753.144294
8739.062695
8744.471818
8756.899387
8756.899387
8743.488341
8748.316318
8763.604911
8760.922701
8754.708917
8742.370754
8754.775972
8754.261882
8743.73421
8740.873187
8759.536893
8764.342518
8747.332841
8735.799341
8761.012108
8772.389146
8759.246321
8741.856663
8758.21814
8762.8226
8759.067507
8747.57871
8744.717687
8764.767202
8761.995585
8753.747791
8761.950882
8774.87019
8769.863399
8751.222044
8747.601062
8751.736134
8760.38626
8753.434867
8747.891634
8766.980024
8773.372623
8754.552454
8747.645765
8755.446524
8761.950882
8759.738059
8749.50096
8754.843027
8769.639882
8758.240492
8745.991736
8749.411553
8768.902274
8767.762335
8748.718649
8753.121943
8764.923664
8763.180228
8752.987832
8756.564111
8764.588388
8763.806077
8749.50096
8753.032536
8764.387222
8767.270597
8756.385297
8741.543739
8754.418344
8762.129696
8753.188998
8738.056867
8744.717687
8772.255036
8765.013071
8743.041306
8747.288137
8763.649614
8760.90035
8746.03644
8748.293966
8769.438716
8776.546571
8763.4708
8760.587425
8768.365832
8777.440641
8763.604911
8750.618547
8754.485399
8770.399841
8763.023765
8754.75362
8758.531065
8777.284178
8771.293911
8739.688544
8736.715762
8754.664213
8753.233701
8745.388239
8734.659402
8749.299794
8760.565074
8751.9373
8758.955748
8753.21135
8741.834312
8754.150123
8750.953823
8758.151085
8763.71667
8759.671004
8751.020879
8763.604911
8785.040234
8767.337652
8744.270652
8745.254129
8762.95671
8748.003393
8738.839178
8733.698277
8748.338669
8745.209425
8734.547643
8736.447541
8747.042268
8748.47278
8738.168626
8733.184187
8746.215254
8743.443637
8739.822655
8750.01505
8764.051946
8764.923664
8748.271614
8733.318297
8743.041306
8764.074297
8749.098629
8747.534007
8759.067507
8769.170495
8757.838161
8742.907195
8746.908158
8774.087879
8775.116059
8756.430001
8753.434867
8767.963501
8744.337707
8723.148253
8745.477646
8755.7818
8769.215199
8751.177341
8756.742925
8760.945053
8761.79442
8748.249262
8757.324071
8771.02569
8775.853667
8757.234664
8752.429039
8754.932434
8768.388184
8753.680736
8734.77116
8748.517483
8768.030556
8769.729289
8746.930509
8746.349364
8759.671004
8748.785704
8733.072428
8741.901367
8766.28712
8756.273539
8726.657477
8721.337762
8751.80319
8754.306585
8739.643841
8731.910137
8737.386315
8740.694373
8737.989812
8731.016067
8742.929547
8763.582559
8742.974251
8739.152102
8762.241454
8758.46401
8734.25707
8723.818806
8748.450428
8762.152047
8747.377544
8734.547643
8739.666192
8762.420268
8755.044193
8741.566091
8746.259957
8767.896446
8758.08403
8733.005373
8732.178358
8772.836181
8778.401766
8750.931472
8743.421286
8761.459143
8784.213219
8761.257978
8746.103495
8754.418344
8763.426097
8745.030611
8731.731323
8762.152047
8779.251132
8763.71667
8747.511655
8761.146219
8774.87019
8772.098574
8746.237605
8757.882864
8795.344388
8787.498926
8756.988794
8761.280329
8782.201562
8771.740946
8761.347385
8768.254074
8793.332731
8794.919705
8771.472725
8760.453315
8772.523257
8789.532934
8777.574751
8769.036385
8772.255036
8794.98676
8789.197658
8769.192847
8764.968367
8778.759394
8773.551437
8757.681699
8760.632129
8789.488231
8794.115042
8776.568923
8765.795382
8776.144239
8779.541705
8758.754582
8765.549513
8783.83324
8785.75549
8763.71667
8756.430001
8775.361928
8777.753565
8759.894521
8765.974196
8791.186963
8792.259847
8784.615551
8777.619455
8774.557266
8784.280274
8763.515504
8747.154027
8761.146219
8773.529085
8781.66512
8757.122905
8757.659347
8780.525181
8779.787574
8750.976175
8755.938262
8778.491173
8787.364815
8768.879922
8756.564111
8765.437754
8777.574751
8766.935321
8763.85078
8779.072318
8793.511545
8773.864362
8764.208408
8770.958635
8789.421176
8784.883772
8763.247283
8758.262844
8777.150068
8775.160763
8763.560207
8761.146219
8777.507696
8788.661216
8778.088841
8766.220065
8782.536838
8787.118946
8775.76426
8762.129696
8766.756507
8785.151992
8782.380376
8764.476629
8777.440641
8794.316208
8791.298722
8767.002376
8763.895483
8789.644693
8789.532934
8761.906178
8775.808963
8792.282199
8779.921684
8765.661271
8770.422193
8787.744795
8780.815754
8771.517428
8764.811905
8782.246266
8789.398824
8766.242417
8759.358079
8775.876019
8793.712711
8787.834202
8775.25017
8785.219048
8807.146109
8795.903182
8772.858533
8780.771051
8798.048949
8802.094615
8779.474649
8785.844897
8798.45128
8803.838051
8777.261827
8775.473687
8805.357969
8816.600897
8793.690359
8771.517428
8789.287065
8807.257868
8789.711748
8782.693301
8795.36674
8801.826394
8782.872115
8765.974196
8772.746774
8793.332731
8794.673836
8774.669024
8774.378452
8785.621379
8788.281237
8777.30653
8775.473687
8785.219048
8787.588333
8770.846876
8769.461068
8783.855591
8795.053815
8781.933341
8764.051946
8780.033443
8793.265676
8766.980024
8759.6263
8776.121888
8796.104347
8774.043175
8762.576731
8777.619455
8786.716615
8771.696242
8765.102478
8776.993606
8798.563039
8788.214181
8760.90035
8756.54176
8777.775917
8784.839068
8766.734155
8762.599082
8775.719556
8780.614588
8753.524274
8757.659347
8763.671966
8761.190922
8749.724477
8755.714745
8779.474649
8786.001359
8777.015957
8757.905216
8763.694318
8781.91099
8776.434812
8755.155951
8745.768219
8764.275463
8757.458181
8743.197768
8744.11419
8757.882864
8754.552454
8724.802282
8719.683733
8736.760466
8751.80319
8738.325088
8725.942221
8738.325088
8745.611757
8732.804207
8729.25028
8744.494169
8764.163704
8756.005318
8735.218195
8734.882919
8752.96548
8749.232739
8731.194881
8741.610794
8752.652556
8752.31728
8736.782817
8727.260974
8745.611757
8755.021841
8733.497111
8731.418399
8745.947033
8761.392088
8740.627318
8727.864471
8741.968422
8749.970347
8737.252204
8734.50294
8740.247338
8751.758486
8750.707954
8743.533044
8746.394068
8758.642824
8751.579672
8730.569032
8735.262899
8739.800303
8732.915966
8727.998582
8745.835274
8751.311451
8746.17055
8737.386315
8735.978155
8743.086009
8752.272576
8750.618547
8737.498073
8736.156969
8738.705067
8727.84212
8718.163814
8753.926605
8780.569885
8774.758431
8766.130658
8772.523257
8795.12087
8791.432833
8784.727309
8778.625283
8793.600952
8805.380321
8774.087879
8768.276425
8774.311396
8784.369681
8778.848801
8767.918797
8778.290007
8791.723405
8778.446469
8766.555341
8772.523257
8786.26958
8777.507696
8767.069431
8774.512562
8786.671911
8766.734155
8751.959652
8770.332786
8792.259847
8779.809926
8756.765277
8757.614643
8773.529085
8774.557266
8757.212312
8760.00628
8773.774955
8771.450373
8751.378507
8753.680736
8772.187981
8776.434812
8766.063603
8760.788591
8777.887676
8793.086862
8777.552399
8760.542722
8768.879922
8790.695225
8783.721481
8757.368774
8760.252149
8785.040234
8774.579617
8764.342518
8771.606835
8786.828373
8782.134507
8765.549513
8765.437754
8779.988739
8781.642769
8763.537856
8756.765277
8757.838161
8769.192847
8762.777896
8761.526199
8773.014995
8778.692338
8762.599082
8747.109323
8762.777896
8786.113117
8771.1598
8752.093762
8762.129696
8784.928475
8781.955693
8763.582559
8760.14039
8778.133545
8766.577693
8751.982004
8764.811905
8779.899333
8780.815754
8763.224931
8758.374603
8773.864362
8783.252094
8761.079164
8738.056867
8745.432943
8761.749716
8768.052908
8766.912969
8770.936283
8777.574751
8768.701109
8756.228835
8764.610739
8774.73608
8771.249207
8756.877036
8759.559245
8774.758431
8770.13162
8761.41444
8760.319204
8769.192847
8769.61753
8752.026707
8752.272576
8769.058736
8784.146164
8776.770088
8764.923664
