Detector 2,,,,,,,,Detector 4,,,,,,,,Detector 6,,,,,,,,Detector 8,,,,,,,,Detector 10,,,,,,,,Detector 12,,,,,,,,Detector 14,,,,,,,,Detector 16,,,,,,,
"RED1,2,3,4","IR1,2,3,4 ","RED5,6,7,8","IR5,6,7,8 ","RED9,10,11,12","IR9,10,11,12 ","RED13,14,15,16","IR13,14,15,16 ","RED1,2,3,4","IR1,2,3,4 ","RED5,6,7,8","IR5,6,7,8 ","RED9,10,11,12","IR9,10,11,12 ","RED13,14,15,16","IR13,14,15,16 ","RED1,2,3,4","IR1,2,3,4 ","RED5,6,7,8","IR5,6,7,8 ","RED9,10,11,12","IR9,10,11,12 ","RED13,14,15,16","IR13,14,15,16 ","RED1,2,3,4","IR1,2,3,4 ","RED5,6,7,8","IR5,6,7,8 ","RED9,10,11,12","IR9,10,11,12 ","RED13,14,15,16","IR13,14,15,16 ","RED1,2,3,4","IR1,2,3,4 ","RED5,6,7,8","IR5,6,7,8 ","RED9,10,11,12","IR9,10,11,12 ","RED13,14,15,16","IR13,14,15,16 ","RED1,2,3,4","IR1,2,3,4 ","RED5,6,7,8","IR5,6,7,8 ","RED9,10,11,12","IR9,10,11,12 ","RED13,14,15,16","IR13,14,15,16 ","RED1,2,3,4","IR1,2,3,4 ","RED5,6,7,8","IR5,6,7,8 ","RED9,10,11,12","IR9,10,11,12 ","RED13,14,15,16","IR13,14,15,16 ","RED1,2,3,4","IR1,2,3,4 ","RED5,6,7,8","IR5,6,7,8 ","RED9,10,11,12","IR9,10,11,12 ","RED13,14,15,16","IR13,14,15,16 "
65535,65535,4603,318,197,188,183,181,19479,65535,4739,355,315,310,304,304,35325,65535,2203,438,245,239,233,232,25944,65535,9078,6059,5921,5908,5897,5897,567,612,33313,29016,38398,27315,937,600,1145,1236,52809,47952,16466,13268,1347,1179,2688,5985,27391,26050,31071,27057,31348,36253,826,5656,36898,35047,27570,26425,31639,15633
65535,65535,4559,316,197,187,182,181,19119,65535,4699,355,313,305,302,301,34882,65535,2146,436,246,245,234,233,25790,65535,9006,6017,5874,5846,5799,5743,571,621,33338,29062,38455,27365,942,604,1158,1252,52818,47920,16482,13289,1353,1184,3104,6012,27443,26097,31109,27100,31378,36311,1007,5674,36951,35089,27601,26475,31667,15658
65535,65535,4604,318,200,191,183,184,18934,65535,4712,343,303,295,285,285,34790,65535,2145,435,242,239,234,233,24466,65535,8561,5483,5229,5119,5061,5002,575,626,33423,29127,38504,27402,944,605,1166,1253,52588,47871,16504,13330,1358,1187,3107,6030,27431,26114,31138,27139,31408,36363,1010,5661,36959,35132,27631,26526,31713,15687
65535,65535,4560,316,198,188,185,183,18578,65535,4629,331,288,281,276,273,34826,65535,2046,421,240,235,221,224,20489,65535,7495,4869,4706,4651,4614,4575,575,624,33411,29135,38523,27425,940,605,1169,1253,52891,47997,16517,13343,1354,1183,3110,6040,27452,26151,31162,27177,31438,36410,1005,5633,37052,35225,27657,26579,31743,15717
65535,65535,4599,315,197,189,183,180,18298,65535,4643,324,283,276,271,268,34210,65535,1836,401,237,229,220,218,17961,65535,6479,4490,4312,4253,4229,4223,571,623,33472,29181,38565,27463,935,597,1163,1240,52409,47751,16511,13358,1346,1175,3114,6058,27441,26183,31183,27223,31471,36460,1006,5622,37025,35247,27687,26637,31791,15751
65535,65535,4559,312,198,184,181,180,17996,65535,4578,320,280,277,270,270,33929,65535,1667,385,227,211,208,211,16035,65535,5678,4349,4238,4199,4169,4146,569,620,33423,29142,38594,27494,937,595,1157,1237,52578,47906,16542,13398,1350,1178,3119,6073,27459,26242,31219,27281,31496,36514,1007,5606,37100,35340,27730,26709,31831,15774
65535,65535,4597,308,192,184,179,178,17739,65535,4599,322,282,277,271,267,32875,65535,1421,368,219,212,206,207,15023,65535,5297,4198,4076,4047,4027,4007,567,616,33451,29190,38643,27540,932,591,1157,1233,52039,47556,16531,13404,1335,1163,3121,6094,27470,26289,31243,27323,31515,36552,999,5590,37109,35367,27761,26759,31855,15799
65535,65535,4554,307,193,185,178,177,17507,65535,4538,319,280,274,271,272,32184,65535,1299,358,215,206,205,203,14027,65535,4930,4074,3979,3962,3947,3941,562,608,33431,29156,38618,27503,927,585,1140,1218,51957,47519,16501,13361,1324,1152,3126,6100,27459,26279,31231,27274,31474,36443,1001,5566,37065,35311,27744,26711,31794,15724
65535,65535,4596,303,191,182,179,176,17173,65535,4549,324,284,279,279,275,31683,65535,1223,354,215,206,203,200,13319,65535,4751,3998,3905,3903,3904,3908,557,603,33384,29070,38519,27373,916,578,1128,1202,51854,47315,16384,13198,1306,1134,3113,6036,27345,26054,31111,27069,31397,36299,995,5484,36950,35125,27594,26436,31702,15648
65535,65535,4551,306,191,182,178,176,16935,65535,4487,328,288,283,280,275,31297,65535,1187,347,211,205,206,200,12927,65535,4683,3988,3899,3887,3891,3883,550,597,33367,29038,38468,27313,911,576,1112,1184,51498,47031,16323,13145,1296,1128,3103,6002,27307,25975,31071,27016,31391,36274,989,5439,36870,35033,27541,26369,31677,15631
65535,65535,4599,305,190,182,178,176,16902,65535,4525,327,284,279,273,272,31223,65535,1190,345,212,205,203,201,12640,65535,4676,4000,3923,3922,3923,3913,547,593,33332,28997,38409,27256,912,575,1105,1180,51293,46824,16308,13121,1297,1126,3101,5987,27282,25932,31034,26965,31360,36243,987,5422,36811,34951,27505,26317,31639,15615
65535,65535,4551,304,191,183,180,179,16951,65535,4482,319,279,272,270,265,31075,65535,1178,346,217,205,203,199,12618,65535,4677,3998,3905,3896,3892,3869,550,593,33339,29009,38407,27271,909,572,1104,1173,50831,46579,16303,13135,1284,1116,3098,5987,27289,25939,31045,26987,31377,36257,989,5426,36746,34902,27505,26341,31665,15631
65535,65535,4594,306,191,185,178,176,17093,65535,4528,311,269,266,259,255,31157,65535,1194,348,212,211,208,202,12537,65535,4580,3881,3780,3748,3724,3715,545,589,33305,28982,38411,27275,909,573,1095,1166,50954,46651,16302,13125,1279,1113,3097,5991,27291,25954,31047,26989,31370,36245,991,5455,36720,34877,27516,26340,31662,15630
65535,65535,4551,305,190,182,177,178,17221,65535,4489,305,269,261,256,255,31172,65535,1186,349,213,207,205,203,12293,65479,4484,3824,3743,3742,3738,3732,548,589,33366,29031,38448,27295,911,573,1090,1163,50877,46594,16306,13133,1283,1115,3101,5991,27290,25949,31043,26986,31370,36251,995,5475,36729,34898,27529,26358,31670,15637
65535,65535,4592,308,191,182,177,178,17267,65535,4533,311,269,263,260,263,31146,65535,1193,349,212,206,204,205,12390,65535,4527,3861,3787,3789,3798,3799,546,591,33415,29073,38453,27306,913,575,1096,1167,50676,46466,16311,13149,1289,1118,3099,5995,27298,25963,31030,26997,31359,36254,994,5484,36731,34907,27531,26372,31665,15646
65535,65535,4548,307,190,183,180,176,17135,65535,4481,313,272,267,266,263,31087,65535,1174,343,213,201,200,203,12530,65535,4588,3928,3853,3846,3842,3839,549,595,33442,29089,38461,27330,910,571,1096,1168,50291,46181,16303,13175,1276,1111,3102,6004,27314,25995,31031,27029,31364,36275,994,5477,36669,34867,27541,26406,31675,15668
65535,65535,4597,305,190,182,177,176,17015,65535,4517,314,275,269,265,266,30509,65535,1168,331,207,202,194,198,12514,65535,4639,3981,3924,3947,3979,4002,544,590,33402,29063,38491,27374,908,567,1085,1154,50067,46075,16315,13198,1265,1096,3103,6015,27321,26043,31074,27103,31409,36346,994,5468,36651,34869,27565,26467,31727,15705
65535,65535,4551,305,189,181,175,175,16950,65535,4474,318,277,273,270,271,30030,65147,1139,333,206,204,198,197,12873,65535,4915,4217,4125,4131,4140,4148,542,587,33405,29062,38511,27410,907,565,1072,1143,49876,45979,16320,13225,1260,1089,3111,6037,27341,26116,31111,27175,31434,36383,992,5465,36598,34849,27599,26532,31751,15727
65535,65535,4589,297,189,181,175,175,16966,65535,4515,319,281,274,272,269,29504,64273,1137,329,205,200,197,195,13046,65535,5027,4262,4163,4149,4118,4115,537,583,33455,29097,38590,27475,902,561,1065,1127,49555,45785,16301,13225,1238,1069,3118,6063,27344,26154,31159,27249,31482,36437,990,5476,36531,34819,27623,26583,31778,15745
65535,65535,4547,304,192,180,176,174,16896,65535,4470,320,279,273,269,270,29347,64049,1120,327,209,200,196,195,12900,65535,4993,4256,4169,4165,4182,4191,532,579,33471,29113,38653,27537,896,557,1044,1113,49273,45681,16301,13243,1228,1059,3125,6078,27371,26206,31220,27334,31513,36474,992,5481,36451,34781,27639,26617,31812,15765
65535,65535,4592,303,191,180,175,175,16855,65535,4511,323,283,276,274,274,29313,63859,1130,330,205,200,195,197,13006,65535,5135,4346,4261,4252,4246,4234,526,573,33422,29057,38697,27606,893,551,1034,1102,49448,45781,16324,13276,1216,1043,3125,6088,27445,26315,31347,27509,31540,36524,992,5502,36475,34808,27670,26667,31848,15791
65535,65535,4546,302,188,181,179,176,16991,65535,4481,319,277,271,268,267,29327,64011,1123,326,201,198,194,193,12964,65535,5072,4309,4211,4200,4188,4170,522,567,33442,29079,38795,27711,886,544,1020,1086,49704,46070,16349,13313,1203,1034,3132,6112,27512,26426,31553,27752,31583,36586,997,5531,36492,34871,27726,26749,31909,15829
65535,65535,4596,302,190,179,175,176,17214,65535,4535,314,277,268,267,264,29694,64591,1139,327,210,198,200,192,13034,65535,5006,4220,4117,4101,4087,4071,515,561,33463,29099,38823,27703,887,544,1012,1085,50429,46511,16369,13301,1208,1040,3136,6131,27535,26442,31609,27760,31527,36479,1002,5575,36591,34947,27747,26726,31845,15759
65535,65535,4554,301,188,182,176,175,17422,65535,4502,313,277,267,264,262,29692,64626,1132,329,209,201,196,199,12994,65535,4875,4156,4067,4066,4069,4066,515,564,33387,28972,38720,27576,889,547,1022,1092,50753,46618,16331,13201,1224,1055,3127,6064,27455,26221,31500,27553,31437,36318,1002,5537,36619,34880,27620,26478,31751,15684
65535,65535,4605,304,189,180,177,174,17789,65535,4569,313,269,262,262,258,30506,65535,1165,335,208,201,200,201,13119,65535,4888,4155,4057,4050,4042,4034,520,569,33361,28935,38675,27510,892,551,1036,1108,50943,46711,16315,13153,1233,1065,3108,6017,27407,26100,31433,27449,31396,36243,1002,5536,36654,34856,27565,26377,31712,15646
65535,65535,4561,305,190,183,178,176,17999,65535,4537,308,267,259,261,253,31045,65535,1166,339,208,205,200,199,13140,65535,4789,4096,4005,3995,3997,3996,521,575,33389,28928,38619,27432,896,559,1045,1121,50987,46676,16297,13124,1243,1077,3103,5988,27361,25998,31341,27326,31353,36174,1006,5542,36646,34827,27537,26308,31683,15628
65535,65535,4610,305,191,183,176,178,18083,65535,4583,305,266,262,257,255,31419,65535,1186,343,214,209,209,201,13159,65535,4809,4124,4041,4040,4048,4055,531,580,33397,28919,38613,27419,905,566,1057,1133,50857,46583,16317,13140,1257,1091,3095,5969,27338,25953,31295,27278,31347,36170,1007,5557,36660,34841,27527,26305,31682,15636
65535,65535,4564,306,191,184,178,176,18087,65535,4540,307,269,260,258,259,31780,65535,1189,344,212,205,202,200,13398,65535,4883,4181,4104,4113,4116,4121,538,590,33434,28927,38587,27398,906,567,1069,1147,50890,46642,16328,13150,1263,1093,3097,5966,27342,25945,31256,27249,31334,36150,1012,5564,36691,34867,27531,26302,31676,15631
65535,65535,4607,307,191,182,177,175,17970,65535,4572,308,269,262,260,257,31817,65535,1201,344,211,205,199,200,13599,65535,4971,4221,4131,4120,4114,4101,539,587,33418,28910,38553,27372,907,570,1073,1152,50935,46673,16335,13155,1267,1098,3094,5961,27338,25939,31233,27234,31320,36134,1009,5552,36715,34897,27533,26295,31681,15638
65535,65535,4562,306,191,184,177,176,18066,65535,4541,311,271,266,261,260,31762,65535,1189,343,212,204,202,200,13724,65535,4960,4198,4122,4122,4124,4126,539,590,33387,28884,38529,27367,905,567,1079,1153,51126,46827,16357,13177,1271,1102,3096,5963,27351,25954,31234,27246,31314,36136,1008,5559,36778,34946,27534,26319,31693,15650
65535,65535,4606,307,190,182,178,175,18181,65535,4590,311,272,265,260,260,31933,65535,1211,344,211,207,199,195,13807,65535,5015,4235,4158,4158,4167,4163,535,583,33313,28839,38497,27357,901,562,1079,1154,51495,47125,16388,13204,1269,1098,3093,5966,27374,25998,31243,27274,31313,36152,1009,5571,36833,35004,27545,26350,31711,15671
65535,65535,4560,305,192,183,176,175,18154,65535,4548,313,275,267,262,262,31955,65535,1203,346,209,206,201,200,14035,65535,5095,4262,4168,4158,4148,4131,531,581,33285,28818,38487,27371,898,561,1075,1150,51630,47174,16409,13234,1267,1094,3096,5977,27393,26042,31247,27302,31317,36177,1011,5575,36878,35046,27569,26396,31725,15690
65535,65535,4607,305,191,182,176,177,18229,65535,4598,311,274,267,263,259,32027,65535,1222,345,212,205,202,195,14055,65535,5054,4209,4109,4097,4090,4078,532,580,33262,28820,38492,27387,896,558,1073,1149,51638,47215,16430,13256,1263,1091,3099,5985,27413,26080,31249,27323,31319,36191,1014,5585,36899,35080,27586,26432,31729,15708
65535,65535,4561,309,190,182,177,177,18299,65535,4559,313,273,267,263,261,32194,65535,1232,347,215,209,205,200,13988,65535,4969,4148,4057,4055,4053,4046,527,576,33281,28840,38495,27403,892,555,1070,1145,51690,47260,16439,13277,1262,1091,3100,5995,27426,26112,31239,27335,31323,36223,1012,5601,36919,35100,27607,26473,31749,15723
65535,65535,4606,308,191,183,178,178,18302,65535,4601,314,277,267,264,265,32290,65535,1252,347,215,208,203,202,14162,65535,5021,4154,4067,4066,4068,4069,528,574,33295,28864,38517,27429,895,556,1069,1145,51743,47311,16456,13305,1261,1092,3101,6004,27450,26155,31230,27357,31335,36257,1013,5613,36935,35145,27630,26525,31774,15746
65535,65535,4565,306,191,181,177,176,18332,65535,4563,313,272,267,264,262,32324,65535,1245,348,211,206,204,201,14273,65535,5064,4181,4090,4083,4081,4077,526,577,33317,28892,38537,27450,895,556,1070,1147,51751,47335,16474,13335,1266,1093,3105,6016,27473,26206,31233,27371,31353,36281,1015,5628,36967,35190,27659,26571,31794,15760
65535,65535,4607,307,190,182,176,175,18375,65535,4607,315,273,267,265,262,32345,65535,1261,347,213,206,203,201,14443,65535,5093,4161,4061,4049,4037,4027,528,576,33319,28871,38509,27382,896,557,1074,1151,51749,47319,16456,13267,1267,1099,3105,6016,27450,26141,31164,27246,31283,36130,1018,5633,36963,35152,27619,26444,31711,15671
65535,65535,4562,309,189,183,176,177,18386,65535,4561,315,273,267,265,261,32251,65535,1240,347,214,205,205,201,14543,65535,5052,4117,4021,4008,4009,4006,529,580,33292,28800,38434,27279,894,559,1079,1154,51868,47319,16385,13160,1269,1103,3091,5950,27372,25960,31057,27071,31227,36030,1015,5581,36937,35066,27513,26261,31668,15632
65535,65535,4607,307,192,182,180,175,18396,65535,4602,314,274,268,265,262,32358,65535,1259,347,212,206,203,202,14599,65535,5061,4120,4029,4017,4007,4000,534,577,33292,28770,38401,27227,896,560,1078,1157,51886,47279,16364,13124,1273,1104,3082,5926,27327,25885,31016,27009,31197,35961,1015,5563,36929,35029,27470,26173,31635,15603
65535,65535,4560,305,190,182,177,177,18352,65535,4553,313,277,267,264,262,32417,65535,1255,350,212,206,206,201,14367,65535,4965,4103,4016,4012,4017,4009,531,584,33290,28741,38370,27188,895,561,1083,1161,51814,47198,16346,13090,1276,1105,3078,5902,27302,25824,30989,26962,31169,35913,1014,5547,36917,34997,27431,26117,31620,15591
65535,65535,4607,309,190,184,177,177,18317,65535,4595,311,273,265,261,259,32518,65535,1274,347,212,207,202,200,14300,65535,5001,4138,4050,4046,4039,4031,535,581,33297,28753,38370,27191,899,561,1085,1162,51705,47117,16351,13102,1275,1105,3075,5895,27293,25824,30991,26977,31167,35913,1012,5542,36919,35009,27419,26121,31617,15595
65535,65535,4563,308,190,181,179,175,18275,65535,4546,310,270,265,261,259,32607,65535,1273,348,212,206,202,202,14107,65535,4937,4123,4040,4035,4038,4032,535,582,33305,28752,38359,27186,896,563,1084,1161,51751,47143,16349,13097,1275,1105,3077,5896,27291,25812,30984,26968,31151,35889,1018,5539,36922,35006,27406,26098,31602,15590
65535,65535,4605,309,190,183,179,177,18255,65535,4589,312,267,264,263,256,32606,65535,1285,350,210,206,203,201,13971,65535,4913,4110,4016,3999,3984,3981,533,579,33296,28737,38350,27181,897,562,1083,1158,51719,47091,16348,13099,1271,1100,3076,5893,27283,25812,30975,26963,31152,35889,1011,5535,36923,35008,27401,26099,31597,15601
65535,65535,4559,307,193,185,178,181,18237,65535,4540,312,268,263,261,257,32619,65535,1277,347,212,205,203,199,13838,65535,4849,4082,3991,3984,3983,3975,537,579,33292,28741,38347,27192,894,558,1079,1156,51639,47075,16355,13119,1267,1098,3077,5896,27285,25831,30970,26979,31155,35907,1011,5536,36930,35031,27403,26119,31607,15611
65535,65535,4603,309,191,182,177,176,18219,65535,4581,308,268,263,257,255,32628,65535,1286,348,213,207,202,202,13785,65535,4846,4076,3991,3989,3993,3993,531,578,33277,28737,38350,27203,895,558,1077,1157,51658,47105,16375,13142,1267,1097,3079,5906,27293,25859,30972,26995,31165,35934,1012,5542,36942,35059,27418,26158,31623,15638
65535,65535,4558,306,191,185,177,179,18219,65535,4539,308,269,261,258,256,32635,65535,1281,349,212,207,202,200,13943,65535,4902,4111,4020,4015,4013,4010,528,577,33291,28751,38365,27226,895,558,1076,1153,51676,47136,16394,13171,1267,1098,3081,5914,27309,25895,30970,27010,31184,35963,1014,5554,36963,35086,27439,26206,31638,15651
65535,65535,4602,307,191,186,178,180,18209,65535,4582,307,267,265,258,256,32662,65535,1299,348,213,210,206,203,13903,65535,4884,4089,4001,3995,3990,3985,529,578,33291,28765,38383,27243,895,556,1077,1152,51671,47149,16407,13190,1267,1100,3082,5925,27317,25923,30971,27027,31199,35998,1013,5561,36973,35115,27457,26239,31653,15668
65535,65535,4557,310,191,182,177,177,18190,65535,4541,307,267,260,258,255,32693,65535,1290,347,212,208,204,201,13794,65535,4848,4081,3990,3984,3978,3974,526,577,33301,28777,38401,27268,896,557,1074,1152,51685,47185,16423,13215,1269,1098,3088,5937,27331,25963,30977,27047,31219,36039,1014,5567,36982,35139,27477,26287,31682,15691
65535,65535,4603,306,191,182,181,177,18178,65535,4580,306,266,261,258,254,32694,65535,1304,349,212,206,203,201,13727,65535,4833,4069,3983,3976,3969,3962,527,579,33313,28801,38429,27298,896,560,1075,1153,51646,47183,16443,13245,1271,1099,3090,5951,27351,26002,30990,27075,31245,36082,1013,5577,36993,35170,27501,26338,31699,15717
65535,65535,4558,307,191,182,178,180,18161,65535,4536,309,270,261,255,256,32716,65535,1299,349,211,205,203,202,13610,65535,4779,4046,3956,3950,3942,3932,529,579,33335,28820,38444,27292,898,558,1077,1156,51645,47193,16451,13241,1274,1099,3093,5959,27362,26023,30977,27047,31229,36023,1015,5582,36997,35186,27520,26335,31669,15673
65535,65535,4602,308,190,181,178,176,18106,65535,4572,307,267,260,255,255,32605,65535,1291,351,211,207,202,200,13475,65535,4731,4019,3936,3936,3930,3923,531,581,33321,28751,38371,27173,898,559,1080,1154,51742,47169,16377,13109,1271,1101,3087,5918,27295,25845,30859,26841,31143,35871,1013,5539,36967,35083,27412,26111,31589,15602
65535,65535,4556,307,193,183,178,179,18046,65535,4521,306,267,258,257,255,32543,65535,1273,351,213,205,204,201,13359,65535,4695,4005,3925,3918,3913,3905,529,580,33313,28717,38323,27112,894,558,1083,1157,51784,47149,16343,13055,1273,1101,3075,5879,27255,25751,30805,26757,31125,35809,1011,5508,36953,35041,27347,26015,31563,15574
65535,65535,4601,308,190,182,178,177,17969,65535,4558,308,266,259,257,258,32501,65535,1275,351,211,206,206,202,13197,65535,4677,3983,3896,3895,3902,3914,527,576,33315,28704,38284,27070,893,559,1084,1157,51869,47159,16326,13025,1274,1103,3071,5856,27235,25701,30773,26698,31091,35747,1008,5487,36958,35010,27309,25946,31531,15554
65535,65535,4555,308,191,182,178,176,17828,65535,4503,306,267,260,258,254,32505,65535,1263,350,213,207,206,201,13198,65535,4722,4051,3981,3983,3984,3990,531,578,33325,28707,38278,27068,894,559,1084,1158,51908,47163,16327,13031,1278,1107,3071,5851,27240,25689,30772,26706,31103,35753,1005,5472,36972,35023,27297,25938,31540,15564
65535,65535,4599,307,191,183,178,176,17567,65535,4525,308,270,265,264,263,32537,65535,1277,348,213,206,206,201,13227,65535,4815,4143,4069,4078,4081,4082,530,578,33337,28721,38271,27070,895,561,1086,1161,51886,47105,16329,13031,1273,1106,3071,5858,27243,25693,30782,26718,31091,35738,1002,5457,36987,35030,27287,25925,31515,15557
65535,65535,4555,306,191,185,178,177,17331,65535,4470,316,277,274,270,269,32423,65535,1257,357,215,205,205,203,13323,65535,4869,4178,4091,4089,4093,4090,532,578,33340,28727,38273,27065,894,560,1084,1161,51799,47062,16329,13032,1273,1104,3074,5853,27235,25689,30788,26717,31097,35735,1001,5436,36999,35042,27287,25919,31515,15559
65535,65535,4597,306,194,183,179,176,17242,65535,4509,325,286,279,276,273,32365,65535,1259,349,215,206,205,199,13214,65535,4869,4187,4101,4103,4105,4105,533,575,33343,28742,38279,27076,893,559,1081,1156,51759,47023,16339,13042,1269,1099,3074,5858,27235,25702,30794,26735,31103,35759,996,5422,36998,35048,27279,25935,31516,15573
65535,65535,4551,308,190,182,180,179,17151,65535,4465,325,287,281,280,278,32295,65535,1237,347,213,206,202,200,13115,65535,4902,4233,4149,4149,4146,4139,530,577,33355,28753,38285,27092,893,557,1079,1152,51715,47011,16347,13064,1269,1099,3075,5867,27246,25731,30800,26751,31125,35786,999,5412,37013,35081,27298,25971,31531,15590
65535,65535,4597,305,190,181,177,176,17112,65535,4503,329,289,282,280,279,32265,65535,1243,347,211,206,202,200,13106,65535,4910,4223,4132,4133,4134,4131,532,577,33349,28770,38303,27115,895,556,1078,1151,51637,46983,16367,13092,1268,1099,3078,5881,27252,25762,30807,26777,31144,35823,998,5414,37023,35110,27315,26016,31553,15610
65535,65535,4552,308,192,181,178,178,17097,65535,4462,330,289,284,281,278,32238,65535,1230,345,211,208,205,199,13079,65535,4913,4229,4140,4136,4135,4119,529,580,33365,28796,38322,27139,892,557,1077,1149,51597,46970,16382,13117,1269,1097,3082,5894,27269,25799,30815,26799,31171,35866,995,5417,37030,35131,27335,26062,31571,15630
65535,65535,4598,308,191,183,176,178,17106,65535,4507,331,290,284,281,283,32223,65535,1238,346,212,205,200,202,13019,65535,4897,4222,4135,4135,4139,4132,530,577,33366,28819,38342,27169,895,557,1076,1150,51559,46983,16402,13145,1269,1098,3082,5906,27280,25837,30818,26817,31194,35912,994,5426,37035,35157,27368,26105,31597,15649
65535,65535,4554,306,190,183,177,177,17115,65535,4465,331,293,285,283,280,32227,65535,1228,346,211,205,202,201,13040,65535,4903,4219,4127,4118,4117,4114,531,579,33383,28837,38370,27193,894,559,1078,1151,51581,47007,16419,13175,1269,1097,3089,5917,27300,25873,30829,26841,31220,35951,997,5437,37058,35194,27394,26163,31616,15674
65535,65535,4598,308,191,182,177,177,17139,65535,4510,331,291,287,282,280,32244,65535,1241,345,212,205,203,200,13015,65535,4913,4227,4144,4141,4135,4127,529,580,33397,28872,38390,27224,897,561,1078,1149,51606,47057,16443,13206,1269,1099,3090,5934,27323,25921,30838,26865,31250,36001,997,5446,37071,35230,27424,26218,31649,15699
65535,65535,4556,306,191,183,177,177,17159,65535,4470,335,292,287,282,279,32278,65535,1233,349,213,205,203,200,13024,65535,4898,4219,4132,4133,4137,4136,530,580,33407,28899,38421,27257,897,559,1075,1151,51594,47081,16463,13234,1270,1100,3096,5950,27347,25972,30855,26896,31285,36058,997,5455,37091,35264,27463,26282,31681,15724
65535,65535,4599,308,191,182,181,178,17184,65535,4515,333,294,285,284,283,32256,65535,1241,350,212,204,203,200,13049,65535,4930,4238,4145,4140,4136,4129,530,579,33427,28931,38451,27286,896,557,1078,1151,51659,47149,16487,13270,1270,1099,3099,5966,27375,26023,30874,26934,31319,36115,998,5467,37117,35305,27499,26345,31717,15754
65535,65535,4555,309,194,183,178,177,17207,65535,4479,331,293,287,287,282,32274,65535,1231,345,211,206,203,203,13018,65535,4899,4217,4122,4112,4105,4103,529,579,33445,28963,38484,27328,895,560,1077,1151,51633,47183,16506,13298,1269,1100,3105,5983,27406,26089,30902,26982,31351,36178,999,5479,37135,35352,27543,26415,31755,15780
65535,65535,4612,304,206,184,233,177,17252,65535,4569,332,362,287,584,284,32323,65535,1268,345,242,206,334,205,13245,65535,5701,4203,5663,4104,10842,4106,564,582,33515,28970,38604,27298,1655,561,1422,1155,52043,47209,18199,13266,8759,1130,3108,5994,27419,26088,30879,26903,31301,36049,1002,5488,37149,35344,27545,26345,31699,15694
65535,65535,4558,315,190,182,179,176,17574,65535,4492,355,297,289,283,283,32348,65535,1232,354,212,207,201,203,22781,65535,6292,4497,4082,4069,4068,4069,1668,584,33695,28920,38386,27161,893,555,13784,1231,56233,47412,16427,13111,1277,1101,3112,5925,27339,25858,30751,26678,31223,35897,1053,5429,37166,35251,27403,26080,31608,15626
65535,65535,4599,305,190,185,180,176,17223,65535,4515,334,294,291,286,284,32140,65535,1225,342,211,208,200,203,12921,65535,4854,4171,4083,4078,4074,4066,529,575,33414,28874,38336,27114,891,555,1079,1150,51967,47265,16377,13057,1272,1099,3086,5893,27277,25773,30710,26607,31211,35851,994,5407,37126,35212,27355,26001,31589,15599
65535,65535,4555,304,191,182,174,177,17228,65535,4469,332,295,292,285,283,32127,65535,1213,343,211,205,204,199,12915,65535,4834,4154,4062,4049,4042,4026,526,575,33410,28855,38295,27061,889,559,1079,1150,52163,47337,16361,13028,1272,1101,3082,5878,27261,25721,30681,26550,31189,35800,995,5395,37158,35200,27332,25939,31568,15581
65535,65535,4598,308,190,183,177,177,17250,65535,4511,335,292,288,284,282,32143,65535,1223,346,211,204,202,203,12793,65535,4779,4096,4000,3992,3994,3994,528,579,33395,28849,38279,27063,893,554,1080,1154,52152,47367,16377,13046,1272,1102,3077,5868,27262,25731,30685,26560,31205,35818,994,5390,37159,35213,27330,25935,31573,15590
65535,65535,4556,317,190,194,179,198,17263,65535,4471,369,295,341,285,400,32220,65535,1215,359,213,229,201,251,12742,65535,4769,4630,4011,5177,3998,6636,528,573,33391,28883,38276,27161,891,829,1081,1155,52215,47632,16396,14330,1282,4166,3083,5873,27269,25740,30692,26566,31197,35805,994,5391,37183,35215,27326,25932,31564,15589
65535,65535,4597,383,192,255,179,178,17269,65535,4515,741,297,665,288,286,32099,65535,1220,535,212,398,203,201,12732,65535,5022,13935,4040,13948,4069,4004,529,1166,33381,29898,38259,28274,900,555,1095,7431,52205,57650,16415,26424,1362,1104,3079,5880,27266,25742,30699,26595,31207,35815,992,5415,37181,35237,27318,25991,31563,15585
65535,65535,4555,308,194,184,174,177,17272,65535,4472,334,295,287,286,285,32034,65535,1200,346,211,204,203,200,12773,65535,4765,4091,4001,3992,3987,3980,527,576,33371,28850,38254,27071,887,553,1081,1153,52209,47403,16399,13067,1271,1101,3082,5883,27276,25775,30724,26609,31223,35839,992,5393,37167,35206,27327,25955,31572,15594
65535,65535,4596,305,190,183,176,177,17281,65535,4515,331,293,287,285,280,32044,65535,1210,343,211,206,199,199,12705,65535,4733,4053,3961,3957,3961,3966,525,573,33359,28862,38265,27098,892,556,1078,1152,52262,47463,16415,13092,1272,1101,3083,5892,27295,25815,30747,26650,31246,35877,994,5401,37184,35238,27353,25995,31595,15619
65535,65535,4552,308,193,181,179,176,17295,65535,4477,332,292,287,285,285,32058,65535,1203,346,210,204,200,200,12683,65535,4726,4063,3974,3970,3965,3965,526,574,33369,28889,38277,27125,889,555,1076,1153,52414,47581,16435,13122,1275,1101,3088,5907,27320,25864,30770,26688,31266,35918,995,5409,37223,35289,27373,26046,31609,15631
65535,65535,4595,306,191,186,181,175,17303,65535,4519,332,294,306,296,282,32070,65535,1215,343,211,222,209,200,12674,65535,4737,4063,3976,5262,4263,3966,526,574,33380,28917,38298,27397,931,557,1081,1156,52651,47775,16462,16263,1709,1114,3090,5919,27338,25906,30791,26735,31287,35954,993,5417,37274,35353,27403,26125,31631,15652
65535,65535,4578,309,219,185,232,180,17359,65535,4575,332,447,289,587,282,32134,65535,1254,345,281,206,340,200,13255,65535,6525,4061,7401,3971,10833,3951,598,575,33538,28947,38600,27178,1677,561,1916,1171,53886,47999,20296,13202,9247,1149,3098,5932,27377,25951,30814,26760,31314,35998,1001,5433,37376,35427,27447,26146,31681,15679
65535,65535,4602,310,191,183,176,176,17763,65535,4523,332,292,285,282,281,32401,65535,1229,346,213,205,203,205,23321,65535,4698,4024,3939,3931,3932,3927,1745,579,33418,28983,38341,27213,893,554,14409,1219,53263,48187,16518,13219,1294,1119,3107,5945,27400,25999,30840,26794,31343,36049,1045,5445,37438,35503,27469,26200,31684,15698
65535,65535,4556,307,194,187,177,177,17346,65535,4484,334,293,291,283,281,32255,65535,1226,345,212,205,205,204,12480,65535,4698,4037,3958,3959,3960,3958,526,576,33442,29023,38363,27248,893,557,1098,1173,53465,48316,16537,13249,1296,1121,3101,5957,27429,26052,30865,26840,31367,36095,1001,5452,37502,35566,27503,26254,31712,15724
65535,65535,4603,311,190,185,181,180,17341,65535,4527,335,291,289,284,281,32256,65535,1238,347,210,209,202,201,12580,65535,4722,4047,3959,3953,3947,3942,529,576,33454,29046,38391,27284,893,554,1099,1173,53585,48419,16557,13279,1296,1120,3105,5970,27451,26099,30893,26885,31405,36153,999,5459,37537,35615,27546,26317,31751,15748
65535,65535,4558,308,194,185,177,178,17355,65535,4491,332,293,286,282,283,32299,65535,1233,348,211,205,201,201,12529,65535,4703,4044,3962,3958,3963,3965,527,575,33472,29075,38422,27329,895,556,1099,1176,53652,48511,16579,13314,1294,1121,3111,5987,27481,26156,30927,26943,31439,36217,1000,5472,37569,35663,27579,26386,31794,15776
65535,65535,4604,320,192,202,181,217,17363,65535,4532,395,295,395,285,514,32285,65535,1241,372,212,253,201,300,12613,65535,4733,5131,3973,6373,3961,9056,529,624,33482,29192,38454,27584,896,1100,1187,1750,53723,49149,16617,15887,1313,7110,3113,6007,27511,26220,30969,26999,31471,36256,1008,5491,37601,35718,27626,26458,31825,15810
65535,65535,4558,387,193,180,179,178,17367,65535,4487,712,298,290,284,281,32290,65535,1241,539,215,205,201,200,12603,65535,5012,14168,4026,3963,3957,3951,530,1601,33485,30339,38435,27311,894,553,1121,12288,53893,63691,16631,13271,1300,1124,3117,6019,27521,26197,30921,26880,31394,36095,1000,5522,37631,35756,27590,26321,31719,15686
65535,65535,4599,308,191,183,179,178,17335,65535,4523,332,293,286,287,283,32095,65535,1223,346,210,203,202,200,12600,65535,4716,4037,3948,3948,3949,3952,526,573,33455,29040,38343,27208,891,554,1103,1178,54268,48861,16504,13159,1301,1128,3101,5939,27420,25978,30823,26719,31351,36010,998,5430,37639,35652,27483,26128,31687,15651
65535,65535,4556,311,192,184,178,177,17333,65535,4480,334,292,291,285,283,32163,65535,1213,346,211,204,202,200,12606,65535,4725,4064,3976,3974,3972,3962,530,573,33457,29035,38321,27182,894,555,1106,1187,54633,49059,16493,13134,1305,1134,3095,5923,27419,25960,30810,26688,31350,35992,997,5419,37708,35680,27468,26087,31675,15635
65535,65535,4602,307,191,183,177,174,17333,65535,4521,334,295,287,285,283,32182,65535,1226,347,211,205,199,200,12597,65535,4722,4050,3961,3956,3954,3955,529,576,33443,29023,38294,27155,894,558,1112,1188,54845,49177,16493,13127,1308,1137,3091,5917,27419,25942,30798,26663,31350,35986,997,5410,37747,35691,27456,26063,31675,15635
65535,65535,4560,310,196,182,184,175,17342,65535,4481,347,309,289,317,284,32197,65535,1219,361,223,206,217,203,12573,65535,4722,5108,4282,3965,4662,3963,528,577,33442,29254,38303,27169,990,555,1117,1191,54934,53277,16831,13147,2360,1143,3093,5923,27447,26002,30820,26696,31369,36014,997,5411,37785,35763,27464,26081,31687,15636
65535,65535,4637,309,245,183,259,177,17418,65535,4698,335,608,288,718,289,32240,65535,1313,346,349,205,416,203,14084,65535,8619,4058,10998,3962,14716,3955,695,578,33783,29051,38951,27167,2057,563,3101,1200,57286,49105,24220,13162,14957,1195,3094,5924,27439,25974,30815,26696,31378,36015,1004,5413,37763,35694,27486,26073,31721,15631
65535,65535,4557,309,194,181,178,178,17344,65535,4480,333,291,287,281,283,32187,65535,1217,345,211,204,200,199,12472,65535,4627,3960,3871,3856,3849,3837,529,577,33452,29059,38283,27181,893,555,1113,1179,54163,48671,16466,13125,1289,1115,3095,5932,27409,25964,30823,26712,31391,36033,998,5417,37642,35602,27463,26082,31674,15641
65535,65535,4602,307,191,183,177,178,17372,65535,4524,329,289,284,280,279,32182,65535,1227,344,209,203,198,199,12319,65535,4586,3918,3839,3837,3835,3831,529,575,33449,29070,38279,27203,895,556,1093,1166,53506,48395,16462,13142,1285,1110,3095,5940,27393,25987,30837,26746,31406,36062,1000,5423,37497,35525,27473,26115,31692,15655
65535,65535,4557,307,189,181,175,174,17379,65535,4482,332,290,283,281,276,32209,65535,1219,349,213,204,203,199,12295,65535,4585,3928,3843,3836,3833,3831,528,575,33443,29079,38299,27236,893,556,1091,1166,53327,48315,16466,13162,1284,1111,3098,5949,27407,26034,30863,26792,31429,36104,999,5433,37434,35502,27493,26155,31706,15671
65535,65535,4600,310,193,182,179,176,17413,65535,4529,329,292,283,279,278,32222,65535,1231,343,211,205,200,199,12281,65535,4593,3931,3843,3843,3841,3842,528,575,33433,29089,38318,27278,898,555,1087,1162,53197,48247,16477,13188,1281,1111,3101,5965,27420,26079,30883,26840,31446,36143,999,5441,37402,35498,27514,26210,31731,15691
65535,65535,4556,309,194,185,178,181,17431,65535,4489,329,290,284,281,277,32213,65535,1222,346,211,204,203,198,12292,65535,4595,3936,3854,3852,3854,3848,527,575,33444,29113,38346,27315,892,557,1087,1161,53087,48205,16483,13211,1281,1107,3105,5979,27440,26125,30907,26888,31468,36187,1001,5450,37387,35513,27544,26262,31748,15709
65535,65535,4601,312,190,182,195,174,17447,65535,4532,333,289,283,364,277,32163,65535,1230,344,210,204,239,198,12307,65535,4612,3944,3859,3855,5759,3859,529,575,33447,29133,38382,27356,1145,559,1086,1158,52877,48110,16497,13235,3836,1118,3106,5995,27451,26168,30935,26933,31487,36220,999,5461,37349,35510,27578,26318,31769,15730
65535,65535,4620,311,267,183,233,182,17679,65535,4836,330,693,286,562,281,32198,65535,1380,344,412,210,353,201,16195,65535,12376,3983,14349,3915,11449,3955,968,577,34279,29158,39674,27398,1773,573,5899,1177,59886,48031,30585,13317,11775,1240,3115,6005,27476,26214,30967,26984,31526,36265,1016,5472,37347,35511,27660,26367,31851,15749
65535,65535,4598,309,190,187,174,175,17590,65535,4537,330,288,283,284,277,32152,65535,1228,343,210,206,200,199,14958,65535,4626,3959,3879,3876,3876,3868,906,599,33470,29184,38447,27444,895,555,5740,1425,52567,47995,16523,13284,1272,1098,3129,6024,27498,26267,30993,27037,31533,36318,1037,5484,37307,35537,27643,26427,31819,15774
65535,65535,4557,307,190,182,177,174,17535,65535,4497,326,290,283,279,279,32087,65535,1221,343,209,205,199,202,12387,65535,4630,3967,3883,3878,3875,3873,527,575,33495,29218,38487,27488,895,553,1076,1147,52527,48003,16541,13317,1269,1095,3118,6039,27530,26334,31035,27104,31565,36373,1002,5495,37321,35567,27689,26505,31852,15799
65535,65535,4601,303,194,185,177,177,17532,65535,4541,329,292,282,279,279,32133,65535,1237,343,211,203,199,200,12374,65535,4632,3961,3875,3866,3860,3853,525,576,33518,29247,38501,27495,895,554,1075,1149,52517,48023,16543,13305,1271,1094,3120,6052,27554,26372,31037,27087,31535,36298,1001,5505,37315,35581,27701,26498,31800,15738
65535,65535,4557,307,191,182,177,179,17511,65535,4495,331,289,281,278,280,31999,65535,1209,343,213,204,201,199,12349,65535,4604,3936,3852,3845,3843,3842,526,573,33507,29191,38439,27388,894,551,1074,1148,52745,48135,16455,13161,1273,1097,3114,6002,27478,26164,30921,26885,31450,36151,1005,5463,37296,35483,27580,26250,31701,15663
65535,65535,4600,309,190,181,183,176,17520,65535,4534,329,288,283,280,277,31952,65535,1214,347,209,204,199,199,12339,65535,4604,3932,3850,3845,3843,3839,525,572,33497,29168,38399,27351,892,554,1077,1150,53035,48186,16428,13124,1271,1097,3103,5963,27449,26097,30886,26843,31444,36138,999,5432,37317,35461,27542,26191,31684,15645
65535,65535,4556,307,190,183,177,177,17510,65535,4489,332,293,282,279,277,31936,65535,1204,343,208,204,199,199,12357,65535,4597,3929,3845,3843,3841,3840,525,572,33499,29169,38381,27328,892,552,1076,1149,53005,48157,16417,13107,1269,1097,3098,5961,27447,26074,30865,26809,31433,36116,1001,5425,37311,35434,27524,26151,31665,15627
65535,65535,4646,307,193,184,177,181,17898,65535,4748,338,324,295,280,303,32172,65535,1335,347,241,211,200,210,22638,65535,11468,4079,5619,4099,3836,4425,1769,576,34422,29173,38718,27362,890,623,14750,1215,65133,48193,20313,13442,1274,1835,3113,5958,27478,26087,30887,26837,31450,36148,1057,5420,37364,35442,27565,26177,31679,15643
65535,65535,4555,335,191,181,178,177,17517,65535,4494,478,291,283,280,277,32051,65535,1209,406,214,205,200,199,12359,65535,4634,7024,3860,3846,3845,3839,524,718,33487,29435,38377,27343,891,551,1082,2812,53223,50398,16453,13134,1278,1099,3101,5969,27477,26119,30886,26850,31447,36148,999,5428,37337,35463,27540,26178,31672,15637
65535,65535,4596,309,190,183,175,175,17526,65535,4532,334,291,285,278,278,31935,65535,1209,344,210,205,200,198,12383,65535,4603,3933,3847,3844,3843,3839,526,569,33460,29159,38371,27359,892,554,1077,1153,53184,48275,16442,13141,1271,1096,3097,5968,27484,26134,30884,26866,31455,36165,999,5423,37339,35458,27540,26188,31673,15643
65535,65535,4550,307,190,185,177,175,17543,65535,4494,330,291,285,279,278,31953,65535,1199,345,209,202,199,198,12387,65535,4595,3931,3847,3845,3843,3841,521,569,33445,29155,38365,27377,887,551,1075,1149,53204,48304,16451,13164,1268,1097,3102,5973,27500,26169,30900,26907,31468,36197,998,5419,37335,35466,27557,26222,31690,15653
65535,65535,4596,309,189,182,174,177,17542,65535,4537,328,291,284,281,279,31977,65535,1212,344,210,204,200,199,12403,65535,4618,3946,3860,3853,3855,3850,521,573,33423,29161,38371,27412,889,549,1075,1150,53218,48333,16477,13191,1271,1097,3102,5986,27515,26216,30927,26952,31487,36237,997,5431,37350,35496,27580,26272,31710,15677
65535,65535,4552,307,191,181,177,175,17547,65535,4497,331,293,284,279,279,32006,65535,1205,345,208,204,199,200,12416,65535,4617,3949,3866,3859,3857,3851,521,567,33420,29174,38389,27446,889,551,1075,1149,53233,48363,16496,13225,1270,1097,3106,5999,27541,26275,30952,27006,31509,36287,998,5437,37364,35525,27608,26325,31733,15697
65535,65535,4596,306,191,182,172,175,17551,65535,4540,330,292,287,280,279,32028,65535,1219,342,209,207,203,199,12411,65535,4623,3949,3867,3862,3860,3858,522,570,33423,29194,38409,27487,891,549,1077,1149,53207,48369,16513,13257,1271,1097,3108,6016,27565,26322,30975,27053,31534,36327,998,5450,37363,35543,27644,26383,31750,15721
65535,65535,4554,311,193,193,183,191,17554,65535,4504,355,293,317,286,354,32073,65535,1221,354,209,221,200,234,12407,65535,5319,4309,3871,4617,3870,5574,521,570,33589,29241,38437,27582,892,735,1078,1150,56219,48543,16547,14138,1285,3127,3117,6031,27600,26371,31003,27105,31549,36375,1001,5453,37403,35575,27670,26447,31776,15748
65535,65535,4600,367,190,265,182,176,17556,65535,4543,642,295,695,284,279,32106,65535,1233,493,211,418,202,199,12428,65535,4810,11326,3893,14690,3904,3865,527,976,33437,29997,38462,28837,900,551,1090,5460,53205,55009,16571,27058,1337,1103,3115,6045,27614,26425,31027,27160,31573,36420,1003,5481,37388,35625,27701,26547,31803,15762
65535,65535,4557,307,191,182,179,176,17561,65535,4501,330,291,285,283,281,32123,65535,1221,343,211,204,200,201,12426,65535,4622,3952,3871,3867,3867,3865,522,574,33447,29263,38487,27603,893,552,1080,1153,53221,48460,16567,13349,1277,1103,3120,6057,27640,26471,31057,27207,31597,36467,1001,5475,37401,35632,27738,26557,31833,15787
65535,65535,4598,307,190,181,180,175,17573,65535,4545,331,292,287,283,280,32121,65535,1232,343,209,207,201,199,12438,65535,4635,3961,3876,3872,3868,3868,526,572,33452,29289,38513,27645,895,550,1079,1156,53226,48497,16589,13383,1280,1103,3121,6070,27669,26530,31091,27269,31625,36524,1001,5486,37410,35669,27777,26623,31865,15814
65535,65535,4554,306,191,182,175,176,17579,65535,4507,332,293,285,283,284,32111,65535,1220,344,210,203,199,199,12440,65535,4632,3963,3877,3872,3870,3867,525,573,33466,29321,38553,27691,895,553,1082,1158,53252,48555,16612,13423,1278,1102,3128,6087,27700,26599,31139,27341,31661,36583,1003,5496,37425,35717,27815,26703,31902,15844
65535,65535,4601,312,190,181,178,175,17583,65535,4549,333,291,284,284,280,32125,65535,1231,346,210,202,200,199,12434,65535,4636,3955,3868,3859,3851,3846,526,572,33477,29337,38561,27695,896,551,1079,1155,53274,48595,16620,13419,1279,1103,3130,6110,27723,26641,31149,27339,31636,36529,1002,5507,37442,35741,27842,26707,31858,15789
65535,65535,4553,307,191,184,177,175,17559,65535,4502,332,290,286,281,280,31985,65535,1204,344,209,203,198,201,12389,65535,4600,3934,3847,3843,3838,3833,527,570,33454,29263,38486,27572,893,551,1081,1159,53448,48601,16522,13254,1278,1106,3124,6060,27629,26406,31019,27111,31541,36359,1002,5462,37407,35607,27699,26415,31747,15693
65535,65535,4597,306,189,199,176,210,17544,65535,4539,333,291,375,283,466,31927,65535,1208,342,210,244,199,287,12376,65535,4599,3925,3842,5841,3844,8103,522,569,33407,29207,38429,27687,893,1014,1086,1156,53540,48611,16481,15275,1288,6069,3107,6014,27574,26293,30983,27048,31527,36329,998,5431,37383,35551,27639,26323,31725,15678
65535,65535,4551,385,191,241,181,184,17549,65535,4497,715,295,558,292,344,31869,65535,1197,547,212,359,202,244,12388,65535,4828,14489,3886,11434,3936,6350,526,1490,33396,30488,38398,28479,903,911,1099,10719,53567,63451,16507,24136,1435,5557,3107,6003,27550,26243,30952,27019,31505,36310,997,5441,37366,35555,27609,26308,31698,15674
65535,65535,4594,307,189,182,177,175,17550,65535,4533,332,291,287,283,280,31871,65535,1199,343,207,205,200,198,12584,65535,4599,3926,3846,3840,3844,3842,549,573,33357,29145,38367,27448,891,552,1381,1164,53513,48517,16458,13156,1277,1103,3103,5985,27533,26206,30942,26989,31508,36296,998,5396,37348,35465,27594,26236,31687,15642
65535,65535,4551,309,189,182,172,179,17535,65535,4493,333,291,285,281,281,31924,65535,1197,341,211,204,200,197,12388,65535,4607,3945,3864,3865,3864,3862,525,571,33337,29135,38359,27455,891,551,1083,1159,53478,48505,16466,13166,1277,1103,3105,5991,27545,26231,30956,27009,31503,36302,995,5396,37345,35459,27599,26241,31684,15635
65535,65535,4593,304,189,182,177,175,17569,65535,4534,329,288,282,279,278,31811,65535,1198,344,210,204,198,197,12418,65535,4632,3963,3878,3876,3880,3884,524,572,33325,29126,38341,27450,890,552,1081,1158,53433,48465,16467,13165,1279,1103,3107,5995,27537,26223,30948,27014,31499,36303,998,5398,37327,35445,27591,26240,31678,15637
65535,65535,4548,301,189,179,180,178,17607,65535,4495,331,288,283,279,278,31809,65535,1186,342,209,204,203,198,12500,65535,4647,3979,3898,3890,3887,3884,523,572,33303,29120,38325,27453,891,551,1082,1156,53390,48428,16466,13179,1277,1102,3107,6000,27538,26237,30959,27043,31507,36325,998,5409,37317,35431,27601,26263,31689,15645
65535,65535,4591,307,191,182,177,176,17617,65535,4536,327,293,282,277,277,31831,65535,1200,341,211,204,199,197,12468,65535,4651,3982,3896,3894,3893,3886,524,574,33280,29115,38323,27475,892,551,1075,1157,53351,48409,16479,13206,1273,1102,3107,6007,27550,26269,30978,27082,31517,36354,996,5412,37313,35447,27619,26309,31705,15666
65535,65535,4547,306,193,182,179,251,17611,65535,4496,331,288,282,282,632,31842,65535,1189,341,209,203,199,399,12453,65535,4641,3976,3895,3890,3894,13804,522,572,33264,29115,38336,27506,891,1725,1079,1152,53298,48393,16494,13237,1275,14067,3111,6018,27563,26305,30996,27124,31531,36405,1001,5419,37318,35466,27645,26360,31728,15743
65535,65535,4592,306,193,181,184,178,17594,65535,4546,333,307,282,310,278,31843,65535,1212,350,218,205,218,199,12523,65535,5013,4694,4233,3906,4647,3903,533,1326,33258,29279,38370,27528,999,552,1159,9739,53301,51428,16846,13263,2363,1111,3112,6046,27570,26356,31020,27167,31543,36427,1000,5466,37318,35510,27671,26408,31753,15708
65535,65535,4583,305,191,179,177,174,17666,65535,4669,329,287,284,280,276,31836,65535,1276,342,209,204,199,198,14057,65535,8781,4009,3910,3902,3898,3899,704,575,33607,29132,38359,27559,892,555,3129,1169,55721,48367,16541,13292,1282,1103,3120,6043,27588,26383,31045,27214,31561,36467,1007,5436,37331,35499,27696,26460,31769,15727
65535,65535,4594,306,190,182,177,177,17602,65535,4541,327,289,282,281,275,31787,65535,1196,342,210,203,200,198,12433,65535,4670,4000,3919,3919,3921,3923,523,573,33235,29143,38372,27589,894,554,1081,1157,53145,48356,16540,13315,1279,1102,3115,6058,27595,26417,31067,27254,31576,36503,997,5440,37321,35521,27724,26517,31793,15749
65535,65535,4547,306,191,185,177,175,17612,65535,4498,331,288,280,282,276,31763,65535,1186,343,209,203,200,199,12501,65535,4700,4037,3961,3959,3966,3966,523,574,33240,29167,38396,27621,893,556,1083,1157,53135,48373,16553,13343,1279,1101,3122,6070,27622,26468,31097,27306,31599,36553,1001,5456,37328,35545,27755,26571,31827,15774
65535,65535,4592,306,192,183,176,175,17649,65535,4543,326,288,283,277,274,31765,65535,1202,343,213,207,199,199,12652,65535,4763,4091,4017,4023,4027,4032,524,573,33241,29185,38423,27661,898,552,1082,1155,53125,48391,16575,13373,1279,1102,3122,6085,27644,26515,31127,27361,31618,36607,1002,5480,37336,35578,27791,26639,31855,15803
65535,65535,4546,305,198,182,176,178,17716,65535,4505,325,283,277,276,273,31769,65535,1191,346,209,204,200,199,12886,65535,4820,4144,4055,4051,4047,4044,524,571,33252,29206,38447,27694,898,552,1082,1156,53148,48432,16589,13407,1278,1104,3131,6100,27669,26573,31161,27418,31646,36657,1005,5502,37345,35607,27827,26697,31891,15828
65535,65535,4593,305,190,183,175,179,17861,65535,4560,320,283,275,272,269,31805,65535,1213,345,211,205,202,199,13056,65535,4831,4129,4043,4033,4031,4018,523,575,33261,29230,38468,27727,897,553,1083,1161,53169,48483,16615,13437,1281,1106,3130,6113,27696,26627,31197,27477,31673,36712,1009,5525,37351,35630,27866,26763,31920,15856
65535,65535,4557,309,202,186,197,178,17994,65535,4562,318,322,273,363,267,31921,65535,1234,348,234,207,249,201,13166,65535,5391,4104,5053,4019,6337,4015,525,579,33324,29263,38579,27773,1197,554,1082,1424,53467,48591,17714,13480,4267,1125,3135,6136,27734,26695,31235,27542,31703,36770,1012,5554,37375,35672,27915,26843,31962,15881
65535,65535,4663,309,265,184,177,180,18269,65535,4914,321,641,275,269,266,32143,65535,1436,352,419,207,202,200,17949,65535,13653,4128,14355,4039,3979,3967,1057,579,34257,29289,39764,27760,903,555,6714,1186,62097,48638,30684,13529,1296,1117,3141,6149,27751,26700,31253,27509,31661,36683,1032,5567,37429,35684,27980,26809,31894,15808
65535,65535,4546,306,189,182,177,176,18057,65535,4523,317,276,271,268,265,31983,65535,1229,349,213,205,202,201,13247,65535,4759,4056,3973,3968,3969,3965,527,577,33287,29210,38413,27623,897,555,1087,1169,53375,48541,16538,13296,1287,1110,3129,6088,27639,26447,31107,27287,31573,36527,1012,5510,37342,35543,27761,26516,31793,15720
65535,65535,4590,304,190,182,177,174,18074,65535,4564,317,275,269,265,265,32044,65535,1249,348,212,205,202,201,13322,65535,4793,4079,4001,4004,4008,4005,524,577,33251,29153,38359,27551,898,553,1090,1169,53330,48465,16498,13236,1286,1112,3115,6044,27595,26353,31067,27223,31553,36492,1007,5478,37305,35479,27707,26419,31776,15698
65535,65535,4545,307,185,181,180,178,18137,65535,4524,314,276,269,267,263,32060,65535,1238,349,216,207,202,201,13508,65535,4856,4128,4051,4049,4052,4053,527,575,33225,29103,38311,27497,895,556,1092,1166,53235,48351,16474,13203,1285,1110,3115,6029,27566,26285,31039,27174,31529,36440,1008,5467,37271,35415,27675,26352,31750,15673
65535,65535,4590,308,190,181,176,176,18177,65535,4569,315,273,268,269,267,32138,65535,1254,348,213,205,202,203,13748,65535,4967,4186,4098,4091,4087,4081,527,575,33187,29067,38285,27481,895,554,1088,1169,53119,48256,16472,13198,1284,1109,3109,6015,27550,26261,31029,27171,31531,36454,1010,5462,37245,35377,27660,26339,31755,15680
65535,65535,4545,306,194,181,176,179,18202,65535,4527,315,275,269,270,266,32223,65535,1251,350,215,209,202,202,13889,65535,4975,4180,4097,4097,4096,4091,527,580,33159,29046,38270,27471,898,555,1089,1164,53031,48186,16473,13198,1282,1107,3110,6021,27552,26270,31042,27171,31521,36446,1010,5468,37228,35352,27657,26339,31749,15679
65535,65535,4589,307,190,185,177,179,18203,65535,4569,315,271,268,266,263,32184,65535,1255,349,212,205,201,204,13962,65535,4990,4167,4075,4068,4064,4055,526,575,33126,29019,38243,27452,895,556,1090,1163,52967,48122,16473,13198,1285,1107,3109,6017,27545,26255,31031,27172,31511,36442,1009,5467,37207,35327,27650,26341,31750,15679
65535,65535,4544,305,190,182,177,177,18191,65535,4523,313,274,267,263,263,32196,65535,1245,344,215,205,203,201,13879,65535,4918,4132,4042,4034,4031,4030,526,576,33095,29004,38232,27449,897,555,1086,1162,52882,48066,16474,13210,1281,1106,3112,6018,27540,26267,31039,27194,31517,36453,1009,5463,37189,35314,27660,26354,31760,15695
65535,65535,4588,307,193,186,177,244,18167,65535,4565,314,276,267,264,614,32232,65535,1259,347,214,206,201,387,13805,65535,4902,4117,4026,4017,4012,13054,525,575,33066,28991,38226,27467,893,1535,1086,1161,52800,48019,16490,13236,1284,11451,3108,6027,27537,26290,31045,27225,31521,36477,1007,5464,37180,35317,27668,26395,31780,15747
65535,65535,4545,360,191,184,182,175,18143,65535,4521,539,283,300,277,263,32251,65535,1256,491,214,235,208,200,13717,65535,5298,11239,4117,5818,4239,3973,529,1799,33066,29961,38239,27804,929,555,1121,14849,52927,59913,16616,17068,1681,1113,3115,6051,27555,26349,31067,27276,31534,36513,1011,5525,37206,35400,27689,26473,31799,15733
65535,65535,4607,307,190,183,179,174,18138,65535,4639,312,272,267,264,260,32285,65535,1299,347,211,206,205,199,14089,65535,6425,4073,3974,3968,3963,3959,589,577,33185,29008,38243,27511,895,555,1835,1171,53578,48020,16526,13294,1286,1108,3116,6051,27563,26362,31076,27294,31541,36541,1012,5471,37205,35358,27711,26489,31822,15759
65535,65535,4546,305,191,182,177,183,18067,65535,4514,310,278,265,265,262,32293,65535,1252,348,211,206,204,199,13431,65535,4760,4045,3955,3947,3945,3939,525,579,33057,29010,38262,27535,893,554,1086,1162,52710,47983,16526,13315,1283,1107,3117,6060,27576,26395,31095,27329,31559,36575,1010,5472,37201,35375,27733,26537,31840,15778
65535,65535,4588,306,193,183,179,175,18034,65535,4554,312,276,265,263,261,32297,65535,1263,346,214,205,202,200,13352,65535,4731,4019,3935,3928,3927,3921,524,576,33053,29024,38272,27564,895,555,1084,1161,52639,47960,16541,13342,1286,1107,3116,6067,27578,26428,31115,27376,31575,36619,1006,5481,37194,35394,27755,26587,31870,15806
65535,65535,4546,307,191,183,179,174,18007,65535,4511,311,271,264,262,265,32299,65535,1253,347,210,206,202,200,13279,65535,4709,4012,3924,3920,3915,3910,526,575,33063,29043,38295,27592,896,555,1084,1162,52599,47944,16552,13365,1282,1106,3123,6080,27596,26472,31137,27415,31590,36655,1009,5486,37210,35422,27787,26640,31900,15829
65535,65535,4590,307,190,178,176,176,17984,65535,4553,311,273,267,263,261,32298,65535,1263,346,211,207,201,199,13214,65535,4694,3996,3911,3906,3902,3898,526,577,33071,29061,38312,27628,899,557,1087,1161,52587,47966,16572,13399,1281,1106,3123,6094,27613,26520,31163,27467,31615,36700,1009,5495,37215,35451,27821,26703,31930,15854
65535,65535,4545,306,190,185,178,172,17971,65535,4512,311,272,264,262,261,32287,65535,1251,348,212,204,200,201,13155,65535,4674,3989,3903,3894,3894,3887,525,575,33080,29079,38339,27663,898,557,1085,1162,52585,47987,16583,13425,1283,1110,3128,6109,27637,26571,31193,27523,31637,36747,1012,5505,37233,35489,27851,26770,31960,15879
65535,65535,4591,310,191,186,177,175,17959,65535,4553,311,273,266,262,261,32284,65535,1262,347,211,207,202,199,13110,65535,4668,3977,3892,3887,3888,3879,527,574,33088,29103,38359,27701,899,556,1087,1160,52591,48023,16603,13453,1284,1109,3129,6125,27660,26621,31219,27572,31662,36799,1011,5513,37247,35527,27887,26823,31997,15905
65535,65535,4547,306,190,185,177,175,17941,65535,4513,313,274,265,265,259,32278,65535,1251,348,211,203,204,201,13066,65535,4654,3975,3887,3881,3882,3876,528,577,33103,29133,38396,27739,899,555,1085,1162,52598,48051,16620,13487,1285,1106,3134,6141,27687,26682,31257,27635,31689,36854,1013,5523,37267,35561,27925,26897,32025,15935
65535,65535,4591,306,189,189,175,190,17934,65535,4555,312,272,293,263,320,32279,65535,1265,346,211,219,202,229,13033,65535,4653,3965,3877,4527,3871,5343,527,576,33133,29172,38430,27831,903,717,1088,1162,52583,48073,16637,14242,1292,2885,3136,6157,27709,26735,31282,27687,31709,36882,1011,5536,37281,35602,27959,26961,32045,15948
65535,65535,4550,360,190,264,179,242,17906,65535,4506,577,275,663,269,567,32291,65535,1255,483,214,421,203,380,12974,65535,4861,10537,3873,14392,3877,12617,530,931,33132,29798,38390,28905,903,1621,1099,4992,52659,53774,16604,26428,1338,12925,3139,6149,27673,26625,31205,27518,31611,36697,1013,5537,37278,35557,27880,26790,31911,15869
65535,65535,4592,307,191,184,182,175,17875,65535,4542,313,274,267,265,262,32088,65535,1238,347,211,205,201,200,12993,65535,4607,3921,3839,3831,3829,3827,537,575,33089,29051,38294,27572,898,559,1189,1164,52733,48027,16509,13294,1286,1109,3118,6069,27569,26409,31110,27365,31560,36599,1008,5463,37237,35444,27754,26539,31869,15773
65535,65535,4545,308,191,184,177,179,17847,65535,4497,311,271,262,263,262,32057,65535,1223,347,210,203,201,199,12877,65535,4586,3908,3824,3817,3813,3809,526,575,33082,29019,38255,27514,895,555,1087,1162,52739,47975,16473,13251,1283,1110,3114,6050,27538,26346,31079,27313,31541,36555,1006,5444,37223,35404,27710,26469,31853,15754
65535,65535,4590,309,190,182,180,177,17821,65535,4535,315,271,267,264,265,32043,65535,1230,344,211,204,201,201,12813,65535,4576,3891,3809,3800,3797,3792,527,574,33045,28971,38216,27471,897,555,1091,1162,52705,47911,16462,13221,1283,1109,3107,6030,27506,26289,31049,27259,31524,36527,1003,5428,37207,35358,27687,26421,31839,15745
65535,65535,4543,306,190,181,176,175,17789,65535,4491,313,277,266,266,263,32055,65535,1218,343,210,208,202,200,12739,65535,4551,3881,3797,3790,3790,3779,528,575,33037,28954,38201,27462,894,556,1087,1165,52591,47827,16465,13235,1282,1103,3108,6029,27511,26296,31047,27271,31528,36530,1005,5423,37205,35350,27693,26433,31852,15752
65535,65535,4586,307,189,182,177,179,17714,65535,4528,316,275,271,268,271,32046,65535,1227,344,210,204,201,199,12663,65535,4541,3860,3773,3763,3760,3752,526,575,33025,28939,38177,27445,895,555,1087,1158,52508,47754,16453,13223,1277,1103,3107,6031,27494,26285,31028,27256,31510,36514,1003,5420,37187,35335,27681,26421,31847,15753
65535,65535,4541,305,190,182,178,175,17679,65535,4486,317,279,273,269,268,32004,65535,1211,347,212,204,201,201,12575,65535,4505,3838,3758,3751,3747,3739,530,573,32997,28919,38165,27433,893,554,1082,1156,52468,47717,16453,13228,1277,1101,3108,6030,27484,26281,31022,27259,31515,36523,1002,5413,37187,35335,27681,26429,31850,15766
65535,65535,4587,306,191,183,177,178,17649,65535,4525,319,279,274,271,271,31987,65535,1222,345,210,205,201,199,12515,65535,4510,3840,3764,3777,3780,3774,525,572,32989,28915,38161,27439,895,550,1084,1152,52415,47695,16463,13245,1275,1100,3107,6033,27479,26296,31027,27279,31515,36535,1001,5411,37181,35347,27691,26464,31871,15779
65535,65535,4541,306,189,181,177,177,17614,65535,4480,320,282,274,271,271,31988,65535,1210,345,212,204,203,199,12555,65535,4545,3882,3802,3803,3801,3800,524,572,32974,28916,38163,27458,894,553,1081,1152,52383,47697,16473,13269,1275,1100,3109,6044,27484,26330,31040,27310,31529,36567,1003,5419,37195,35373,27719,26509,31899,15802
65535,65535,4663,308,255,186,201,179,17591,65535,4896,325,587,283,395,285,32012,65535,1425,347,385,210,283,205,12581,65535,15127,3946,12412,3881,7901,3974,524,572,34199,28923,39289,27484,1409,580,1081,1155,65252,47720,28778,13403,7644,1341,3108,6054,27499,26365,31067,27347,31563,36597,1002,5422,37253,35407,27797,26559,31969,15826
65535,65535,4544,317,189,201,178,177,17578,65535,4481,378,283,369,273,271,32007,65535,1210,367,213,248,200,199,12563,65535,4569,4874,3821,5998,3816,3806,530,618,32970,29009,38189,27700,895,556,1377,1667,52346,48237,16521,15633,1291,1107,3118,6068,27498,26393,31073,27379,31555,36629,1011,5430,37212,35431,27762,26614,31935,15844
65535,65535,4587,303,191,182,175,175,17575,65535,4525,321,283,276,274,274,31991,65535,1220,343,210,204,204,198,12539,65535,4574,3900,3823,3817,3817,3814,525,574,32969,28941,38202,27527,896,557,1084,1155,52335,47725,16521,13354,1279,1104,3112,6077,27501,26431,31086,27413,31567,36654,1002,5439,37231,35462,27789,26651,31959,15867
65535,65535,4543,305,193,181,175,175,17571,65535,4485,324,279,278,272,273,32014,65535,1213,347,209,205,200,199,12543,65535,4577,3909,3825,3824,3820,3819,525,575,32975,28956,38218,27554,895,556,1083,1158,52341,47751,16535,13380,1279,1104,3116,6086,27521,26471,31105,27453,31584,36696,1007,5447,37249,35497,27810,26703,31982,15886
65535,65535,4587,305,190,183,176,175,17573,65535,4527,327,284,279,273,271,32017,65535,1225,346,210,204,199,198,12542,65535,4586,3911,3830,3824,3825,3817,526,574,32987,28981,38245,27586,897,555,1087,1155,52347,47788,16551,13403,1281,1106,3117,6100,27535,26516,31127,27497,31606,36741,1003,5458,37258,35533,27845,26766,32017,15915
65535,65535,4544,306,191,181,177,176,17577,65535,4487,324,283,279,275,274,32007,65535,1213,343,210,205,199,200,12535,65535,4580,3907,3826,3822,3818,3814,525,574,32999,29004,38270,27618,896,556,1083,1155,52382,47837,16564,13429,1277,1104,3121,6115,27553,26565,31153,27547,31627,36788,1007,5466,37277,35570,27871,26822,32039,15941
65535,65535,4590,305,194,183,176,177,17587,65535,4532,324,290,277,276,276,32006,65535,1224,343,213,205,199,199,12514,65535,4583,3904,3823,3817,3818,3811,526,575,33011,29025,38295,27657,899,554,1082,1154,52408,47885,16582,13460,1280,1103,3124,6129,27573,26617,31185,27598,31648,36829,1007,5476,37299,35609,27905,26883,32069,15963
65535,65535,4544,305,189,183,177,175,17596,65535,4493,325,287,279,275,275,32020,65535,1216,345,211,205,202,203,12505,65535,4576,3910,3827,3821,3817,3815,525,575,33034,29058,38325,27696,897,555,1081,1155,52442,47940,16595,13487,1280,1104,3127,6145,27602,26677,31210,27655,31680,36881,1008,5491,37319,35663,27941,26950,32102,15992
65535,65535,4590,309,191,182,176,179,17607,65535,4535,329,286,280,278,278,32030,65535,1229,345,210,204,200,201,12499,65535,4586,3910,3831,3823,3824,3817,526,576,33058,29095,38357,27735,901,556,1080,1156,52465,47988,16618,13517,1283,1107,3131,6164,27623,26732,31241,27706,31699,36914,1005,5509,37331,35701,27978,27009,32119,16003
65535,65535,4544,307,192,182,176,178,17566,65535,4489,328,287,285,279,276,32037,65535,1219,344,211,203,204,197,12500,65535,4569,3898,3819,3823,3821,3816,529,578,33057,29069,38324,27655,897,555,1083,1159,52558,48011,16577,13431,1283,1107,3131,6159,27603,26652,31172,27556,31603,36718,1008,5500,37342,35657,27914,26839,31997,15880
65535,65535,4611,307,224,183,242,177,17594,65535,4637,330,478,285,632,281,31845,65535,1263,343,296,204,367,202,13315,65535,6876,3919,8126,3835,12037,3838,619,577,33217,28991,38609,27539,1814,560,2166,1167,53880,48015,21270,13333,10893,1151,3115,6083,27495,26431,31069,27385,31547,36625,1009,5440,37319,35575,27798,26619,31982,15841
65535,65535,4591,308,191,182,177,177,17917,65535,4707,338,291,283,281,277,32014,65535,1323,347,211,204,199,199,22836,65535,11803,4044,3828,3823,3818,3814,1737,575,33971,28983,38200,27497,895,559,14749,1222,65041,48005,16489,13284,1286,1108,3126,6064,27488,26379,31039,27333,31529,36585,1059,5429,37358,35554,27744,26559,31931,15823
65535,65535,4587,307,189,182,177,175,17529,65535,4522,332,290,278,278,277,31795,65535,1203,343,210,203,200,199,12488,65535,4574,3900,3820,3814,3814,3810,528,574,33008,28935,38167,27458,895,557,1087,1158,52659,47940,16462,13259,1282,1106,3103,6050,27446,26338,31009,27292,31517,36566,1002,5420,37292,35518,27727,26519,31923,15821
65535,65535,4542,306,190,183,179,176,17505,65535,4479,330,291,287,284,283,31802,65535,1194,343,213,203,202,199,12445,65535,4563,3897,3815,3810,3807,3801,529,575,33011,28939,38156,27452,893,553,1085,1160,52585,47906,16466,13275,1280,1105,3104,6050,27452,26359,31013,27303,31517,36563,1003,5421,37289,35530,27735,26541,31927,15823
65535,65535,4587,306,189,181,178,177,17490,65535,4522,331,289,285,285,282,31799,65535,1199,341,209,204,201,199,12411,65535,4565,3893,3811,3802,3801,3798,525,575,33009,28933,38144,27437,894,553,1081,1157,52555,47865,16458,13263,1278,1102,3103,6051,27441,26341,30993,27281,31506,36546,1003,5423,37284,35517,27724,26521,31918,15819
65535,65535,4540,306,190,185,176,175,17481,65535,4479,334,292,284,282,279,31790,65535,1190,343,211,203,199,203,12397,65535,4551,3887,3807,3802,3800,3796,523,578,33001,28931,38132,27431,892,554,1082,1154,52541,47847,16452,13266,1275,1101,3106,6050,27435,26341,30987,27280,31501,36553,999,5426,37277,35519,27727,26530,31922,15831
65535,65535,4585,306,193,182,177,175,17506,65535,4521,335,293,284,282,279,31806,65535,1203,345,213,203,205,199,12385,65535,4555,3884,3804,3799,3798,3794,524,575,32993,28939,38126,27439,894,553,1080,1153,52507,47842,16461,13282,1275,1102,3102,6054,27437,26365,30983,27303,31508,36568,1001,5429,37276,35533,27731,26557,31929,15841
65535,65535,4540,306,191,182,176,177,17496,65535,4483,330,291,289,279,282,31815,65535,1191,341,209,204,200,199,12381,65535,4550,3887,3805,3800,3797,3795,525,574,32992,28947,38135,27451,894,553,1080,1153,52484,47845,16471,13309,1277,1101,3107,6065,27446,26401,30996,27330,31516,36594,1001,5436,37279,35559,27753,26599,31947,15863
65535,65535,4586,305,190,180,176,175,17516,65535,4525,329,289,284,283,281,31827,65535,1205,343,209,203,201,201,12371,65535,4558,3891,3806,3802,3802,3796,523,575,32994,28961,38145,27479,895,554,1080,1154,52445,47837,16487,13337,1277,1101,3106,6074,27454,26434,31009,27363,31526,36622,1003,5447,37282,35584,27770,26649,31961,15879
65535,65535,4541,306,190,260,180,237,17512,65535,4485,332,292,691,287,570,31833,65535,1198,342,209,415,200,362,12373,65535,4551,3889,3808,14454,3846,11601,527,573,33001,28983,38169,28773,897,1502,1078,1152,52430,47855,16497,27317,1335,11809,3108,6086,27469,26476,31023,27406,31534,36668,1004,5456,37291,35611,27794,26745,31978,15951
65535,65535,4589,305,196,182,189,175,17508,65535,4546,333,315,286,334,282,31834,65535,1217,344,223,204,223,199,12465,65535,4911,3895,4310,3809,4954,3805,535,984,33031,29007,38223,27527,1053,556,1202,6211,52496,47852,17038,13387,2911,1111,3111,6110,27478,26511,31032,27425,31549,36682,1005,5499,37300,35644,27814,26739,31991,15914
65535,65535,4543,305,189,182,176,177,17629,65535,4484,331,294,286,287,282,31880,65535,1198,343,210,204,203,199,14815,65535,4553,3890,3807,3805,3802,3801,799,575,33031,29031,38207,27558,894,551,4157,1167,52372,47867,16523,13406,1278,1100,3114,6109,27497,26550,31051,27464,31563,36720,1017,5476,37303,35667,27837,26786,32007,15935
65535,65535,4586,306,190,181,177,175,17499,65535,4528,331,293,284,286,281,31828,65535,1209,343,209,203,200,198,12385,65535,4562,3891,3809,3806,3802,3800,527,574,33046,29058,38230,27589,894,555,1079,1154,52363,47888,16537,13431,1277,1098,3114,6123,27513,26596,31067,27507,31579,36757,1004,5489,37313,35700,27861,26836,32022,15956
65535,65535,4541,305,190,182,180,175,17503,65535,4489,332,293,287,291,281,31832,65535,1200,343,209,206,201,199,12389,65535,4557,3889,3813,3807,3810,3803,524,574,33071,29093,38265,27621,896,553,1078,1151,52368,47911,16545,13455,1274,1098,3117,6135,27533,26647,31087,27552,31597,36801,1007,5500,37322,35738,27888,26894,32049,15977
65535,65535,4588,305,190,183,177,179,17506,65535,4531,332,296,288,282,282,31834,65535,1211,343,209,206,200,200,12399,65535,4568,3897,3818,3812,3815,3809,523,574,33091,29125,38293,27665,897,553,1077,1149,52378,47953,16566,13487,1277,1100,3119,6151,27557,26703,31115,27605,31626,36855,1006,5511,37333,35773,27925,26964,32081,16003
65535,65535,4543,307,190,184,175,176,17535,65535,4494,333,291,287,279,280,31853,65535,1207,344,209,204,200,200,12402,65535,4570,3906,3821,3814,3811,3804,525,574,33121,29165,38326,27697,895,555,1079,1148,52373,47979,16580,13514,1277,1100,3125,6168,27589,26759,31139,27642,31633,36851,1007,5526,37349,35815,27955,27017,32070,15995
65535,65535,4589,309,190,182,176,179,17573,65535,4531,332,292,283,280,279,31858,65535,1214,345,211,202,201,199,12380,65535,4560,3883,3802,3796,3792,3785,527,574,33120,29130,38269,27592,895,552,1079,1151,52444,47970,16521,13399,1275,1099,3124,6147,27538,26620,31043,27456,31521,36643,1011,5509,37330,35731,27855,26778,31935,15873
65535,65535,4544,307,195,182,176,175,17575,65535,4486,329,290,287,279,280,31725,65535,1196,346,210,204,200,199,12337,65535,4539,3877,3794,3791,3787,3782,523,571,33104,29067,38197,27500,894,554,1079,1151,52530,47966,16459,13311,1276,1100,3104,6081,27455,26446,30951,27319,31479,36578,1006,5465,37303,35666,27754,26620,31902,15846
65535,65535,4585,305,191,182,177,175,17586,65535,4527,329,291,282,280,278,31723,65535,1202,341,211,203,199,199,12324,65535,4541,3874,3791,3787,3784,3781,524,574,33099,29053,38171,27462,895,558,1079,1152,52518,47934,16447,13290,1274,1101,3098,6071,27435,26418,30929,27281,31461,36539,1004,5459,37299,35646,27726,26575,31883,15831
65535,65535,4543,316,190,204,178,218,17588,65535,4485,388,294,389,281,499,31726,65535,1191,370,212,253,201,300,12308,65535,4535,4925,3812,6146,3811,8750,524,573,33095,29121,38152,27653,893,1083,1078,1154,52495,48479,16457,15715,1293,6837,3099,6055,27430,26391,30905,27251,31451,36522,1003,5451,37294,35643,27711,26559,31876,15852
65535,65535,4587,382,193,230,181,176,17595,65535,4531,696,296,511,286,281,31789,65535,1216,541,214,338,202,202,12386,65535,4811,13755,3903,10222,3953,3837,534,1575,33107,30282,38151,28326,913,558,1114,11753,52645,62410,16526,22952,1478,1119,3095,6068,27444,26429,30902,27281,31444,36521,1006,5496,37320,35725,27721,26628,31870,15830
65535,65535,4541,306,191,181,179,176,17592,65535,4486,329,290,283,281,278,31754,65535,1194,344,213,206,199,198,12367,65535,4583,3923,3842,3835,3834,3829,529,579,33111,29055,38127,27429,897,557,1097,1169,52545,47938,16463,13311,1290,1114,3100,6063,27435,26405,30891,27245,31436,36507,1003,5458,37308,35653,27706,26559,31855,15828
65535,65535,4586,306,191,182,178,175,17594,65535,4531,330,289,283,278,279,31784,65535,1207,344,210,204,200,200,12340,65535,4588,3921,3839,3835,3835,3830,530,577,33101,29058,38116,27432,901,557,1091,1164,52477,47907,16462,13322,1285,1112,3095,6063,27432,26421,30882,27259,31430,36522,1004,5460,37291,35647,27707,26575,31853,15838
65535,65535,4542,309,189,183,177,177,17598,65535,4488,328,289,284,280,276,31818,65535,1200,343,212,205,201,200,12339,65535,4580,3921,3845,3836,3835,3831,529,575,33097,29062,38125,27443,897,559,1090,1162,52448,47898,16469,13343,1288,1113,3097,6069,27441,26447,30886,27285,31447,36551,1004,5469,37284,35658,27717,26603,31868,15854
65535,65535,4588,312,191,185,178,175,17606,65535,4531,330,289,283,279,277,31841,65535,1213,343,211,204,200,199,12351,65535,4590,3922,3839,3837,3836,3834,529,575,33087,29073,38128,27472,897,558,1092,1163,52434,47904,16488,13370,1288,1111,3096,6080,27457,26491,30897,27316,31454,36572,1005,5477,37281,35681,27736,26655,31887,15875
65535,65535,4543,307,190,182,176,176,17616,65535,4492,328,290,283,284,277,31839,65535,1203,344,210,206,202,197,12351,65535,4587,3926,3848,3844,3846,3839,529,578,33091,29087,38153,27504,897,557,1088,1163,52306,47852,16498,13396,1286,1110,3101,6089,27462,26528,30914,27357,31469,36607,1007,5491,37283,35702,27757,26709,31900,15891
65535,65535,4588,307,189,181,178,177,17627,65535,4533,328,290,282,281,278,31862,65535,1214,344,211,204,200,199,12365,65535,4601,3932,3851,3847,3846,3841,530,577,33089,29105,38169,27535,899,557,1089,1162,52246,47855,16516,13425,1289,1109,3102,6106,27463,26566,30930,27393,31484,36639,1006,5499,37271,35718,27777,26753,31911,15910
65535,65535,4545,307,190,180,178,175,17632,65535,4493,328,288,281,283,278,31881,65535,1211,343,211,207,201,199,12360,65535,4600,3936,3857,3853,3851,3849,530,577,33099,29131,38193,27569,899,561,1089,1163,52243,47879,16529,13447,1289,1112,3104,6115,27489,26607,30944,27433,31500,36674,1007,5508,37279,35747,27799,26797,31933,15928
65535,65535,4587,309,191,181,180,177,17640,65535,4537,331,289,281,280,277,31905,65535,1223,349,209,202,201,198,12375,65535,4609,3944,3858,3857,3856,3857,530,578,33111,29156,38218,27602,901,560,1091,1166,52216,47885,16543,13479,1290,1111,3104,6129,27500,26650,30965,27477,31514,36719,1007,5521,37277,35772,27824,26854,31951,15950
65535,65535,4589,308,191,186,180,185,18030,65535,4699,341,316,299,281,307,32139,65535,1333,349,236,211,201,216,22503,65535,11219,4102,5359,4136,3867,4483,1721,588,33999,29182,38537,27657,902,635,14384,1232,63783,47956,19997,13827,1299,1882,3126,6144,27538,26701,31005,27528,31536,36756,1068,5535,37343,35810,27885,26906,31972,15973
65535,65535,4593,334,191,181,176,175,17669,65535,4542,480,291,283,282,277,31953,65535,1229,410,211,203,200,199,12393,65535,4660,7146,3886,3869,3870,3866,532,729,33127,29486,38269,27677,902,560,1098,2873,52187,50139,16594,13534,1295,1113,3110,6155,27538,26746,31013,27573,31559,36802,1007,5553,37295,35845,27879,26958,31999,15993
65535,65535,4544,309,190,181,177,179,17684,65535,4503,330,286,284,280,280,31963,65535,1221,345,211,207,202,199,12412,65535,4620,3957,3877,3871,3870,3869,530,581,33143,29233,38303,27717,905,561,1094,1168,52211,48000,16593,13563,1295,1116,3117,6169,27566,26801,31049,27629,31583,36859,1009,5554,37308,35879,27913,27019,32023,16021
65535,65535,4590,311,193,180,177,175,17700,65535,4545,334,291,284,281,279,31950,65535,1231,346,212,204,201,198,12415,65535,4627,3961,3877,3872,3870,3864,532,582,33163,29268,38337,27755,907,563,1094,1171,52245,48062,16617,13590,1298,1125,3118,6187,27590,26866,31071,27679,31599,36871,1013,5570,37321,35916,27940,27077,32034,16017
65535,65535,4548,306,189,180,176,175,17683,65535,4499,332,294,281,281,279,31933,65535,1215,343,209,205,202,201,12403,65535,4607,3942,3857,3851,3847,3843,534,585,33163,29234,38291,27656,907,565,1099,1173,52356,48077,16567,13481,1303,1123,3117,6168,27549,26735,30979,27479,31480,36632,1015,5554,37318,35847,27850,26839,31885,15878
65535,65535,4588,302,189,182,177,175,17670,65535,4537,334,289,285,282,279,31759,65535,1209,344,210,204,204,199,12375,65535,4601,3933,3853,3847,3843,3840,533,584,33125,29161,38195,27542,905,565,1103,1175,52489,48101,16495,13371,1303,1127,3095,6090,27439,26519,30866,27307,31422,36523,1007,5497,37279,35765,27723,26632,31829,15835
65535,65535,4543,306,190,181,177,178,17670,65535,4495,332,292,284,281,280,31705,65535,1193,343,211,207,201,198,12374,65535,4594,3929,3847,3846,3839,3840,535,588,33129,29138,38163,27490,906,564,1106,1179,52529,48081,16465,13329,1305,1128,3091,6069,27409,26457,30828,27235,31387,36455,1006,5486,37270,35730,27676,26551,31797,15805
65535,65535,4587,305,190,183,176,175,17628,65535,4535,331,292,290,281,278,31711,65535,1203,343,210,207,200,199,12371,65535,4598,3935,3853,3848,3850,3844,538,585,33107,29103,38120,27443,906,564,1108,1185,52505,48046,16450,13302,1306,1131,3083,6048,27381,26395,30779,27171,31357,36406,999,5470,37243,35689,27642,26495,31770,15791
65535,65535,4541,307,189,180,176,178,17618,65535,4491,330,290,285,286,279,31733,65535,1195,344,211,208,196,199,12379,65535,4595,3932,3852,3847,3845,3840,537,589,33100,29103,38097,27437,904,565,1109,1182,52491,48041,16460,13318,1306,1131,3083,6046,27379,26406,30771,27175,31353,36399,1004,5471,37250,35692,27635,26497,31760,15785
65535,65535,4587,306,190,180,176,175,17635,65535,4534,328,290,287,285,282,31749,65535,1203,343,209,205,199,198,12367,65535,4595,3926,3842,3838,3839,3836,535,585,33092,29099,38078,27417,907,564,1111,1183,52464,48005,16451,13309,1304,1133,3080,6043,27367,26391,30743,27149,31333,36373,1003,5474,37231,35673,27617,26477,31735,15776
65535,65535,4541,309,188,181,176,175,17623,65535,4490,334,290,285,281,279,31749,65535,1196,343,211,201,201,200,12370,65535,4589,3926,3845,3841,3837,3832,536,586,33075,29091,38051,27408,904,565,1108,1185,52491,48017,16447,13310,1302,1128,3083,6039,27361,26386,30734,27143,31325,36368,1003,5467,37226,35663,27605,26469,31722,15773
65535,65535,4586,309,190,181,177,177,17628,65535,4534,333,291,285,282,279,31778,65535,1207,345,206,204,201,198,12369,65535,4596,3926,3845,3840,3838,3832,535,585,33060,29091,38038,27405,903,563,1107,1182,52472,48019,16461,13326,1303,1130,3080,6043,27362,26403,30735,27161,31329,36381,1002,5471,37211,35673,27606,26485,31727,15785
65535,65535,4541,309,191,182,177,178,17642,65535,4494,331,293,285,287,284,31818,65535,1199,338,211,204,202,199,12366,65535,4584,3928,3848,3845,3844,3838,535,584,33043,29097,38043,27426,901,565,1106,1181,52469,48039,16469,13353,1305,1130,3085,6050,27369,26438,30742,27183,31329,36399,1002,5478,37211,35687,27615,26521,31730,15800
65535,65535,4587,308,191,182,177,175,17634,65535,4540,332,291,284,281,278,31807,65535,1211,343,209,205,199,198,12381,65535,4600,3929,3851,3847,3845,3846,537,587,33037,29101,38047,27445,904,567,1106,1182,52475,48059,16489,13378,1306,1132,3084,6060,27379,26471,30751,27214,31337,36428,1004,5486,37215,35710,27626,26559,31744,15815
65535,65535,4543,305,190,183,177,177,17651,65535,4496,333,293,284,282,284,31832,65535,1202,345,211,205,202,199,12396,65535,4596,3935,3853,3849,3849,3847,537,585,33037,29121,38057,27471,907,565,1110,1188,52496,48093,16500,13401,1310,1132,3087,6069,27393,26504,30763,27249,31349,36453,1003,5495,37224,35731,27643,26601,31756,15829
65535,65535,4585,306,189,183,176,174,17660,65535,4539,332,291,285,278,279,31847,65535,1213,344,210,204,201,200,12395,65535,4609,3937,3857,3851,3853,3851,542,587,33033,29131,38073,27499,910,568,1113,1188,52501,48117,16510,13423,1311,1134,3085,6080,27400,26541,30775,27279,31353,36482,1005,5507,37227,35748,27655,26639,31766,15847
65535,65535,4541,376,192,252,179,218,17655,65535,4498,713,294,653,285,503,31868,65535,1211,531,212,399,205,325,12405,65535,4788,13357,3896,13730,3916,10118,538,1142,33041,30147,38093,28722,915,1327,1114,7312,52498,58039,16556,27170,1402,10130,3090,6093,27414,26573,30790,27332,31372,36532,1004,5533,37230,35803,27674,26743,31782,15913
65535,65535,4592,307,196,181,177,176,17666,65535,4569,331,323,284,278,280,31889,65535,1233,345,223,205,201,199,12533,65535,5029,3951,4557,3868,3865,3862,557,767,33069,29172,38164,27559,911,570,1282,3798,52655,48183,17279,13477,1316,1140,3090,6110,27427,26618,30808,27357,31386,36555,1008,5545,37233,35789,27702,26727,31806,15883
65535,65535,4543,307,190,182,177,175,17681,65535,4501,332,291,283,282,280,31899,65535,1213,343,213,203,199,201,12427,65535,4613,3951,3869,3866,3863,3863,539,589,33054,29195,38134,27588,910,568,1115,1190,52555,48233,16552,13499,1314,1137,3094,6115,27445,26662,30834,27402,31408,36597,1005,5535,37241,35825,27727,26781,31825,15900
65535,65535,4586,308,197,181,177,178,17691,65535,4546,332,295,283,281,283,31908,65535,1223,345,213,205,201,199,12435,65535,4627,3955,3873,3872,3871,3865,539,588,33062,29217,38158,27624,912,570,1116,1190,52564,48271,16569,13529,1314,1139,3096,6128,27464,26709,30852,27449,31429,36644,1005,5545,37246,35856,27751,26835,31855,15923
65535,65535,4542,306,192,183,176,177,17685,65535,4506,331,291,286,281,282,31924,65535,1215,347,209,209,201,198,12446,65535,4625,3965,3878,3876,3874,3870,540,589,33077,29247,38191,27667,914,569,1116,1192,52591,48315,16585,13555,1316,1138,3100,6142,27491,26764,30887,27509,31459,36699,1009,5555,37268,35896,27787,26895,31885,15947
65535,65535,4589,311,190,183,176,177,17699,65535,4548,330,291,286,282,279,31951,65535,1231,346,210,205,200,200,12457,65535,4630,3955,3871,3859,3858,3847,539,591,33089,29268,38201,27669,911,571,1119,1194,52621,48364,16596,13550,1319,1141,3101,6155,27509,26799,30895,27493,31427,36611,1008,5567,37275,35910,27801,26899,31839,15895
65535,65535,4543,307,188,182,176,178,17683,65535,4499,331,294,284,281,281,31816,65535,1203,348,209,198,201,197,12427,65535,4595,3933,3846,3843,3843,3835,541,590,33072,29197,38115,27532,911,567,1120,1192,52821,48393,16510,13401,1317,1141,3092,6102,27411,26567,30755,27246,31310,36386,1009,5525,37251,35796,27655,26596,31711,15785
65535,65535,4584,307,190,182,175,178,17683,65535,4540,332,291,286,282,281,31729,65535,1204,344,211,205,198,200,12417,65535,4599,3929,3842,3839,3838,3831,539,588,33035,29147,38043,27450,907,567,1118,1195,52905,48393,16459,13330,1316,1143,3078,6045,27341,26433,30680,27140,31278,36326,1004,5487,37229,35745,27573,26474,31682,15749
65535,65535,4540,308,190,182,176,175,17661,65535,4495,333,293,284,283,281,31647,65535,1189,343,213,207,202,202,12419,65535,4589,3923,3841,3838,3835,3833,538,589,33018,29119,37997,27391,905,567,1121,1199,52912,48363,16443,13294,1317,1141,3074,6030,27312,26373,30643,27064,31237,36250,1004,5473,37215,35695,27535,26395,31643,15725
65535,65535,4585,302,192,183,178,176,17659,65535,4539,331,294,284,283,281,31626,65535,1193,343,210,203,201,202,12411,65535,4594,3918,3841,3838,3835,3829,538,589,32995,29087,37958,27367,905,569,1120,1197,52884,48318,16435,13285,1314,1138,3068,6012,27288,26325,30604,27030,31226,36228,1002,5460,37191,35659,27505,26353,31625,15715
65535,65535,4540,306,189,180,177,177,17649,65535,4495,330,291,286,282,280,31696,65535,1187,344,218,204,200,196,12401,65535,4582,3920,3836,3833,3830,3826,541,588,32977,29074,37947,27350,905,567,1117,1194,52850,48300,16435,13284,1311,1135,3068,6011,27283,26332,30598,27022,31210,36201,1003,5462,37185,35648,27495,26347,31606,15702
65535,65535,4585,306,190,181,177,175,17639,65535,4537,331,293,286,282,279,31687,65535,1199,343,210,204,210,201,12404,65535,4594,3921,3840,3831,3831,3827,538,589,32951,29065,37909,27331,904,569,1116,1190,52990,48407,16435,13281,1310,1136,3064,6009,27283,26320,30575,27001,31197,36183,1001,5458,37186,35651,27482,26329,31593,15699
65535,65535,4537,307,191,181,176,177,17651,65535,4495,330,291,287,282,279,31734,65535,1188,343,210,207,199,200,12401,65535,4581,3922,3840,3837,3833,3830,536,587,32947,29067,37897,27330,902,565,1115,1192,53029,48390,16435,13285,1308,1134,3065,6007,27276,26324,30570,27010,31195,36191,1002,5457,37186,35641,27476,26336,31591,15701
65535,65535,4582,308,194,182,178,175,17638,65535,4537,331,295,287,286,281,31770,65535,1201,344,214,204,196,199,12415,65535,4590,3921,3842,3837,3838,3834,537,586,32919,29056,37895,27344,904,565,1114,1189,52981,48393,16445,13306,1307,1134,3063,6011,27271,26350,30574,27031,31199,36214,1000,5461,37174,35650,27486,26363,31602,15719
65535,65535,4537,309,190,182,175,174,17650,65535,4495,331,294,286,282,281,31806,65535,1192,343,211,204,200,200,12419,65535,4585,3923,3842,3838,3839,3835,540,586,32899,29061,37899,27364,903,567,1111,1187,53000,48419,16458,13333,1308,1134,3067,6020,27282,26377,30588,27066,31214,36244,1003,5470,37185,35669,27498,26406,31616,15735
65535,65535,4582,307,197,182,177,177,17663,65535,4540,334,292,287,283,281,31821,65535,1205,344,209,204,200,203,12432,65535,4598,3929,3847,3841,3840,3836,535,584,32886,29067,37907,27382,903,565,1113,1188,52991,48439,16472,13353,1307,1133,3067,6029,27282,26411,30600,27095,31227,36269,1001,5478,37183,35687,27518,26445,31638,15752
65535,65535,4538,305,190,184,175,178,17672,65535,4500,332,294,286,282,281,31826,65535,1197,343,210,204,203,199,12430,65535,4593,3927,3847,3845,3843,3840,536,585,32883,29079,37922,27407,902,564,1111,1189,53023,48497,16485,13374,1310,1134,3071,6038,27295,26439,30610,27129,31244,36304,1003,5488,37194,35711,27538,26489,31654,15768
65535,65535,4583,305,191,181,179,177,17680,65535,4543,330,295,286,283,282,31803,65535,1207,343,213,205,199,197,12444,65535,4606,3934,3852,3847,3846,3842,537,585,32878,29099,37937,27434,904,563,1113,1187,53044,48498,16498,13395,1309,1133,3070,6050,27304,26472,30631,27161,31258,36341,1003,5496,37192,35729,27560,26530,31677,15789
65535,65535,4538,306,191,181,178,175,17682,65535,4502,331,289,283,281,279,31824,65535,1199,343,210,205,199,198,12445,65535,4599,3939,3855,3851,3849,3845,536,585,32892,29127,37964,27465,903,564,1111,1184,53014,48508,16506,13415,1307,1130,3078,6060,27313,26503,30644,27206,31280,36383,1003,5507,37190,35751,27585,26584,31702,15810
65535,65535,4585,307,189,183,176,175,17684,65535,4544,331,291,288,280,280,31873,65535,1212,345,208,208,199,199,12454,65535,4611,3937,3853,3846,3847,3840,535,584,32895,29151,37995,27505,905,565,1109,1183,53053,48573,16519,13435,1305,1129,3077,6075,27330,26549,30668,27246,31301,36431,1004,5519,37209,35788,27618,26641,31738,15834
65535,65535,4541,306,190,183,177,175,17673,65535,4503,330,291,284,281,279,31908,65535,1207,346,210,203,201,198,12428,65535,4596,3935,3854,3849,3850,3846,535,589,32957,29195,38037,27543,905,566,1106,1182,53129,48641,16535,13465,1310,1135,3082,6089,27338,26582,30697,27292,31335,36484,1007,5534,37217,35831,27658,26705,31765,15857
65535,65535,4588,306,186,184,179,175,17679,65535,4548,330,288,285,281,279,31963,65535,1225,344,212,204,200,200,12441,65535,4619,3941,3859,3851,3846,3841,537,587,32988,29252,38095,27602,908,567,1115,1192,52853,48463,16557,13505,1317,1137,3082,6101,27370,26637,30713,27339,31355,36530,1006,5545,37253,35886,27689,26775,31789,15883
65535,65535,4539,308,190,181,177,175,17704,65535,4508,330,290,285,281,282,31735,65535,1194,343,210,206,201,199,12456,65535,4591,3919,3831,3823,3813,3800,537,587,33035,29304,38124,27618,902,559,1115,1189,52821,48489,16552,13505,1300,1117,3089,6121,27391,26685,30736,27375,31358,36523,1010,5560,37271,35917,27726,26818,31789,15875
65535,65535,4585,306,189,181,178,175,17684,65535,4544,329,288,283,282,278,31569,65535,1193,343,207,204,201,201,12417,65535,4537,3852,3765,3754,3747,3738,529,581,33021,29251,38031,27490,891,551,1093,1169,53166,48681,16467,13357,1278,1099,3085,6100,27326,26531,30634,27167,31242,36306,1009,5539,37231,35823,27633,26584,31670,15756
65535,65535,4537,307,190,182,181,176,17662,65535,4497,332,288,283,279,276,31539,65535,1179,344,214,207,200,199,12363,65535,4482,3813,3729,3735,3727,3724,523,569,32947,29153,37922,27372,884,550,1075,1154,53688,48977,16403,13263,1269,1094,3069,6031,27251,26367,30539,27020,31196,36218,1006,5494,37255,35794,27535,26429,31635,15725
65535,65535,4583,307,191,185,177,177,17673,65535,4540,329,289,283,279,278,31591,65535,1193,346,211,206,201,200,12393,65535,4491,3814,3733,3729,3727,3718,520,567,32931,29146,37877,27322,889,549,1071,1151,53891,49011,16386,13231,1268,1096,3063,6015,27245,26322,30501,26959,31171,36167,1003,5485,37295,35790,27503,26371,31609,15698
65535,65535,4538,310,191,185,181,176,17683,65535,4496,329,289,284,282,277,31694,65535,1189,346,214,205,205,197,12410,65535,4487,3817,3737,3733,3735,3731,523,571,32908,29119,37837,27299,890,557,1073,1151,53966,49037,16388,13234,1275,1102,3057,5995,27231,26285,30468,26916,31149,36145,1004,5474,37301,35770,27482,26337,31594,15698
65535,65535,4584,308,191,183,177,175,17681,65535,4541,328,290,283,282,280,31808,65535,1209,345,212,204,202,202,12448,65535,4511,3833,3753,3749,3749,3747,527,575,32889,29116,37836,27305,899,563,1083,1159,53974,49067,16419,13258,1290,1115,3057,5997,27236,26297,30474,26927,31151,36137,1003,5476,37318,35795,27486,26349,31595,15697
65535,65535,4536,307,190,181,177,176,17674,65535,4499,328,290,285,281,281,31813,65535,1197,345,211,206,197,199,12457,65535,4519,3853,3775,3773,3770,3769,535,584,32897,29123,37842,27310,904,567,1096,1173,53744,48881,16427,13264,1298,1123,3058,5989,27222,26279,30456,26903,31135,36119,1006,5474,37322,35782,27470,26327,31580,15689
65535,65535,4583,307,189,183,176,175,17663,65535,4539,332,289,287,279,277,31857,65535,1210,345,209,208,200,199,12456,65535,4537,3858,3774,3767,3765,3759,538,587,32884,29128,37837,27313,906,569,1102,1181,53685,48865,16431,13271,1299,1122,3055,5989,27212,26277,30453,26915,31139,36123,1004,5475,37300,35765,27472,26334,31581,15695
65535,65535,4537,306,193,181,178,176,17657,65535,4496,331,290,284,278,277,31919,65535,1209,342,210,207,203,200,12419,65535,4514,3844,3761,3756,3751,3745,539,584,32871,29127,37835,27321,903,566,1101,1175,53679,48912,16441,13286,1295,1118,3057,5989,27210,26290,30462,26943,31145,36143,1005,5477,37285,35777,27481,26360,31599,15710
65535,65535,4582,306,192,182,176,176,17682,65535,4541,330,294,283,281,279,31959,65535,1220,344,219,204,204,203,12400,65535,4505,3828,3745,3742,3740,3736,536,587,32851,29131,37843,27344,903,566,1098,1175,53688,48927,16461,13314,1297,1123,3056,5999,27210,26311,30475,26970,31155,36171,1004,5488,37317,35822,27503,26401,31614,15722
65535,65535,4538,306,190,183,177,176,17717,65535,4503,333,290,283,283,282,31812,65535,1198,343,213,205,198,199,12425,65535,4500,3828,3749,3740,3741,3738,536,588,32855,29154,37857,27369,904,567,1101,1181,53659,48930,16470,13336,1301,1121,3060,6009,27209,26331,30491,26996,31167,36193,1008,5502,37339,35853,27517,26439,31634,15739
65535,65535,4580,306,189,181,176,176,17745,65535,4549,330,291,284,280,278,31782,65535,1207,345,210,205,200,200,12461,65535,4507,3832,3750,3747,3745,3745,537,587,32853,29174,37867,27383,906,569,1102,1179,53699,48967,16487,13355,1300,1126,3061,6019,27209,26353,30497,27022,31173,36219,1007,5507,37341,35871,27543,26470,31647,15751
65535,65535,4538,306,190,183,179,180,17760,65535,4507,329,290,282,280,277,31920,65535,1212,348,211,205,199,199,12526,65535,4518,3851,3767,3764,3765,3764,538,588,32852,29191,37877,27405,904,566,1107,1182,53749,49007,16493,13370,1301,1125,3061,6023,27221,26373,30506,27038,31180,36238,1013,5521,37365,35897,27553,26506,31656,15765
65535,65535,4585,309,190,182,179,177,17776,65535,4548,327,285,278,276,274,32087,65535,1245,351,211,203,202,200,12614,65535,4542,3863,3778,3774,3772,3773,539,587,32870,29209,37881,27419,907,567,1104,1178,53737,49030,16501,13384,1301,1129,3062,6029,27215,26395,30517,27063,31197,36271,1010,5533,37347,35900,27574,26537,31676,15783
65535,65535,4543,306,190,183,177,175,17834,65535,4510,323,285,279,271,268,32191,65535,1243,349,212,205,202,201,12747,65535,4567,3895,3823,3824,3827,3825,541,591,32875,29244,37914,27456,910,572,1107,1182,53723,49007,16514,13411,1306,1131,3067,6034,27247,26438,30537,27102,31213,36315,1011,5557,37361,35930,27603,26594,31703,15800
65535,65535,4583,310,189,183,177,174,17907,65535,4556,321,279,270,268,265,32067,65535,1250,349,209,204,202,201,12932,65535,4621,3932,3845,3837,3833,3825,542,595,32883,29267,37932,27493,915,575,1111,1190,53714,49076,16545,13450,1315,1138,3068,6053,27256,26479,30569,27158,31239,36353,1012,5577,37365,35956,27636,26649,31736,15825
65535,65535,4539,308,193,181,175,176,18015,65535,4520,316,277,276,267,267,32093,65535,1244,350,212,206,203,201,13083,65535,4627,3920,3833,3823,3821,3818,545,600,32868,29239,37911,27450,912,574,1122,1199,53957,49236,16553,13413,1319,1142,3071,6056,27269,26475,30549,27085,31175,36218,1018,5591,37406,35972,27620,26574,31667,15743
65535,65535,4578,306,191,181,179,176,18077,65535,4562,317,278,271,271,267,31677,65535,1214,348,212,204,202,201,13307,65535,4629,3879,3796,3791,3791,3786,545,593,32822,29163,37816,27331,909,572,1123,1200,54241,49338,16478,13297,1317,1142,3055,5995,27180,26270,30447,26912,31103,36093,1015,5546,37380,35875,27511,26367,31609,15695
65535,65535,4529,308,194,181,179,175,18119,65535,4525,316,277,272,268,265,31635,65535,1203,349,213,208,197,202,13401,65535,4613,3869,3781,3774,3776,3785,542,593,32814,29145,37780,27290,907,571,1122,1199,54322,49343,16458,13269,1314,1138,3049,5978,27158,26221,30414,26863,31089,36058,1016,5536,37375,35849,27478,26317,31585,15673
65535,65535,4575,306,192,182,177,175,18099,65535,4559,319,278,272,269,267,31785,65535,1234,352,215,207,202,202,13391,65535,4646,3906,3820,3817,3825,3834,541,593,32795,29127,37746,27262,907,570,1117,1196,54272,49296,16454,13258,1312,1137,3045,5964,27139,26181,30390,26822,31065,36023,1013,5525,37371,35831,27451,26280,31557,15668
65535,65535,4533,307,193,182,176,177,17900,65535,4505,322,285,279,275,278,32050,65535,1249,351,213,210,206,202,13253,65535,4707,3998,3928,3942,3953,3959,541,590,32801,29139,37731,27255,905,570,1114,1198,54143,49209,16467,13278,1314,1138,3046,5962,27147,26193,30381,26832,31067,36032,1010,5503,37370,35839,27447,26298,31561,15671
65535,65535,4578,307,189,181,177,175,17716,65535,4539,328,287,282,281,280,32109,65535,1257,350,213,207,204,202,13396,65535,4855,4084,4009,4021,4033,4038,541,591,32786,29139,37728,27250,908,572,1116,1195,53980,49077,16459,13272,1315,1138,3043,5961,27136,26183,30371,26807,31042,36014,1005,5482,37366,35824,27439,26279,31551,15665
65535,65535,4531,307,190,183,177,179,17637,65535,4496,333,292,287,284,286,31977,65535,1236,351,219,212,205,201,13535,65535,4951,4138,4045,4035,4027,4018,541,591,32774,29135,37717,27257,906,571,1116,1195,53887,49038,16455,13268,1313,1137,3045,5960,27119,26163,30364,26808,31059,36027,1005,5467,37354,35814,27433,26284,31564,15672
65535,65535,4573,306,191,182,180,175,17609,65535,4536,334,293,287,286,284,31950,65535,1235,350,213,206,202,204,13424,65535,4901,4111,4025,4031,4034,4030,542,593,32766,29137,37719,27263,909,573,1117,1196,53800,48988,16460,13281,1317,1141,3043,5963,27091,26165,30373,26831,31080,36044,1005,5467,37320,35804,27438,26299,31574,15685
65535,65535,4531,308,192,182,176,175,17579,65535,4492,335,297,287,286,287,31895,65535,1215,348,211,203,203,201,13438,65535,4923,4118,4019,4006,4003,3995,546,597,32755,29150,37730,27290,914,577,1121,1198,53701,48953,16472,13300,1323,1147,3049,5972,27084,26186,30388,26854,31099,36082,1004,5468,37303,35807,27452,26335,31597,15706
65535,65535,4575,303,191,183,178,176,17598,65535,4538,337,295,287,283,280,31868,65535,1223,349,212,205,204,201,13296,65535,4845,4067,3964,3945,3931,3918,548,603,32757,29167,37743,27319,919,582,1130,1205,53671,48950,16487,13327,1330,1157,3047,5983,27083,26209,30394,26886,31118,36115,1004,5479,37290,35814,27468,26382,31622,15725
65535,65535,4533,307,195,182,178,179,17665,65535,4499,329,293,282,277,278,31918,65535,1222,350,212,203,203,201,13069,65535,4710,3993,3898,3887,3879,3871,551,602,32769,29202,37771,27351,924,584,1138,1215,53615,48935,16508,13356,1339,1164,3054,5994,27091,26239,30413,26921,31127,36139,1007,5498,37290,35836,27498,26429,31637,15741
65535,65535,4578,308,191,183,178,179,17715,65535,4547,331,287,280,279,276,32009,65535,1245,353,210,206,208,203,12894,65535,4651,3952,3862,3857,3854,3849,558,606,32765,29222,37786,27373,925,589,1145,1226,53609,48959,16522,13379,1349,1175,3053,6002,27095,26268,30425,26945,31143,36167,1012,5514,37290,35850,27519,26461,31652,15754
65535,65535,4531,308,191,183,177,177,17798,65535,4511,328,289,284,277,275,32056,65535,1243,351,213,207,203,202,12806,65535,4610,3924,3841,3837,3831,3830,560,607,32772,29247,37806,27401,929,593,1155,1229,53641,48997,16542,13410,1356,1180,3054,6009,27114,26310,30439,26985,31159,36207,1010,5524,37300,35879,27542,26509,31677,15775
65535,65535,4577,307,191,182,178,177,17817,65535,4553,326,286,279,280,275,32112,65535,1261,353,216,207,208,202,12788,65535,4614,3923,3835,3833,3832,3830,562,610,32772,29281,37827,27437,930,591,1160,1237,53747,49077,16566,13438,1361,1185,3057,6023,27134,26364,30466,27029,31173,36243,1012,5538,37324,35926,27567,26563,31703,15801
65535,65535,4533,307,191,184,180,179,17763,65535,4508,329,295,283,283,279,32069,65535,1244,350,207,209,203,201,12834,65535,4631,3956,3877,3879,3878,3871,564,613,32788,29307,37840,27439,929,593,1160,1239,53666,49032,16565,13429,1359,1183,3060,6040,27141,26380,30463,27013,31145,36171,1012,5541,37327,35932,27578,26554,31659,15749
65535,65535,4577,310,191,182,178,175,17619,65535,4535,332,289,287,279,280,31919,65535,1235,352,212,209,204,203,12983,65535,4665,3935,3842,3847,3855,3857,563,614,32754,29250,37759,27308,925,586,1160,1239,53715,48977,16466,13266,1342,1169,3050,5986,27049,26173,30339,26788,31037,35978,1007,5486,37283,35818,27461,26306,31566,15665
65535,65535,4530,308,190,182,178,177,17623,65535,4491,330,290,281,282,277,31894,65535,1220,349,214,206,204,202,13048,65535,4681,3965,3872,3865,3861,3853,555,606,32700,29202,37694,27232,921,587,1148,1225,53730,48907,16427,13215,1340,1171,3037,5940,26995,26061,30263,26681,30999,35906,1005,5452,37272,35763,27398,26204,31528,15629
65535,65535,4577,309,191,183,178,180,17651,65535,4535,329,290,283,278,278,31956,65535,1239,353,214,207,204,201,13051,65535,4654,3927,3839,3826,3822,3821,557,606,32670,29175,37643,27170,924,588,1147,1228,53875,49000,16419,13177,1348,1178,3032,5915,26955,25978,30215,26587,30955,35827,1005,5441,37263,35741,27367,26133,31501,15600
65535,65535,4532,308,193,183,179,179,17763,65535,4501,329,290,286,280,279,32116,65535,1246,351,214,207,204,202,13059,65535,4655,3952,3864,3853,3846,3835,561,607,32606,29142,37595,27134,925,590,1157,1236,54190,49183,16443,13190,1360,1186,3023,5893,26940,25939,30183,26554,30939,35802,1005,5439,37334,35783,27351,26105,31497,15599
65535,65535,4577,309,194,182,181,178,17865,65535,4552,330,290,284,283,278,32087,65535,1249,352,215,209,202,203,13168,65535,4673,3941,3855,3853,3847,3843,564,611,32545,29122,37566,27115,920,584,1167,1247,54281,49235,16459,13187,1358,1185,3020,5895,26933,25942,30175,26541,30925,35779,1006,5450,37387,35810,27345,26090,31487,15587
65535,65535,4533,313,194,183,180,182,17886,65535,4508,331,290,283,280,281,32103,65535,1245,352,219,210,205,204,13282,65535,4686,3953,3871,3869,3862,3859,555,605,32499,29106,37529,27091,919,582,1161,1240,54414,49314,16450,13182,1356,1181,3022,5889,26904,25911,30162,26528,30917,35765,1007,5447,37384,35805,27332,26075,31474,15588
65535,65535,4575,309,191,184,178,177,17881,65535,4551,333,291,284,282,279,32199,65535,1264,351,214,208,205,200,13329,65535,4718,3966,3884,3879,3888,3898,552,605,32459,29097,37515,27088,914,581,1164,1241,54380,49293,16459,13194,1359,1188,3018,5889,26892,25916,30153,26531,30917,35770,1006,5449,37381,35820,27320,26082,31468,15590
65535,65535,4531,307,192,183,176,179,17885,65535,4511,336,293,287,283,285,32217,65535,1252,349,213,211,202,202,13411,65535,4777,4023,3942,3942,3944,3942,553,601,32425,29088,37505,27095,914,581,1165,1246,54174,49151,16470,13214,1361,1188,3019,5895,26893,25931,30155,26552,30919,35796,1007,5453,37398,35836,27322,26097,31471,15601
65535,65535,4576,306,190,183,177,176,17794,65535,4548,334,293,288,285,283,32151,65535,1256,349,210,204,200,200,13434,65535,4807,4039,3959,3961,3971,3983,551,601,32391,29089,37501,27113,913,581,1166,1246,54054,49105,16475,13230,1359,1185,3021,5903,26879,25954,30165,26591,30930,35814,1007,5450,37364,35821,27327,26117,31483,15612
65535,65535,4530,308,190,185,176,178,17623,65535,4495,338,297,294,289,287,32229,65535,1241,346,212,204,201,200,13485,65535,4924,4139,4050,4043,4038,4036,547,599,32344,29087,37495,27125,909,574,1162,1241,53912,48985,16471,13235,1353,1175,3020,5909,26881,25983,30169,26608,30925,35827,1009,5443,37361,35827,27324,26143,31471,15617
65535,65535,4575,310,190,182,177,176,17473,65535,4531,340,300,296,293,291,32055,65535,1238,345,211,208,199,201,13475,65535,4958,4167,4079,4077,4077,4083,545,595,32311,29081,37491,27134,911,575,1158,1232,53797,48955,16460,13235,1347,1175,3020,5916,26868,25988,30176,26625,30939,35848,1001,5433,37303,35787,27323,26159,31490,15634
65535,65535,4529,307,191,183,176,175,17369,65535,4489,348,307,303,301,300,32120,65535,1223,344,210,204,200,200,13478,65535,5097,4335,4271,4289,4320,4354,547,596,32268,29086,37503,27160,909,576,1153,1233,53567,48789,16476,13266,1347,1175,3023,5923,26879,26043,30185,26669,30949,35887,999,5426,37307,35811,27331,26198,31495,15651
65535,65535,4577,308,190,182,177,178,17226,65535,4523,355,315,311,308,310,32087,65535,1223,342,209,202,199,199,13678,65535,5404,4557,4479,4495,4525,4546,546,596,32223,29078,37519,27197,912,576,1151,1227,53526,48809,16487,13287,1348,1174,3022,5937,26879,26083,30203,26712,30964,35924,997,5408,37291,35830,27353,26249,31543,15680
65535,65535,4531,305,190,182,178,176,17088,65535,4479,361,321,317,312,311,31999,65535,1200,343,208,203,199,198,13798,65535,5601,4704,4608,4610,4603,4594,546,600,32219,29106,37571,27245,912,579,1154,1231,53431,48760,16509,13320,1353,1178,3029,5949,26902,26140,30234,26763,30978,35948,998,5401,37315,35869,27377,26295,31546,15686
65535,65535,4575,308,189,185,177,177,17132,65535,4522,362,323,317,312,311,31818,65535,1187,340,208,203,198,199,13819,65535,5573,4647,4536,4511,4491,4462,551,602,32203,29091,37557,27179,913,578,1159,1238,53451,48727,16471,13223,1358,1182,3027,5945,26865,26047,30165,26619,30893,35777,998,5392,37308,35807,27321,26139,31461,15599
65535,65535,4527,306,189,180,176,176,17194,65535,4480,358,318,311,309,306,31450,65535,1171,339,209,203,199,201,13594,65535,5349,4496,4385,4358,4343,4325,554,598,32166,29031,37484,27095,911,579,1161,1234,53504,48704,16422,13153,1356,1185,3017,5894,26785,25895,30099,26515,30857,35702,996,5359,37268,35723,27243,26004,31424,15561
65535,65535,4574,308,191,181,176,177,17270,65535,4523,354,313,308,307,304,31451,65535,1180,342,209,202,203,198,13397,65535,5169,4369,4270,4258,4243,4231,550,598,32079,28950,37417,27022,910,575,1161,1234,53631,48767,16413,13117,1357,1185,3009,5867,26758,25827,30052,26437,30810,35614,994,5345,37249,35657,27198,25908,31390,15524
65535,65535,4525,305,191,181,176,175,17365,65535,4486,355,315,308,306,302,31583,65535,1173,340,208,203,198,197,13331,65535,5052,4297,4198,4187,4182,4177,547,594,31967,28849,37360,26985,909,576,1163,1238,53887,48887,16405,13093,1355,1183,3002,5843,26743,25779,30023,26395,30790,35577,999,5335,37251,35619,27161,25847,31379,15509
65535,65535,4566,304,193,182,176,174,17395,65535,4532,355,320,311,307,306,31286,65535,1176,337,210,201,198,197,13343,65535,5031,4274,4190,4193,4211,4229,550,597,31946,28841,37371,26997,913,576,1161,1237,53580,48641,16395,13091,1353,1180,3000,5845,26725,25785,30032,26415,30794,35575,998,5340,37209,35583,27147,25841,31366,15501
65535,65535,4519,303,189,180,176,175,17345,65535,4489,359,321,315,315,313,31082,65535,1160,338,207,200,197,197,13449,65535,5159,4423,4364,4390,4418,4449,549,595,31936,28833,37388,27007,907,577,1158,1231,53095,48293,16368,13073,1345,1171,3001,5847,26699,25775,30025,26426,30770,35549,999,5333,37127,35511,27119,25815,31333,15489
65535,65535,4568,301,188,182,177,175,17199,65535,4522,366,329,323,325,321,30775,65535,1160,331,206,200,196,194,13715,65535,5506,4666,4599,4619,4639,4658,544,591,31910,28817,37396,27035,902,569,1150,1222,52949,48241,16357,13069,1332,1156,3002,5849,26712,25795,30039,26472,30782,35566,994,5314,37074,35471,27104,25810,31325,15497
65535,65535,4524,303,190,179,175,174,17119,65535,4485,377,339,335,327,325,30757,65535,1146,333,205,199,196,195,14041,65535,5811,4849,4756,4756,4753,4745,539,591,31981,28878,37455,27095,902,565,1132,1202,52622,47978,16347,13084,1325,1149,3006,5865,26697,25823,30101,26582,30790,35597,996,5323,37014,35441,27107,25843,31314,15503
65535,65535,4567,303,188,180,174,175,17167,65535,4535,373,334,327,325,320,30655,65535,1154,330,206,198,198,195,14175,65535,5885,4843,4734,4726,4721,4685,541,585,32009,28905,37546,27188,899,562,1127,1197,52339,47839,16355,13107,1308,1135,3005,5881,26727,25886,30221,26756,30801,35617,994,5345,36972,35423,27120,25875,31331,15521
65535,65535,4526,303,188,180,175,175,17166,65535,4484,370,331,321,321,321,30649,65535,1144,330,204,201,196,195,14069,65535,5839,4840,4749,4750,4751,4750,533,583,32003,28888,37579,27241,897,560,1117,1182,52423,47919,16367,13127,1305,1133,3012,5890,26741,25927,30334,26879,30829,35654,1002,5359,36934,35395,27136,25914,31358,15541
65535,65535,4570,302,192,180,177,174,17181,65535,4531,369,332,325,322,319,30665,65535,1154,327,208,199,199,193,14182,65535,5918,4862,4767,4768,4773,4771,531,579,31946,28825,37579,27275,901,564,1112,1186,52821,48230,16419,13172,1316,1148,3014,5898,26769,25982,30424,26975,30855,35689,997,5367,36943,35408,27157,25947,31383,15557
65535,65535,4527,303,188,180,177,175,17312,65535,4504,369,333,323,319,322,30748,65535,1145,329,205,203,195,195,14338,65535,6010,4921,4827,4835,4843,4853,535,584,31918,28811,37624,27334,903,567,1125,1201,52794,48207,16473,13230,1331,1159,3017,5914,26807,26038,30482,27053,30859,35719,1002,5380,36985,35431,27180,25995,31393,15579
65535,65535,4577,305,192,181,175,175,17429,65535,4554,367,331,319,317,317,31049,65535,1161,329,209,201,196,197,14557,65535,6158,4992,4886,4882,4879,4870,539,589,31911,28823,37673,27381,911,573,1138,1213,52814,48257,16524,13282,1341,1170,3018,5925,26834,26079,30500,27090,30865,35754,1000,5394,37017,35486,27207,26045,31422,15595
65535,65535,4533,305,188,181,176,175,17550,65535,4519,362,320,315,311,304,31178,65535,1155,329,206,199,198,195,14603,65535,6099,4973,4862,4844,4830,4817,545,594,31967,28864,37731,27431,915,578,1150,1226,52892,48349,16555,13326,1353,1179,3021,5930,26851,26122,30508,27124,30894,35812,1003,5414,37067,35554,27242,26105,31471,15630
65535,65535,4579,304,190,181,178,176,17766,65535,4569,353,310,302,299,295,31109,65535,1166,334,208,202,198,197,14525,65535,5974,4891,4778,4751,4728,4695,551,601,32039,28948,37807,27488,921,586,1161,1238,53026,48453,16584,13363,1367,1191,3022,5944,26881,26169,30497,27136,30919,35861,1005,5446,37122,35637,27294,26176,31499,15653
65535,65535,4536,305,192,182,177,177,18026,65535,4538,342,299,297,291,287,31463,65535,1168,337,208,204,201,198,14433,65535,5663,4628,4497,4464,4430,4396,557,605,32132,29015,37837,27465,923,585,1171,1245,53211,48612,16579,13321,1370,1193,3026,5957,26863,26128,30453,27044,30889,35769,1011,5480,37156,35672,27305,26140,31465,15595
65535,65535,4580,306,190,180,177,176,18125,65535,4576,337,296,290,287,284,31581,65535,1183,339,207,203,199,197,14175,65535,5383,4427,4315,4290,4267,4241,557,604,32132,28952,37746,27329,924,586,1171,1247,53543,48718,16494,13176,1365,1191,3014,5900,26758,25905,30313,26821,30825,35647,1011,5432,37134,35587,27201,25921,31409,15541
65535,65535,4535,306,190,182,178,175,18195,65535,4535,336,294,288,286,285,31647,65535,1177,340,209,206,203,201,14012,65535,5206,4313,4219,4216,4219,4216,554,605,32150,28928,37693,27257,922,583,1171,1248,53710,48805,16463,13128,1368,1194,3007,5866,26719,25820,30269,26747,30815,35606,1009,5415,37137,35568,27165,25848,31396,15514
65535,65535,4578,305,192,181,177,178,18244,65535,4580,335,300,291,287,286,31698,65535,1183,339,210,203,199,197,14120,65535,5235,4310,4223,4229,4242,4252,558,604,32147,28891,37655,27205,921,584,1173,1250,53795,48817,16447,13089,1368,1197,3004,5850,26692,25754,30237,26688,30795,35562,1010,5405,37138,35537,27133,25777,31379,15489
65535,65535,4531,306,193,182,178,175,18252,65535,4539,338,298,289,288,286,31584,65535,1172,340,209,202,202,201,14233,65535,5318,4387,4298,4293,4295,4287,557,605,32143,28871,37639,27208,922,587,1177,1251,53769,48783,16448,13102,1373,1202,2999,5842,26687,25746,30255,26719,30811,35580,1006,5396,37149,35541,27111,25776,31385,15494
65535,65535,4575,305,191,182,176,178,18231,65535,4579,339,298,291,288,286,31569,65535,1180,343,210,203,198,198,14229,65535,5339,4399,4309,4307,4308,4298,559,607,32136,28866,37655,27211,923,587,1181,1257,53697,48744,16447,13097,1373,1202,2997,5846,26685,25749,30269,26729,30799,35560,1007,5390,37151,35534,27103,25750,31371,15482
65535,65535,4528,307,193,182,179,174,18208,65535,4536,337,296,292,285,283,31551,65535,1173,339,209,202,199,198,14217,65535,5324,4396,4303,4302,4302,4297,557,606,32143,28863,37671,27226,922,586,1181,1257,53691,48744,16441,13087,1368,1194,2999,5845,26685,25747,30267,26731,30800,35571,1007,5385,37153,35538,27101,25749,31365,15483
65535,65535,4575,306,189,181,179,174,18155,65535,4575,335,294,289,287,282,31546,65535,1183,339,203,202,201,198,14173,65535,5315,4397,4302,4288,4280,4274,561,605,32196,28909,37703,27241,921,587,1173,1247,53541,48624,16419,13083,1363,1190,2997,5853,26678,25757,30261,26729,30811,35592,1005,5385,37131,35531,27102,25763,31364,15500
65535,65535,4529,306,190,182,176,178,18132,65535,4529,332,292,285,282,280,31615,65535,1174,340,208,203,199,198,14078,65535,5235,4349,4253,4237,4226,4221,556,603,32229,28941,37723,27254,921,586,1167,1244,53435,48567,16419,13093,1357,1185,3004,5860,26681,25779,30247,26742,30829,35623,1006,5396,37118,35541,27111,25791,31378,15509
65535,65535,4575,307,193,181,176,175,18144,65535,4570,333,296,285,281,280,31630,65535,1185,340,212,202,198,201,13983,65535,5190,4323,4232,4228,4227,4215,554,604,32227,28947,37713,27253,922,583,1163,1240,53427,48583,16426,13111,1356,1184,3002,5870,26702,25821,30251,26761,30839,35658,1009,5412,37124,35559,27125,25829,31393,15525
65535,65535,4528,306,189,183,179,176,18154,65535,4533,332,291,287,284,279,31664,65535,1174,343,212,203,201,199,13985,65535,5149,4304,4213,4199,4195,4177,555,603,32227,28955,37703,27264,918,585,1161,1240,53439,48607,16441,13136,1357,1185,3006,5882,26719,25859,30256,26787,30855,35694,1009,5431,37145,35583,27147,25866,31414,15542
65535,65535,4575,306,189,181,176,177,18175,65535,4579,331,292,285,282,284,31635,65535,1186,339,209,203,199,201,13884,65535,5089,4256,4157,4148,4139,4131,557,602,32186,28930,37671,27266,921,583,1164,1243,53443,48636,16465,13164,1359,1185,3007,5893,26737,25899,30278,26821,30873,35724,1011,5437,37138,35585,27155,25893,31427,15552
65535,65535,4529,306,189,184,180,176,18077,65535,4533,333,297,292,289,289,31613,65535,1174,341,212,203,200,198,13704,65535,5010,4223,4138,4135,4152,4147,556,606,32172,28936,37675,27287,920,583,1166,1242,53339,48577,16491,13198,1361,1186,3011,5905,26771,25945,30300,26862,30890,35767,1010,5434,37148,35602,27173,25944,31451,15575
65535,65535,4574,307,188,181,177,175,17815,65535,4564,345,303,296,295,293,31635,65535,1184,342,208,201,199,199,13516,65535,5009,4246,4165,4171,4174,4168,553,605,32191,28961,37697,27317,921,586,1168,1245,53299,48576,16519,13236,1365,1189,3014,5918,26796,26005,30322,26904,30917,35812,1005,5414,37175,35649,27199,25994,31482,15604
65535,65535,4529,309,186,185,172,175,17688,65535,4517,345,306,300,297,296,31655,65535,1175,340,213,203,203,198,13468,65535,5017,4264,4175,4162,4155,4145,558,605,32210,28986,37723,27338,922,586,1169,1246,53300,48601,16536,13252,1366,1192,3019,5933,26819,26039,30333,26910,30927,35815,1005,5414,37217,35693,27226,26018,31486,15591
65535,65535,4575,306,190,181,175,176,17609,65535,4553,351,309,304,300,299,31570,65535,1185,341,208,206,201,201,13391,65535,4979,4228,4142,4135,4137,4133,557,609,32193,28934,37671,27235,919,583,1171,1247,53471,48667,16483,13137,1368,1192,3018,5910,26777,25919,30241,26741,30857,35694,1002,5383,37223,35634,27155,25836,31419,15521
65535,65535,4527,306,191,181,176,178,17589,65535,4509,349,313,306,304,301,31426,65535,1169,341,213,205,202,198,13397,65535,4972,4231,4142,4137,4134,4130,556,602,32158,28864,37623,27174,917,584,1172,1249,53750,48795,16454,13091,1367,1195,3009,5872,26739,25829,30205,26682,30853,35670,1000,5351,37244,35615,27100,25753,31419,15504
65535,65535,4567,306,191,182,180,178,17592,65535,4553,354,314,307,304,303,31305,65535,1179,340,210,202,200,198,13441,65535,4981,4222,4137,4130,4124,4117,555,606,32146,28836,37596,27143,918,584,1173,1251,53853,48852,16445,13071,1370,1197,3006,5863,26726,25797,30206,26660,30841,35637,999,5337,37265,35606,27078,25705,31399,15486
65535,65535,4522,304,189,183,175,175,17611,65535,4517,357,313,306,303,302,31309,65535,1171,342,213,204,199,198,13461,65535,4957,4204,4119,4114,4105,4104,558,601,32127,28812,37593,27142,922,585,1175,1252,53895,48868,16446,13082,1369,1199,3003,5853,26739,25804,30220,26676,30855,35664,999,5331,37281,35607,27071,25699,31408,15497
65535,65535,4568,305,191,181,176,175,17598,65535,4555,353,315,308,303,302,31457,65535,1184,343,210,205,201,198,13462,65535,4949,4182,4089,4079,4075,4071,555,603,32131,28817,37606,27145,920,586,1176,1253,53865,48851,16449,13082,1369,1197,3006,5865,26751,25830,30233,26689,30855,35660,998,5341,37297,35615,27069,25693,31401,15491
65535,65535,4522,306,189,181,177,175,17586,65535,4513,355,313,307,304,305,31494,65535,1176,344,211,205,201,201,13423,65535,4910,4159,4071,4064,4061,4055,555,603,32137,28817,37604,27146,919,582,1178,1253,53843,48836,16446,13085,1370,1196,3007,5865,26757,25841,30232,26695,30863,35674,1000,5340,37304,35608,27064,25690,31399,15492
65535,65535,4567,305,190,183,177,175,17579,65535,4553,352,315,309,303,303,31566,65535,1188,343,210,207,201,198,13408,65535,4910,4153,4066,4058,4056,4052,554,605,32138,28817,37612,27161,920,583,1178,1254,53809,48823,16451,13093,1367,1194,3007,5874,26774,25869,30246,26717,30873,35704,998,5345,37313,35619,27067,25708,31407,15501
65535,65535,4526,306,191,181,178,175,17580,65535,4511,355,314,308,305,303,31615,65535,1180,343,214,204,199,199,13409,65535,4905,4154,4068,4065,4066,4059,553,607,32136,28821,37624,27182,916,582,1175,1250,53794,48829,16459,13119,1366,1192,3009,5884,26797,25907,30255,26745,30890,35738,999,5351,37324,35638,27083,25747,31425,15519
65535,65535,4568,305,191,182,175,175,17584,65535,4558,355,317,309,305,303,31671,65535,1193,343,214,203,201,198,13437,65535,4923,4156,4075,4078,4080,4079,555,601,32135,28837,37642,27205,917,578,1171,1250,53759,48825,16475,13143,1363,1192,3014,5895,26818,25959,30270,26779,30912,35771,1001,5359,37338,35666,27103,25787,31446,15541
65535,65535,4526,303,194,180,177,175,17582,65535,4514,354,314,309,305,304,31718,65535,1187,343,210,205,199,201,13457,65535,4951,4191,4101,4096,4095,4091,556,603,32142,28849,37659,27231,915,579,1169,1248,53755,48857,16486,13167,1362,1190,3015,5905,26841,26002,30286,26803,30934,35817,1001,5366,37352,35690,27123,25833,31475,15557
65535,65535,4573,309,189,181,175,178,17575,65535,4561,359,314,307,304,306,31732,65535,1199,344,208,203,200,200,13455,65535,4966,4199,4121,4124,4127,4124,555,603,32150,28871,37676,27255,917,581,1169,1244,53768,48892,16502,13190,1364,1190,3017,5920,26866,26054,30299,26833,30960,35866,1001,5375,37365,35710,27156,25876,31503,15575
65535,65535,4526,306,193,177,176,174,17579,65535,4521,354,316,313,309,305,31746,65535,1187,343,210,203,201,199,13503,65535,4997,4227,4139,4133,4132,4127,552,601,32169,28891,37699,27280,915,585,1168,1248,53839,48942,16522,13219,1365,1194,3022,5931,26893,26095,30314,26859,30989,35909,1003,5382,37386,35739,27179,25923,31532,15596
65535,65535,4573,307,190,180,175,179,17591,65535,4565,359,317,308,309,304,31719,65535,1196,343,210,203,203,198,13481,65535,5011,4234,4151,4152,4152,4151,552,600,32168,28911,37719,27310,918,581,1169,1246,53761,48930,16541,13253,1363,1195,3026,5950,26917,26143,30335,26889,31016,35958,1002,5393,37391,35759,27212,25977,31568,15624
65535,65535,4528,307,195,176,179,174,17595,65535,4522,357,315,310,309,305,31739,65535,1191,343,209,205,199,202,13507,65535,5027,4251,4162,4156,4162,4164,552,605,32189,28941,37754,27354,918,578,1169,1247,53763,48975,16565,13284,1365,1193,3029,5964,26952,26210,30359,26935,31054,36023,1005,5404,37414,35804,27255,26048,31616,15657
65535,65535,4572,307,190,182,178,173,17596,65535,4567,357,318,310,309,306,31768,65535,1203,345,209,202,203,199,13523,65535,5062,4270,4184,4179,4177,4173,552,605,32218,28977,37799,27386,921,582,1170,1247,53787,49022,16591,13322,1364,1193,3034,5982,26983,26277,30379,26971,31085,36077,1004,5417,37445,35847,27300,26121,31649,15680
65535,65535,4529,306,193,182,176,179,17601,65535,4526,357,318,311,308,307,31799,65535,1198,344,213,203,200,199,13537,65535,5052,4259,4162,4157,4156,4154,552,603,32230,28979,37785,27347,919,582,1174,1250,53895,49101,16583,13272,1371,1193,3037,5993,26995,26265,30349,26881,31046,35983,1007,5429,37466,35847,27289,26044,31591,15609
65535,65535,4575,307,191,182,179,175,17583,65535,4566,358,319,312,310,309,31605,65535,1190,343,209,203,200,201,13525,65535,5047,4272,4199,4193,4188,4181,553,602,32207,28909,37706,27226,917,579,1174,1251,54157,49201,16509,13160,1371,1193,3026,5941,26924,26087,30245,26716,31010,35918,1002,5384,37461,35775,27187,25859,31559,15574
65535,65535,4527,307,188,180,175,174,17584,65535,4523,359,319,314,308,307,31596,65535,1178,342,209,205,201,202,13567,65535,5064,4289,4204,4198,4199,4196,549,602,32214,28898,37679,27189,917,578,1172,1251,54215,49203,16486,13129,1365,1194,3023,5922,26917,26059,30228,26671,31008,35909,1001,5370,37476,35761,27169,25813,31560,15560
65535,65535,4573,310,189,182,177,174,17576,65535,4564,362,319,311,309,307,31573,65535,1184,345,209,202,199,198,13580,65535,5082,4288,4200,4194,4193,4186,552,598,32209,28872,37661,27155,915,578,1171,1250,54256,49212,16473,13112,1364,1192,3019,5914,26913,26035,30213,26646,31009,35907,1002,5362,37479,35733,27159,25785,31556,15554
65535,65535,4530,305,192,182,178,175,17571,65535,4520,361,318,313,309,307,31583,65535,1176,341,211,205,200,202,13550,65535,5065,4287,4209,4203,4203,4207,549,599,32223,28885,37671,27172,915,579,1170,1246,54208,49205,16484,13136,1365,1193,3024,5918,26941,26079,30242,26689,31041,35943,999,5364,37493,35754,27167,25817,31575,15567
65535,65535,4575,311,189,181,178,172,17556,65535,4562,360,317,313,309,309,31597,65535,1186,345,209,205,201,203,13575,65535,5098,4316,4231,4236,4239,4228,551,602,32226,28889,37669,27171,917,579,1176,1257,54735,49601,16505,13145,1376,1201,3025,5929,26974,26115,30257,26692,31033,35942,1001,5367,37576,35827,27173,25812,31572,15562
65535,65535,4530,308,186,181,177,176,17554,65535,4519,357,319,311,308,308,31587,65535,1178,343,211,205,204,200,13637,65535,5111,4320,4227,4220,4218,4214,553,601,32253,28923,37679,27179,915,578,1179,1258,54715,49499,16506,13155,1372,1199,3026,5930,27002,26133,30268,26711,31052,35968,999,5369,37610,35833,27183,25832,31583,15573
65535,65535,4573,303,189,182,178,182,17569,65535,4564,357,317,311,309,307,31598,65535,1188,342,209,204,200,200,13613,65535,5111,4315,4224,4219,4221,4216,553,602,32268,28935,37692,27197,914,579,1177,1255,54534,49415,16515,13174,1368,1193,3027,5941,27003,26169,30286,26749,31071,36008,1001,5377,37602,35839,27201,25865,31599,15590
65535,65535,4530,307,189,182,176,171,17571,65535,4520,358,317,312,308,306,31643,65535,1182,343,211,203,200,198,13610,65535,5103,4315,4229,4223,4223,4222,550,600,32273,28944,37715,27229,914,577,1170,1248,54325,49315,16519,13198,1366,1189,3032,5951,27025,26213,30313,26785,31095,36047,1001,5386,37592,35846,27227,25911,31631,15610
65535,65535,4576,305,190,182,177,178,17561,65535,4569,358,318,311,308,309,31706,65535,1198,343,211,204,198,199,13611,65535,5127,4329,4241,4239,4235,4231,546,600,32278,28962,37743,27259,915,579,1170,1247,54255,49302,16531,13222,1365,1191,3032,5962,27040,26261,30331,26827,31115,36089,1001,5394,37593,35859,27248,25965,31659,15633
65535,65535,4529,305,190,184,175,172,17554,65535,4526,357,318,311,308,307,31741,65535,1187,343,213,204,200,198,13621,65535,5140,4358,4270,4264,4265,4266,549,600,32295,28985,37765,27287,915,579,1169,1248,54228,49319,16546,13253,1364,1191,3038,5975,27059,26310,30364,26862,31143,36130,1003,5409,37597,35892,27289,26024,31691,15654
65535,65535,4574,306,191,190,181,174,17569,65535,4567,359,319,315,309,306,31766,65535,1203,343,210,205,203,198,13675,65535,5183,4369,4278,4269,4267,4265,551,600,32302,29009,37785,27320,915,580,1171,1249,54251,49365,16567,13273,1367,1190,3039,5988,27085,26360,30387,26900,31165,36177,1006,5416,37606,35914,27316,26071,31718,15676
65535,65535,4530,307,191,182,177,177,17555,65535,4527,358,318,312,309,307,31789,65535,1196,345,214,204,201,199,13665,65535,5180,4380,4289,4284,4282,4280,550,600,32319,29029,37814,27349,917,581,1171,1248,54258,49395,16578,13305,1369,1196,3041,6000,27109,26403,30415,26942,31197,36224,1006,5427,37628,35943,27349,26128,31753,15696
65535,65535,4577,302,191,185,176,178,17562,65535,4573,360,319,311,311,308,31805,65535,1210,344,210,203,201,199,13685,65535,5206,4388,4300,4289,4286,4283,552,604,32340,29065,37844,27387,917,580,1171,1250,54274,49431,16599,13328,1370,1193,3045,6018,27135,26464,30447,26989,31225,36271,1003,5438,37631,35969,27389,26183,31785,15721
65535,65535,4532,307,189,182,175,174,17565,65535,4529,360,323,313,308,307,31830,65535,1202,343,209,207,203,202,13682,65535,5206,4402,4320,4319,4323,4320,551,603,32366,29098,37876,27423,920,581,1171,1249,54293,49475,16613,13362,1370,1196,3048,6031,27171,26525,30487,27043,31258,36330,1007,5449,37653,36002,27430,26254,31827,15749
65535,65535,4579,307,188,182,177,175,17575,65535,4575,359,317,313,311,308,31846,65535,1215,343,208,203,201,198,13737,65535,5250,4422,4333,4329,4331,4332,553,603,32391,29134,37918,27469,921,582,1173,1253,54293,49519,16635,13399,1371,1194,3050,6045,27199,26589,30519,27104,31291,36385,1005,5464,37664,36039,27477,26327,31867,15777
65535,65535,4531,306,190,181,177,172,17572,65535,4533,362,323,315,309,309,31860,65535,1208,342,210,204,201,202,13752,65535,5252,4421,4325,4317,4309,4308,552,605,32417,29165,37930,27478,920,581,1174,1251,54331,49565,16648,13405,1373,1198,3055,6064,27232,26643,30550,27121,31282,36359,1008,5474,37688,36062,27503,26344,31841,15742
65535,65535,4577,304,186,184,175,175,17543,65535,4569,359,320,314,310,309,31707,65535,1199,342,211,203,199,199,13699,65535,5215,4397,4302,4297,4292,4285,552,603,32412,29101,37868,27360,918,578,1175,1254,54491,49595,16563,13260,1374,1197,3050,6029,27167,26467,30457,26938,31223,36246,1005,5448,37671,35963,27384,26098,31761,15666
65535,65535,4528,306,189,181,175,175,17523,65535,4526,362,321,314,309,310,31577,65535,1179,341,207,205,200,197,13671,65535,5195,4394,4307,4304,4302,4303,552,603,32398,29063,37830,27319,919,581,1176,1257,54621,49649,16541,13231,1374,1198,3041,5993,27145,26417,30446,26917,31234,36247,1005,5417,37663,35935,27355,26049,31762,15661
65535,65535,4574,308,192,186,179,175,17520,65535,4565,360,321,315,311,309,31552,65535,1187,342,209,203,199,198,13698,65535,5207,4397,4311,4307,4308,4305,551,603,32400,29057,37810,27299,919,581,1178,1259,54633,49643,16535,13217,1375,1201,3041,5988,27153,26415,30441,26899,31228,36238,1003,5413,37672,35919,27349,26023,31758,15652
65535,65535,4529,307,188,180,175,172,17510,65535,4524,361,322,314,311,308,31554,65535,1179,343,210,204,202,199,13711,65535,5213,4408,4316,4309,4302,4298,555,603,32420,29060,37829,27314,919,582,1180,1259,54616,49628,16540,13234,1376,1200,3039,5989,27168,26433,30456,26932,31251,36276,1005,5412,37691,35939,27357,26056,31778,15667
65535,65535,4575,311,191,185,176,175,17495,65535,4564,361,322,315,310,309,31659,65535,1193,342,210,204,199,201,13689,65535,5211,4403,4312,4307,4305,4301,552,603,32425,29066,37836,27319,919,581,1181,1260,54628,49648,16544,13239,1373,1198,3040,5997,27181,26463,30463,26945,31246,36275,1003,5417,37696,35941,27367,26065,31774,15665
65535,65535,4529,306,190,182,177,178,17489,65535,4519,361,320,313,311,309,31639,65535,1185,344,209,203,200,199,13693,65535,5199,4394,4303,4295,4298,4297,551,602,32431,29070,37831,27323,917,581,1177,1256,54647,49657,16540,13247,1371,1196,3045,5999,27196,26487,30475,26963,31258,36293,1003,5417,37711,35946,27375,26080,31780,15669
65535,65535,4575,306,191,182,178,175,17474,65535,4564,360,320,315,313,310,31679,65535,1199,343,210,203,201,203,13688,65535,5211,4395,4309,4298,4295,4291,550,603,32453,29085,37843,27343,917,579,1175,1252,54629,49661,16552,13263,1371,1192,3042,6005,27214,26519,30495,26996,31277,36332,1002,5421,37711,35962,27396,26112,31797,15687
65535,65535,4531,307,189,181,178,175,17458,65535,4521,361,321,315,312,313,31701,65535,1189,343,209,207,203,199,13669,65535,5193,4396,4308,4304,4303,4300,551,600,32461,29101,37859,27366,917,579,1172,1250,54645,49699,16561,13291,1370,1191,3047,6016,27239,26565,30526,27046,31298,36373,1004,5428,37725,35987,27425,26163,31825,15709
65535,65535,4575,308,189,184,178,175,17457,65535,4563,360,320,317,311,312,31722,65535,1199,342,210,206,199,201,13685,65535,5210,4395,4303,4299,4297,4291,551,602,32468,29124,37876,27398,917,579,1171,1249,54647,49725,16578,13319,1371,1194,3047,6029,27260,26612,30546,27085,31317,36409,1005,5439,37739,36013,27458,26220,31851,15727
65535,65535,4530,306,189,188,177,178,17456,65535,4522,362,323,314,312,310,31731,65535,1194,341,208,203,202,199,13671,65535,5210,4407,4317,4313,4312,4307,549,601,32485,29146,37898,27433,918,583,1171,1253,54679,49781,16595,13353,1371,1195,3054,6042,27281,26665,30577,27140,31342,36446,1003,5450,37758,36044,27493,26278,31879,15745
65535,65535,4578,310,189,181,175,177,17457,65535,4565,361,320,313,312,310,31763,65535,1205,341,209,202,199,199,13688,65535,5226,4409,4319,4315,4319,4316,553,604,32493,29163,37911,27454,919,582,1175,1254,54713,49829,16611,13381,1379,1200,3053,6055,27301,26713,30601,27182,31361,36490,1007,5458,37772,36077,27522,26322,31899,15763
65535,65535,4532,307,193,183,176,178,17451,65535,4523,361,320,315,311,309,31796,65535,1199,343,210,203,201,199,13705,65535,5234,4420,4330,4327,4330,4327,551,604,32507,29188,37935,27490,923,584,1177,1259,54720,49856,16631,13406,1382,1203,3055,6065,27322,26757,30629,27225,31379,36531,1005,5469,37783,36094,27550,26377,31919,15781
65535,65535,4577,309,189,182,177,175,17463,65535,4568,363,321,314,312,310,31814,65535,1211,348,210,204,200,198,13698,65535,5252,4435,4348,4345,4347,4345,556,606,32533,29217,37958,27525,925,585,1182,1261,54716,49878,16650,13440,1382,1208,3058,6079,27346,26808,30656,27279,31405,36573,1007,5475,37792,36123,27585,26434,31953,15808
65535,65535,4532,306,190,182,180,175,17465,65535,4527,361,321,315,313,308,31845,65535,1206,345,212,204,201,198,13724,65535,5265,4448,4358,4352,4351,4347,556,607,32560,29255,37991,27569,925,585,1184,1263,54687,49891,16667,13474,1385,1207,3065,6096,27376,26869,30696,27341,31433,36627,1007,5487,37810,36159,27625,26506,31987,15832
65535,65535,4573,307,189,182,176,179,17452,65535,4569,361,322,316,311,311,31858,65535,1221,344,211,206,200,199,13714,65535,5266,4443,4351,4343,4342,4333,558,609,32591,29283,38020,27584,927,587,1186,1265,54694,49923,16684,13480,1388,1212,3066,6113,27399,26912,30721,27357,31431,36602,1008,5500,37816,36184,27651,26526,31959,15794
65535,65535,4530,307,189,186,179,175,17424,65535,4521,361,321,314,313,308,31741,65535,1198,350,211,204,200,200,13689,65535,5225,4423,4333,4320,4319,4312,556,606,32588,29229,37946,27465,924,586,1189,1268,54837,49919,16594,13338,1385,1208,3064,6079,27348,26755,30631,27191,31367,36490,1007,5469,37797,36077,27538,26283,31868,15717
65535,65535,4574,307,190,183,178,175,17415,65535,4560,363,322,315,313,309,31665,65535,1200,345,211,205,203,200,13657,65535,5214,4415,4329,4320,4315,4313,558,608,32575,29203,37902,27423,922,585,1189,1266,54869,49895,16561,13300,1382,1208,3050,6041,27322,26693,30602,27153,31366,36493,1003,5439,37768,36029,27498,26229,31859,15710
