 EMG Channel 
2889.72293
2898.931849
2898.216593
2893.478023
2929.620794
2956.152315
2954.766507
2942.830675
2932.459466
2963.148411
2998.978257
3001.32519
2997.123062
2998.173594
3007.918955
3010.690571
3013.439836
3019.474807
3022.112313
3016.837301
3013.015153
3018.983068
3036.082153
3039.859598
3035.098676
3032.997612
3034.785752
3036.551539
3033.087019
3036.663298
3034.584586
3038.071458
3032.058839
3029.846016
3031.835321
3038.831417
3035.210435
3028.348449
3030.337755
3030.136589
3031.902377
3027.923766
3030.941252
3036.015098
3035.14338
3031.008307
3031.902377
3038.026755
3033.444647
3032.32706
3029.600147
3027.767304
3027.432028
3027.342621
3025.107446
3029.153112
3027.029696
3026.336792
3022.313478
3019.251289
3026.470903
3024.436894
3020.570042
3023.2299
3023.922804
3022.648754
3021.218243
3020.301821
3025.15215
3024.950984
3022.536996
3022.559347
3024.503949
3026.515606
3028.706077
3025.912109
3027.923766
3028.013173
3025.554481
3023.989859
3019.988897
3028.057877
3031.164769
3024.101618
3026.895586
3030.650679
3028.460208
3025.330964
3026.359144
3021.30765
3019.206586
3014.333905
3012.478711
3014.311554
3011.45053
3013.909222
3011.025847
3011.763455
3014.959754
3013.283374
3011.092903
3012.456359
3013.730408
3010.087074
3008.187176
3006.913126
3012.881042
3011.025847
3006.175519
3009.125949
3010.757626
3012.478711
3008.813025
3008.477748
3010.042371
3010.735275
3009.662391
3007.941307
3009.349466
3008.589507
3008.924783
3011.45053
3013.261022
0.0
3223.166254
3225.28967
3220.03701
3223.434475
3230.877606
3222.719219
3206.894184
3206.491853
3204.27903
3200.970972
3190.95739
3182.039044
3187.157594
3188.856326
3186.509393
3187.716387
3187.135242
3191.426777
3189.146899
3182.441376
3187.515222
3189.012788
3186.017655
3182.530783
3185.548268
3188.632809
3186.241172
3181.949637
3180.027387
3183.089576
3182.933114
3181.86023
3185.436509
3186.21882
3185.816489
3185.592972
3186.956428
3190.95739
3190.733873
3185.436509
3188.945733
3192.320847
3191.136204
3188.319884
3185.70473
3191.605591
3190.577411
3185.391806
3186.710559
3188.565754
3195.159518
3197.126472
3181.524954
3175.110003
3164.649387
3156.200428
3151.215989
3142.342346
3132.664041
3123.365715
3108.367694
3095.046055
3092.944991
3083.780776
3077.902267
3075.488278
3073.297807
3083.71372
3083.847831
3080.651531
3085.814784
3091.670941
3090.128671
3086.91002
3089.659284
3093.123805
3089.703988
3089.368712
3087.021778
3090.24043
3088.251124
3086.127709
3090.061616
3086.53004
3089.256953
3089.972209
3088.251124
3088.720511
3089.368712
3092.788529
3091.715645
3093.32497
3094.107281
3089.659284
3086.507688
3086.708854
3089.055787
3090.061616
3089.279305
3094.308447
3095.716607
3090.531002
3082.55143
3077.477584
3076.91879
3072.359034
3063.395985
3058.188028
3059.663243
3065.742918
3064.468868
3063.328929
3065.854676
3064.737089
3061.116107
3061.652549
3064.066537
3059.529133
3058.947987
3059.260912
3062.390156
3063.887723
3061.764307
3061.205514
3060.378499
3063.395985
3065.787621
3063.910075
3060.311444
3062.010176
3060.13263
3055.505819
3055.371708
3057.785697
3063.910075
3062.501915
3061.004348
3064.178296
3065.117069
3064.804144
3059.417374
3061.585493
3065.765269
3066.458174
3061.429031
3062.390156
3065.854676
3060.467906
3056.712813
3059.305615
3059.193857
3062.792487
3060.825534
3061.853714
3064.222999
3062.43486
3060.400851
3061.652549
3062.591322
3063.172467
3064.446517
3060.914941
3061.384328
3062.94895
3066.860505
3059.819705
3059.864409
3063.530095
3061.809011
3056.466944
3060.087926
3063.664206
3062.05488
3064.513572
3062.457211
3060.713775
3060.981996
3054.768211
3045.201665
3051.16958
3065.586456
3069.833287
3076.203534
3085.032473
3095.403683
3099.002313
3096.700084
3093.794357
3091.827404
3089.055787
3095.11311
3098.599982
3095.426034
3092.520308
3091.827404
3095.448386
3094.08493
3092.67677
3092.050921
3091.536831
3091.380369
3095.068406
3092.81088
3093.101453
3100.946915
3098.488223
3096.074235
3097.348284
3098.644686
3099.114072
3096.185994
3093.056749
3097.41534
3097.884726
3097.03536
3093.772005
3098.711741
3095.202517
3093.637895
3087.155889
3087.759386
3085.166584
3085.300694
3073.186049
3070.503839
3091.872107
3103.763235
3109.954668
3115.699067
3124.46095
3131.725267
3134.96627
3141.470628
3141.470628
3142.14118
3142.565863
3140.21893
3139.950709
3145.806866
3145.382183
3147.505599
3147.77382
3149.561959
3142.118829
3146.320957
3143.996375
3145.47159
3151.305396
3145.85157
3148.578483
3155.619282
3155.08284
3150.612491
3151.573616
3153.317053
3151.461858
3148.824352
3150.165457
3149.673718
3156.379242
3154.546398
3154.591102
3165.230532
3169.030329
3168.27037
3165.610512
3164.112945
3169.075032
3165.856381
3159.575541
3161.989529
3159.284968
3154.881675
3169.075032
3183.916591
3186.352931
3189.817451
3194.019579
3201.149786
3210.693981
3211.565699
3211.520995
3212.616231
3211.677457
3211.476292
3208.078826
3209.129358
3211.118664
3214.493777
3211.923326
3208.63762
3211.364533
3210.291649
3211.07396
3210.805739
3209.576393
3213.867928
3214.940812
3211.990382
3212.727989
3216.550138
3213.331486
3206.245983
3208.50351
3209.956373
3209.53169
3207.967068
3207.385922
3209.576393
3214.002039
3206.603611
3207.74355
3211.83392
3211.520995
3207.117701
3206.961239
3208.816434
3208.347047
3206.514204
3203.474367
3208.235289
3210.828091
3209.621097
3207.028294
3202.021504
3202.066207
3208.592917
3219.075885
3226.004925
3231.615213
3236.06321
3242.433458
3247.149676
3252.022356
3254.682214
3250.301272
3247.395545
3246.970862
3253.430516
3250.502437
3247.641414
3250.703603
3252.379984
3251.418859
3250.703603
3250.211865
3251.664728
3253.09524
3251.038879
3247.641414
3250.681251
3250.994176
3251.195341
3248.110801
3246.076792
3245.607405
3243.193417
3240.28769
3244.51217
3252.827019
3250.524789
3245.517998
3246.970862
3251.329452
3249.25074
3246.657937
3250.882417
3247.663766
3248.401373
3246.233254
3246.613234
3251.552969
3250.435382
3247.104972
3247.574359
3245.719164
3243.305176
3245.339184
3244.065135
3251.463562
3256.582112
3251.485914
3237.270205
3231.548158
3225.960222
3216.013696
3206.380094
3201.350951
3193.281972
3193.192565
3185.280047
3180.385015
3179.267428
3174.774727
3169.142088
3166.839858
3172.11487
3164.93996
3158.055622
3160.111983
3168.0245
3170.997282
3167.622169
3165.699919
3168.382128
3168.069204
3162.436564
3165.096422
3166.86221
3167.957445
3165.319939
3163.978835
3164.112945
3165.386995
3162.414213
3159.240265
3160.089631
3163.5318
3160.246093
3157.116849
3154.233474
3162.458916
3162.525971
3160.424907
3159.732003
3160.290797
3157.429774
3156.088669
3154.859323
3161.900122
3162.905951
3159.799058
3158.27914
3158.502657
3163.352986
3160.827239
3159.933169
3160.469611
3163.554151
3166.236361
3161.363681
3161.967178
3165.834029
3162.12364
3158.659119
3158.972044
3158.457954
3156.021614
3149.114925
3144.82339
3146.455067
3147.103268
3144.756334
3149.897236
3155.351061
3153.67468
3154.322881
3156.938035
3157.094497
3158.949692
3158.79323
3156.423945
3158.301492
3160.648425
3159.664948
3155.59693
3157.116849
3160.447259
3159.30732
3156.669814
3156.222779
3156.915683
3158.301492
3157.608587
3159.508486
3165.431698
3166.035195
3159.977872
3145.829218
3150.992471
3172.651311
3171.846649
3169.94675
3180.742643
3186.844669
3188.632809
3192.23144
3197.908783
3205.150748
3210.55987
3215.901937
3219.947603
3224.820283
3228.173045
3232.97867
3230.877606
3229.715315
3230.698792
3232.889263
3234.051553
3232.263414
3231.995193
3234.655051
3229.938833
3229.692963
3231.481103
3231.257585
3232.531635
3235.817341
3234.275071
3231.503455
3228.731838
3229.871777
3237.091391
3236.331431
3231.05642
3233.671574
3237.113742
3238.812475
3237.873702
3240.15358
3240.622966
3236.912577
3233.179835
3237.694888
3238.857179
3239.371269
3238.812475
3239.550083
3243.551045
3247.015565
3242.746382
3241.204112
3241.874664
3243.99808
3238.521902
3235.236196
3236.666708
3238.074867
3236.577301
3231.212882
3240.265338
3249.854237
3256.179781
3255.755097
3253.698737
3256.470353
3258.258493
3254.972786
3255.442173
3257.945568
3256.448001
3252.111763
3252.178818
3258.48201
3259.979577
3255.598635
3253.162295
3258.057327
3257.744403
3256.872685
3250.211865
3251.485914
3256.224484
3252.670557
3248.937815
3256.068022
3260.381908
3256.93974
3254.12342
3253.586978
3259.353728
3266.908618
3259.465487
3241.829961
3234.632699
3230.452923
3226.228443
3216.594841
3211.230422
3208.235289
3207.698847
3208.950544
3207.520033
3212.973858
3212.392713
3208.279992
3209.643449
3213.175024
3207.877661
3203.675533
3207.162405
3211.364533
3210.42576
3208.794082
3208.995248
3212.727989
3211.141015
3207.520033
3205.1731
3209.509338
3210.805739
3208.794082
3207.676495
3209.129358
3213.309135
3211.565699
3207.452978
3211.208071
3211.811568
3214.761998
3212.191547
3210.381056
3214.829053
3215.387847
3210.738684
3214.538481
3214.78435
3211.610402
3210.135187
3210.649277
3210.738684
3211.07396
3207.430626
3208.436454
3213.845577
3213.443245
3208.63762
3210.068132
3218.517091
3227.34603
3210.604574
3193.594896
3186.643504
3183.201335
3172.919532
3159.933169
3144.801038
3138.855474
3127.411381
3111.675753
3104.322029
3111.340476
3104.746712
3091.112148
3086.753558
3089.882802
3091.067444
3084.853659
3082.68554
3084.250162
3081.411491
3080.539773
3088.698159
3095.873069
3100.455177
3100.209308
3093.146156
3095.604848
3099.426997
3099.650514
3095.090758
3097.862375
3099.762273
3101.639819
3093.615543
3089.145194
3099.181127
3102.042151
3095.426034
3090.955685
3088.653456
3079.891572
3071.509668
3069.095679
3074.840078
3073.923656
3064.424165
3064.49122
3071.889647
3073.141345
3069.945046
3071.107336
3073.96836
3069.87799
3073.521325
3067.754575
3070.503839
3071.66613
3069.252142
3065.050014
3065.832325
3068.492182
3067.419299
3067.240485
3063.016005
3062.43486
3066.994615
3066.838153
3066.838153
3069.22979
3068.84981
3066.458174
3062.345453
3063.172467
3065.474697
3061.764307
3060.825534
3061.786659
3067.084022
3065.251179
3064.245351
3063.932426
3063.105412
3063.060708
3060.669072
3060.64672
3063.038357
3067.888685
3064.066537
3065.072365
3067.352243
3071.688482
3063.686557
3062.323101
3065.295883
3068.536886
3066.27936
3065.251179
3068.268665
3066.681691
3067.218133
3070.436784
3065.631159
3064.982958
3064.468868
3059.775002
3059.327967
3070.168563
3080.919752
3078.081081
3088.899325
3098.95761
3105.841947
3112.770988
3110.558165
3111.184014
3109.46293
3106.825424
3104.791415
3110.312296
3113.799168
3111.206366
3111.429883
3109.775854
3114.425017
3115.766122
3113.642706
3114.156796
3114.469721
3114.290907
3112.502767
3110.893442
3114.8497
3113.754465
3110.379351
3107.1607
3117.084875
3119.811788
3111.116959
3111.161662
3114.514424
3113.799168
3112.882747
3111.116959
3113.128616
3117.218985
3117.062523
3114.983811
3115.74377
3121.041134
3121.242299
3117.576613
3112.636878
3111.943974
3108.747674
3115.74377
3125.109151
3134.139256
3140.196579
3139.682488
3142.118829
3141.291814
3139.727192
3136.307375
3133.088724
3136.262672
3137.536721
3138.944881
3136.150913
3139.883654
3140.688317
3138.386087
3134.876863
3139.280157
3140.21893
3134.630994
3133.625166
3134.765105
3138.67666
3138.989584
3136.128561
3136.642651
3140.330689
3140.353041
3136.88852
3135.256843
3139.950709
3139.436619
3140.844779
3141.872959
3138.900177
3137.916701
3137.961404
3135.86034
3137.2685
3140.934186
3138.743715
3130.317107
3131.077067
3145.583349
3151.841837
3151.394802
3151.886541
3160.447259
3159.530837
3152.847666
3151.864189
3155.440468
3157.653291
3148.176151
3144.264596
3142.409401
3139.436619
3140.777724
3143.705802
3150.07605
3153.518218
3155.507523
3150.59014
3156.446297
3158.212085
3156.111021
3155.194599
3157.206256
3160.581369
3158.457954
3155.216951
3155.149896
3158.949692
3161.251922
3154.769916
3153.629977
3157.295663
3159.866114
3156.893332
3155.708689
3160.648425
3160.290797
3149.629015
3150.72425
3165.923436
3175.624093
3181.033216
3183.447204
3193.77371
3200.680399
3207.922364
3203.362608
3202.513242
3203.988457
3203.519071
3202.401483
3202.647353
3207.251812
3205.374265
3201.686228
3199.316943
3203.049684
3204.614306
3202.647353
3198.221707
3201.3286
3206.71537
3205.038989
3199.875736
3200.456882
3204.390789
3201.015675
3196.321809
3198.177004
3201.507414
3197.953486
3196.612382
3199.249887
3201.84269
3201.753283
3196.992361
3195.740663
3198.802852
3198.109948
3198.445225
3201.485062
3205.597783
3206.067169
3202.379132
3201.350951
3201.663876
3204.189623
3204.323733
3200.367475
3201.887393
3204.547251
3202.602649
3200.233364
3204.703713
3206.491853
3204.591954
3204.346085
3209.598745
3214.940812
3206.402446
3191.225611
3186.755262
3185.70473
3178.708634
3162.77184
3151.014823
3149.114925
3141.828256
3138.542549
3138.520198
3139.771895
3140.442448
3137.179093
3135.882692
3141.560035
3145.002204
3142.767029
3140.755372
3139.950709
3142.744677
3143.03525
3138.542549
3139.615433
3141.269462
3140.353041
3140.822427
3137.223797
3139.749544
3138.207273
3134.921567
3136.821465
3144.912797
3143.750506
3145.940977
3143.303471
3143.750506
3144.085782
3141.135352
3141.783552
3144.197541
3143.169361
3141.425924
3141.045945
3141.805904
3144.44341
3141.247111
3141.604738
3142.789381
3144.935148
3145.940977
3143.102305
3137.000279
3141.805904
3143.817561
3141.671794
3141.180055
3143.281119
3144.9575
3141.671794
3141.090648
3147.25973
3147.595006
3140.174227
3141.247111
3144.3093
3145.024555
3143.303471
3145.47159
3146.343308
3147.729116
3144.82339
3137.603776
3142.968195
3144.488113
3143.571692
3143.951672
3143.258768
3145.225721
3143.951672
3145.248073
3143.817561
3147.237378
3144.421058
3143.057602
3145.784515
3145.47159
3145.963329
3144.354003
3142.632919
3146.991509
3147.371488
3144.3093
3141.358869
3145.717459
3147.39384
3143.862265
3140.554206
3142.029422
3143.236416
3145.717459
3142.342346
3138.16257
3131.166474
3126.562014
3120.124712
3118.358924
3117.66602
3108.233584
3106.847776
3104.791415
3111.094607
3116.995468
3118.425979
3120.86232
3123.410418
3124.46095
3124.416247
3118.917718
3121.689334
3131.345288
3127.187863
3124.483302
3124.349192
3125.936166
3126.293793
3124.930337
3122.91868
3126.3832
3127.634898
3123.94686
3126.919642
3130.942956
3131.054715
3128.461913
3126.092628
3126.3832
3130.674735
3126.76318
3125.042096
3127.813712
3131.658212
3129.154817
3126.047924
3128.976003
3131.524102
3127.992526
3123.365715
3126.293793
3128.976003
3125.86911
3127.545491
3128.998355
3129.557148
3130.518273
3127.187863
3125.310317
3125.556186
3128.931299
3125.265613
3119.632974
3124.483302
3125.980869
3122.5387
3120.817616
3120.459988
3120.728209
3114.022686
3116.593136
3131.077067
3141.023593
3142.230587
3141.336517
3147.997337
3148.891407
3147.103268
3143.862265
3145.426887
3145.225721
3143.661099
3138.229625
3140.21893
3145.918625
3147.796172
3146.678584
3144.868093
3140.509503
3146.36566
3145.695108
3140.464799
3143.191712
3145.650404
3143.482285
3140.822427
3140.867131
3144.711631
3142.856436
3145.158666
3144.488113
3143.772858
3146.388012
3144.9575
3141.917663
3140.397744
3144.3093
3144.018727
3141.291814
3138.095515
3135.972099
3146.142143
3153.115887
3156.938035
3161.117811
3156.267483
3156.893332
3164.895256
3166.325768
3163.263579
3163.241227
3167.3763
3164.470573
3163.330634
3161.877771
3162.190695
3165.990492
3168.40448
3162.615378
3165.364643
3169.700881
3165.141125
3162.101288
3162.883599
3162.63773
3163.040061
3159.106154
3157.541532
3155.418117
3168.493887
3177.725157
3179.915628
3187.716387
3191.583239
3199.473405
3209.978725
3217.891242
3223.970917
3219.969954
3213.689114
3211.208071
3215.320792
3215.94664
3214.225556
3213.443245
3217.265393
3214.605536
3213.487949
3212.616231
3213.622059
3221.132245
3216.84071
3211.878623
3211.655106
3214.873757
3214.985515
3214.113797
3218.584146
3218.785312
3215.767827
3212.8621
3215.410199
3215.67842
3215.834882
3214.605536
3213.107969
3216.214861
3214.292611
3212.079789
3207.564736
3217.868891
3227.368382
3231.682269
3232.419876
3239.080696
3248.580187
3253.206998
3255.91156
3255.062193
3255.576283
3253.139943
3250.681251
3251.709432
3250.994176
3253.899903
3254.615158
3252.178818
3250.591844
3248.87076
3248.580187
3247.127324
3252.000004
3252.536446
3248.669594
3246.300309
3247.104972
3246.076792
3241.986423
3236.644356
3236.554949
3235.593824
3234.051553
3230.587033
3235.660879
3246.345013
3249.496609
3247.663766
3250.077754
3255.196304
3262.482972
3254.883379
3235.862045
3234.543292
3229.894129
3216.438379
3204.860175
3190.733873
3181.524954
3168.605646
3156.759221
3147.058564
3144.488113
3143.705802
3139.302509
3138.833122
3144.018727
3143.303471
3141.336517
3142.588215
3143.884616
3145.382183
3145.046907
3143.571692
3145.426887
3148.824352
3144.689279
3144.376355
3145.918625
3142.342346
3143.526988
3144.711631
3145.762163
3150.07605
3149.025518
3142.677622
3146.142143
3146.522122
3144.778686
3147.215026
3144.532817
3145.158666
3142.342346
3139.70484
3138.006108
3145.091611
3145.136314
3138.766067
3135.614471
3138.877826
3141.001241
3138.654308
3142.856436
3145.650404
3144.599872
3136.419134
3139.548378
3147.147971
3148.578483
3151.417154
3151.372451
3148.712593
3142.968195
3140.688317
3134.653346
3130.942956
3129.400686
3131.054715
3125.824407
3127.590195
3133.826331
3133.893387
3134.251015
3128.819541
3133.088724
3135.48036
3126.472607
3127.65725
3132.105247
3130.182997
3128.573671
3128.260747
3132.172302
3134.049849
3132.753448
3131.546453
3136.37443
3141.828256
3137.089686
3135.145084
3133.848683
3135.659174
3134.876863
3133.647517
3134.630994
3138.274329
3139.70484
3133.982794
3135.882692
3140.643613
3138.520198
3133.401648
3138.542549
3141.202407
3137.983756
3136.620299
3131.725267
3131.255881
3135.972099
3136.419134
3134.273366
3135.234491
3135.48036
3134.854512
3132.507578
3134.742753
3135.100381
3138.654308
3139.235454
3138.028459
3136.88852
3138.989584
3135.72623
3135.770933
3136.262672
3138.207273
3135.122733
3131.63586
3135.949747
3137.64848
3133.893387
3135.659174
3139.883654
3140.665965
3137.201445
3136.553244
3137.424962
3139.302509
3137.64848
3135.592119
3136.061506
3138.877826
3139.637785
3135.390953
3137.78259
3143.370526
3141.560035
3137.760238
3134.96627
3137.156741
3138.900177
3138.81077
3137.64848
3141.62709
3138.766067
3134.362773
3133.669869
3128.03723
3128.394857
3139.526026
3155.216951
3155.529875
3164.984663
3171.757242
3174.215934
3179.736814
3181.144974
3173.478326
3168.471535
3167.353948
3166.705747
3166.839858
3167.800983
3162.034233
3168.225666
3173.210105
3167.108079
3164.93996
3168.695053
3171.801945
3169.075032
3166.839858
3167.488059
3174.439451
3170.371434
3163.934131
3164.135297
3164.582332
3160.737832
3153.071183
3154.211122
3161.900122
3169.186791
3171.444317
3169.164439
3171.489021
3175.489983
3174.305341
3173.165402
3175.221762
3177.814564
3172.539553
3171.332559
3171.198448
3171.019634
3166.906913
3164.917608
3172.807774
3173.366567
3167.823335
3162.727137
3165.409346
3170.170268
3167.957445
3166.258713
3169.410309
3169.522067
3172.62896
3169.253846
3171.35491
3174.126527
3174.17123
3169.142088
3168.158611
3173.075995
3175.042948
3171.958407
3167.800983
3169.43266
3172.293684
3172.204277
3165.58816
3165.275236
3168.851515
3167.443355
3165.431698
3168.091556
3168.829163
3164.135297
3163.710614
3163.263579
3164.895256
3165.029367
3163.710614
3163.285931
3161.09546
3165.632864
3162.570675
3159.530837
3159.329672
3161.453088
3158.972044
3158.212085
3162.391861
3166.191657
3164.358814
3162.794192
3166.325768
3166.593989
3166.906913
3164.93996
3165.834029
3165.945788
3165.699919
3166.281064
3164.537628
3167.979797
3164.828201
3160.3355
3164.157649
3169.231495
3166.146954
3161.900122
3164.649387
3166.258713
3168.359777
3165.811678
3161.117811
3165.07407
3169.410309
3164.895256
3160.402556
3163.822372
3166.99632
3164.515276
3163.800021
3165.297588
3168.963274
3167.443355
3161.207218
3165.834029
3170.505544
3167.108079
3162.525971
3160.111983
3163.643558
3167.063375
3164.381166
3163.867076
3163.911779
3165.45405
3155.529875
3160.134335
3175.601742
3185.101233
3183.916591
3185.212992
3199.138129
3208.190585
3209.352876
3207.944716
3209.397579
3211.118664
3209.956373
3207.967068
3205.620135
3214.046742
3215.834882
3211.230422
3212.303306
3211.83392
3211.096312
3209.15171
3208.704675
3213.175024
3212.817396
3209.866966
3204.860175
3203.563774
3205.262507
3217.958297
3230.363516
3232.330469
3238.141923
3239.438324
3240.377097
3244.869798
3246.501475
3248.624891
3244.825094
3241.226463
3242.72403
3241.762905
3243.863969
3237.136094
3239.617138
3241.829961
3243.707507
3241.829961
3243.059307
3242.120533
3238.857179
3238.499551
3242.098181
3241.986423
3239.594786
3237.605481
3241.248815
3244.266301
3244.333356
3242.992251
3241.651147
3242.433458
3242.411106
3242.142885
3243.282824
3245.652109
3246.836751
3243.506341
3242.098181
3247.082621
3244.355708
3245.227426
3244.936853
3245.629757
3243.48399
3238.834827
3238.991289
3238.544254
3235.571472
3232.196359
3227.882472
3226.071981
3223.322716
3221.802798
3222.071018
3227.904824
3231.905786
3237.806647
3235.705583
3239.751248
3248.691946
3245.897978
3230.743495
3216.505434
3213.331486
3207.363571
3191.47148
3178.708634
3167.599817
3159.083803
3148.220855
3139.928358
3140.867131
3143.526988
3144.801038
3142.208236
3146.678584
3150.634843
3143.258768
3143.974023
3141.716497
3149.740773
3146.142143
3143.303471
3142.744677
3148.220855
3146.008032
3143.817561
3143.638747
3147.684413
3148.936111
3142.632919
3142.856436
3146.075087
3144.868093
3136.843817
3139.593081
3140.710669
3141.381221
3140.241282
3140.263634
3146.142143
3148.064393
3140.889483
3135.21214
3128.059581
3125.377372
3125.533834
3122.78457
3124.125674
3128.260747
3131.211177
3130.98766
3128.461913
3129.266575
3131.233529
3130.786494
3128.953651
3134.429828
3136.217968
3130.540625
3128.059581
3133.468703
3133.915738
3134.474532
3132.552282
3133.334593
3133.111076
3132.01584
3132.127599
3131.546453
3138.028459
3139.19075
3130.98766
3124.818578
3129.937128
3132.887558
3131.211177
3130.182997
3129.06541
3131.971137
3131.345288
3128.148988
3134.072201
3134.072201
3127.366677
3123.656288
3120.48234
3137.40261
3149.785477
3150.746602
3159.352024
3168.248018
3175.892314
3178.798041
3182.910762
3185.749434
3183.26839
3175.825259
3175.981721
3180.295608
3180.563829
3177.948675
3177.702806
3178.686282
3184.028349
3180.116794
3178.485117
3180.295608
3181.524954
3179.625056
3180.809698
3183.491908
3186.285876
3181.614361
3176.786384
3178.999207
3182.977817
3181.971989
3178.507469
3180.541477
3185.928248
3185.950599
3185.101233
3183.223687
3184.765957
3185.615323
3183.357797
3180.027387
3184.698902
3189.169251
3180.742643
3181.055567
3181.793175
3183.491908
3180.675588
3182.039044
3180.899105
3178.842745
3179.468594
3179.558001
3179.848573
3183.26839
3185.660027
3178.619227
3177.658102
3181.234381
3182.575486
3181.435547
3179.982684
3181.793175
3182.150803
3175.95937
3178.283951
3181.659064
3179.826221
3177.389881
3177.166364
3178.440413
3182.307265
3186.062358
3182.731948
3176.786384
3169.052681
3165.051718
3157.563884
3159.843762
3162.12364
3156.111021
3158.010919
3160.559018
3162.235399
3157.00509
3151.841837
3150.523084
3149.360794
3149.941939
3144.108134
3143.41523
3150.970119
3156.647462
3158.145029
3158.904989
3159.709651
3164.917608
3162.905951
3160.067279
3161.073108
3162.034233
3163.464745
3166.392823
3162.928303
3157.89916
3155.753393
3163.621207
3170.84082
3173.321864
3171.73489
3168.896218
3166.638692
3169.29855
3171.131393
3166.973968
3166.86221
3170.125564
3175.333521
3173.903009
3165.476402
3165.834029
3167.957445
3163.732965
3162.25775
3167.219838
3170.460841
3170.527896
3168.695053
3170.572599
3170.818468
3169.075032
3167.242189
3167.823335
3172.450146
3173.14305
3166.705747
3159.217913
3165.230532
3174.439451
3183.13428
3188.230477
3188.14107
3193.997227
3198.735797
3204.502547
3209.263469
3209.15171
3203.608478
3202.803815
3207.497681
3207.698847
3204.904879
3203.653181
3206.603611
3209.129358
3205.016637
3204.368437
3206.156576
3211.029257
3207.050646
3202.826166
3204.502547
3208.905841
3209.464635
3206.067169
3205.933059
3209.308172
3209.308172
3207.967068
3207.832957
3208.570565
3207.74355
3205.955411
3205.754245
3208.704675
3205.620135
3205.843652
3200.635696
3196.612382
3207.654143
3216.483082
3221.266356
3224.485007
3233.224539
3238.834827
3241.718202
3243.059307
3243.126362
3241.472333
3234.00685
3231.212882
3234.699754
3236.376135
3237.449019
3235.057382
3239.237158
3241.762905
3241.159408
3240.533559
3241.360574
3241.829961
3239.684193
3235.884397
3239.214806
3241.919368
3240.555911
3238.410144
3241.964071
3240.935891
3239.7736
3235.191492
3236.666708
3239.035993
3239.103048
3237.896054
3236.778466
3237.583129
3240.466504
3237.47137
3232.21871
3241.472333
3249.965996
3243.908673
3231.302289
3221.467521
3218.025353
3212.750341
3208.212937
3203.921402
3208.011771
3210.872794
3210.381056
3211.319829
3216.32662
3210.023428
3206.357742
3207.162405
3213.219728
3214.203204
3217.22069
3213.5103
3217.332449
3218.986478
3213.085617
3213.264431
3217.958297
3218.673553
3216.013696
3216.013696
3213.689114
3215.231385
3213.219728
3212.012733
3210.761036
3212.213899
3211.45394
3208.525861
3207.274164
3212.727989
3216.348972
3208.615268
3209.241117
3211.543347
3209.621097
3206.447149
3200.300419
3181.971989
3175.355873
3165.185829
3153.92055
3150.701898
3147.125619
3142.945843
3134.765105
3133.379296
3133.066372
3132.664041
3134.251015
3131.054715
3133.55811
3138.095515
3136.083858
3132.90991
3137.156741
3134.876863
3135.569767
3138.028459
3139.123695
3140.621262
3138.67666
3136.843817
3139.05664
3142.342346
3136.039154
3135.72623
3136.88852
3137.894349
3135.927395
3133.535759
3136.508541
3135.256843
3137.089686
3137.536721
3135.837988
3139.123695
3136.463837
3133.80398
3135.949747
3138.229625
3138.654308
3137.939052
3137.156741
3136.262672
3140.442448
3136.732058
3134.854512
3137.603776
3138.833122
3135.614471
3130.786494
3137.201445
3138.81077
3132.52993
3132.105247
3127.411381
3124.349192
3126.785532
3140.509503
3148.086744
3156.602759
3161.788364
3165.386995
3168.963274
3177.680454
3179.602704
3175.087652
3176.719329
3178.641579
3179.736814
3178.373358
3175.154707
3177.680454
3179.356835
3174.886486
3171.086689
3174.03712
3178.216896
3176.451108
3173.79125
3172.517201
3176.071128
3176.249942
3174.931189
3172.606608
3174.864134
3176.182887
3173.52303
3172.360739
3174.864134
3176.272294
3172.62896
3176.451108
3178.730986
3176.339349
3173.724195
3170.863172
3173.992416
3179.379187
3178.619227
3175.7135
3170.885524
3175.311169
3171.198448
3162.324806
3173.880657
3191.873812
3194.198393
3199.629867
3211.051608
3215.790178
3224.574414
3227.770713
3226.161388
3229.737667
3228.061286
3226.384905
3224.01562
3222.518053
3221.06519
3222.294536
3220.528748
3222.272184
3227.077809
3225.446132
3225.848463
3224.060324
3223.836806
3225.28967
3221.802798
3223.993268
3225.80376
3223.456827
3224.887338
3226.675478
3231.302289
3233.716277
3230.967013
3228.731838
3226.340202
3230.452923
3229.178873
3226.675478
3230.139998
3233.11278
3230.117646
3224.820283
3225.334373
3229.64826
3233.582167
3230.989365
3230.989365
3234.364478
3230.095295
3225.982574
3230.698792
3233.805684
3231.525806
3236.666708
3235.9291
3227.457789
3219.299402
3210.42576
3209.464635
3216.997172
3217.332449
3210.805739
3213.040914
3214.337315
3215.410199
3216.32662
3212.571527
3210.515167
3210.917498
3202.267373
3196.500623
3196.455919
3199.294591
3196.768844
3200.211012
3204.569603
3207.117701
3203.608478
3203.317905
3209.419931
3215.007867
3213.197376
3207.698847
3208.905841
3212.549175
3214.002039
3212.929155
3211.364533
3215.007867
3217.444207
3214.493777
3210.984553
3213.107969
3215.723123
3211.990382
3212.526824
3212.8621
3215.790178
3213.711466
3210.805739
3213.107969
3220.461693
3221.109893
3221.020486
3214.113797
3204.815472
3195.897126
3192.253791
3193.25962
3198.221707
3200.389826
3199.607515
3196.858251
3199.227536
3199.607515
3198.244059
3195.673608
3197.729969
3199.607515
3197.640562
3194.824242
3197.215879
3198.177004
3199.249887
3193.661951
3187.62698
3193.706655
3195.539498
3190.689169
3192.209088
3193.818413
3196.72414
3194.108986
3192.276143
3193.371379
3196.500623
3195.405387
3192.030274
3193.706655
3195.271277
3196.277105
3196.008884
3198.981666
3202.49089
3197.662914
3193.483137
3200.032198
3201.797986
3199.182832
3197.193527
3196.142995
3199.808681
3203.072036
3204.189623
3202.155614
3200.233364
3194.623076
3185.481213
3179.982684
3181.010864
3177.50164
3174.864134
3175.937018
3177.769861
3182.866059
3180.385015
3178.194544
3180.295608
3180.809698
3178.753338
3174.305341
3177.680454
3182.575486
3179.490945
3176.60757
3177.412233
3181.748471
3178.283951
3174.193582
3171.958407
3176.160535
3178.507469
3172.919532
3175.668797
3181.793175
3179.558001
3176.764032
3174.774727
3173.031291
3177.233419
3177.12166
3175.154707
3176.160535
3177.859268
3176.942846
3175.534687
3177.479288
3181.077919
3185.280047
3175.981721
3165.252884
3164.604683
3160.84959
3155.887503
3152.735907
3149.494904
3143.884616
3143.504637
3147.617358
3147.863227
3145.940977
3143.057602
3144.465762
3144.689279
3145.225721
3146.432715
3145.762163
3146.991509
3144.599872
3144.085782
3140.397744
3139.548378
3142.409401
3143.92932
3137.536721
3138.006108
3140.800076
3139.347212
3143.41523
3139.101343
3140.822427
3144.57752
3142.744677
3144.488113
3144.9575
3145.695108
3143.012898
3143.012898
3144.376355
3145.046907
3145.896273
3145.024555
3145.762163
3149.338442
3147.103268
3140.97889
3137.670831
3146.008032
3148.511427
3146.969157
3143.705802
3146.767991
3142.252939
3138.967233
3133.625166
3135.994451
3135.279195
3129.981831
3129.400686
3127.433732
3130.004183
3132.39582
3131.613509
3138.453142
3142.14118
3140.844779
3141.470628
3145.203369
3146.388012
3144.890445
3145.449238
3143.750506
3148.936111
3148.176151
3141.62709
3137.044983
3143.638747
3147.595006
3139.660137
3138.900177
3148.600834
3147.550302
3146.969157
3147.930282
3142.90114
3134.943919
3131.211177
3123.209253
3122.248128
3131.12177
3132.261709
3132.954613
3134.541587
3135.145084
3131.300584
3127.724305
3129.400686
3131.524102
3130.98766
3127.858416
3121.666982
3127.076105
3130.250052
3129.937128
3125.176206
3127.031401
3129.221872
3129.624203
3129.043058
3126.76318
3125.533834
3128.707782
3126.3832
3123.186901
3125.444427
3127.813712
3124.349192
3126.405552
3126.450256
3126.76318
3127.500788
3128.148988
3124.572709
3126.852587
3127.389029
3123.656288
3128.663078
3127.925471
3131.010012
3135.368602
3142.968195
3142.051773
3134.049849
3132.060544
3133.736924
3136.217968
3135.010974
3136.665003
3134.586291
3134.407477
3133.401648
3131.12177
3133.602814
3135.793285
3137.559073
3133.289889
3135.905044
3137.469666
3135.279195
3132.731096
3129.914776
3133.736924
3134.83216
3136.866169
3135.905044
3134.496884
3135.703878
3135.301546
3133.289889
3135.592119
3137.514369
3136.977927
3135.659174
3130.630032
3135.614471
3138.095515
3136.195616
3136.150913
3132.596985
3127.031401
3116.459026
3111.586346
3116.749599
3119.632974
3121.801093
3122.695163
3124.215081
3129.445389
3126.874939
3121.085837
3123.142198
3123.745695
3122.985735
3123.477474
3124.349192
3126.897291
3126.047924
3123.231604
3122.069314
3122.91868
3126.159683
3124.416247
3124.32684
3126.3832
3127.321974
3126.070276
3126.897291
3125.019744
3120.437636
3125.466779
3124.125674
3125.600889
3129.892424
3125.533834
3124.013916
3117.263689
3124.684468
3132.507578
3134.183959
3136.419134
3138.967233
3133.915738
3137.447314
3139.235454
3151.193637
3154.300529
3149.070221
3153.67468
3162.436564
3164.336463
3157.340367
3158.569712
3160.894294
3162.034233
3159.396727
3158.234436
3159.128506
3158.770878
3160.983701
3160.179038
3160.179038
3164.269407
3161.22957
3159.553189
3159.6873
3161.006053
3161.028404
3161.74366
3161.989529
3165.029367
3163.107117
3158.569712
3159.642596
3157.541532
3153.786439
3148.891407
3147.39384
3147.371488
3146.119791
3143.191712
3145.896273
3152.914721
3159.039099
3160.089631
3159.910817
3165.252884
3167.778631
3163.978835
3161.073108
3162.682433
3168.560942
3167.108079
3164.358814
3163.308282
3168.0245
3168.762108
3164.582332
3166.661044
3167.935093
3165.364643
3165.565808
3163.554151
3163.352986
3161.766012
3161.430736
3166.929265
3169.499716
3170.393785
3169.343253
3160.514314
3154.121715
3155.284006
3153.071183
3143.236416
3138.184922
3143.54934
3142.476456
3142.364698
3143.661099
3146.097439
3146.052736
3143.683451
3141.649442
3145.002204
3145.940977
3142.297643
3139.347212
3143.482285
3147.840875
3141.001241
3140.107172
3145.538645
3146.87975
3143.012898
3143.437581
3147.416192
3147.729116
3138.16257
3129.624203
3127.098456
3129.512445
3129.221872
3129.490093
3132.90991
3134.630994
3134.83216
3133.066372
3132.52993
3133.155779
3134.496884
3130.384163
3132.060544
3136.866169
3139.168398
3139.950709
3139.458971
3138.922529
3144.354003
3141.135352
3138.184922
3140.665965
3143.54934
3141.157704
3141.023593
3141.269462
3143.795209
3141.761201
3140.621262
3145.359831
3146.589177
3143.683451
3141.671794
3137.089686
3140.665965
3144.376355
3141.850608
3141.314166
3142.834084
3145.47159
3142.319994
3137.871997
3142.00707
3143.370526
3141.560035
3137.022631
3138.989584
3140.576558
3141.358869
3137.089686
3135.189788
3139.101343
3137.089686
3134.921567
3137.737887
3141.180055
3141.135352
3133.915738
3135.86034
3141.940015
3142.90114
3141.269462
3138.006108
3134.407477
3141.917663
3150.545436
3154.702861
3166.973968
3164.269407
3163.554151
3167.778631
3170.751413
3168.739756
3165.521105
3164.04589
3163.196524
3163.978835
3165.029367
3166.035195
3165.565808
3168.40448
3167.085727
3162.995358
3163.800021
3168.292721
3169.276198
3162.213047
3163.375338
3170.349082
3171.73489
3168.940922
3168.91857
3169.29855
3174.595913
3171.019634
3170.304378
3170.170268
3165.051718
3163.576503
3170.125564
3178.306303
3184.408329
3183.044873
3181.435547
3179.245076
3182.150803
3180.072091
3178.708634
3177.859268
3179.200373
3181.457899
3179.222724
3174.752375
3175.333521
3175.869963
3177.12166
3179.446242
3177.032253
3176.786384
3174.774727
3172.070166
3178.283951
3181.592009
3177.144012
3171.287855
3170.214971
3177.278123
3176.786384
3176.831088
3173.031291
3170.058509
3164.716442
3159.776707
3155.641634
3159.955521
3163.576503
3160.894294
3162.235399
3161.967178
3162.615378
3174.975893
3180.921457
3187.62698
3196.321809
3200.255716
3202.781463
3208.950544
3214.069094
3214.605536
3211.230422
3209.844614
3212.169196
3210.805739
3207.765902
3206.245983
3207.721199
3212.638582
3210.448111
3204.100216
3207.452978
3211.07396
3209.486986
3206.670667
3208.525861
3210.850443
3208.50351
3207.22946
3209.084655
3213.242079
3210.492815
3207.631792
3209.621097
3208.794082
3203.429664
3206.558908
3220.595803
3227.793065
3227.256623
3225.557891
3233.805684
3237.247853
3240.220635
3239.371269
3235.303251
3237.426667
3237.873702
3235.347955
3236.219673
3235.057382
3233.604519
3235.41501
3231.905786
3235.54912
3238.588958
3233.559815
3234.342126
3233.604519
3235.727934
3238.924234
3235.727934
3231.883434
3236.82317
3240.533559
3234.610347
3232.643394
3238.164274
3241.31587
3237.113742
3235.325603
3238.723068
3239.594786
3237.784295
3237.225501
3239.930062
3242.20994
3240.645318
3238.521902
3240.019469
3241.718202
3242.165237
3238.521902
3230.698792
3234.722106
3244.266301
3249.228388
3246.993214
3249.317795
3251.530618
3252.71526
3255.01749
3258.683176
3262.035938
3255.553932
3251.68708
3252.491743
3255.285711
3255.218655
3250.971824
3252.089411
3254.548103
3251.843542
3250.033051
3252.290577
3253.139943
3255.598635
3252.648205
3252.536446
3256.760926
3254.212827
3250.211865
3250.815362
3254.391641
3257.654996
3252.111763
3248.155504
3254.995138
3256.671519
3254.101068
3253.318757
3253.117592
3255.576283
3253.810496
3251.530618
3251.038879
3255.218655
3252.111763
3252.156467
3254.011661
3256.93974
3259.912522
3247.417897
3233.738629
3229.983536
3219.411161
3204.480196
3191.85146
3182.7543
3171.645483
3157.094497
3145.136314
3142.342346
3137.156741
3129.020706
3126.316145
3131.166474
3131.747619
3131.12177
3130.071238
3130.250052
3133.80398
3137.13439
3132.887558
3129.825369
3131.725267
3129.244224
3127.925471
3130.495921
3134.787456
3135.055677
3134.049849
3128.55132
3128.663078
3130.719439
3130.428866
3126.651421
3128.439561
3132.306413
3130.004183
3130.831198
3135.614471
3137.536721
3134.251015
3134.519235
3136.486189
3137.983756
3132.686392
3129.5795
3133.781628
3135.122733
3130.115942
3122.40459
3123.81275
3123.566881
3122.337535
3124.080971
3124.863282
3121.532872
3117.420151
3132.641689
3146.186846
3152.378279
3158.502657
3165.945788
3172.807774
3180.250905
3186.174117
3190.197431
3184.453033
3182.37432
3183.201335
3184.385977
3186.665855
3182.709596
3184.229515
3186.710559
3186.330579
3184.251867
3185.257695
3187.783442
3187.179945
3185.503565
3184.654198
3187.403463
3184.698902
3179.692111
3183.13428
3180.116794
3181.010864
3183.871887
3185.05653
3185.972951
3181.033216
3182.262562
3185.212992
3184.073053
3182.799003
3181.994341
3185.212992
3186.5988
3188.90103
3188.968085
3186.911724
3178.39571
3169.276198
3161.117811
3152.825314
3150.299567
3149.450201
3140.464799
3142.856436
3143.258768
3142.677622
3142.342346
3141.604738
3142.52116
3145.47159
3142.118829
3141.62709
3141.917663
3145.069259
3144.242244
3145.449238
3144.152837
3148.019689
3149.897236
3149.003166
3148.086744
3152.847666
3151.081878
3146.49977
3145.918625
3151.305396
3152.467686
3150.098401
3152.244169
3153.92055
3156.580407
3150.07605
3151.215989
3155.775744
3156.334538
3154.769916
3153.227646
3153.451163
3153.629977
3153.205294
3150.880712
3152.735907
3158.100326
3155.418117
3150.456029
3154.546398
3156.781573
3154.032308
3141.358869
3143.124657
3163.598855
3171.757242
3176.652274
3184.81066
3188.230477
3197.461748
3201.216841
3209.799911
3212.48212
3211.141015
3207.810606
3204.100216
3206.782425
3211.230422
3209.375228
3206.670667
3209.911669
3210.582222
3210.403408
3208.794082
3208.682324
3210.962201
3212.079789
3207.832957
3209.352876
3212.48212
3213.5103
3209.755207
3208.168233
3207.452978
3207.050646
3207.140053
3203.317905
3206.044818
3208.168233
3204.860175
3203.183794
3206.447149
3206.625963
3214.225556
3210.291649
3202.647353
3193.863117
3188.364588
3181.793175
3173.590085
3172.360739
3169.81264
3167.689224
3169.589122
3173.075995
3174.484155
3171.2208
3171.913704
3173.79125
3172.62896
3171.399614
3167.3763
3173.925361
3176.227591
3173.992416
3173.701843
3173.008939
3174.327692
3170.058509
3170.058509
3173.590085
3172.651311
3171.332559
3171.243152
3170.304378
3168.40448
3173.701843
3167.756279
3166.258713
3168.739756
3168.292721
3160.491962
3155.216951
3155.060489
3158.122678
3156.736869
3155.46282
3162.101288
3165.834029
3168.27037
3165.766974
3168.829163
3172.740718
3169.522067
3165.789326
3170.684358
3171.846649
3170.282027
3170.84082
3170.416137
3173.925361
3171.533724
3167.353948
3166.661044
3168.158611
3175.601742
3177.88162
3167.175134
3159.977872
3159.575541
3155.46282
3144.756334
3136.866169
3138.475494
3137.670831
3135.189788
3139.615433
3145.449238
3142.230587
3139.861302
3139.995413
3139.637785
3140.531855
3139.838951
3138.81077
3142.789381
3142.923491
3143.616395
3140.330689
3140.665965
3142.744677
3138.654308
3133.714573
3139.503674
3139.391916
3137.961404
3135.994451
3136.217968
3139.503674
3137.894349
3132.127599
3133.356945
3139.593081
3140.59891
3136.329727
3136.352078
3143.750506
3142.230587
3141.448276
3142.252939
3140.665965
3145.181018
3142.409401
3140.330689
3143.03525
3147.304433
3143.102305
3139.526026
3142.476456
3144.532817
3143.526988
3142.387049
3142.163532
3145.404535
3145.806866
3142.454105
3142.923491
3144.82339
3142.185884
3142.789381
3142.632919
3145.382183
3146.477419
3144.197541
3142.90114
3146.052736
3144.979852
3143.728154
3142.319994
3143.482285
3147.438544
3145.002204
3143.638747
3145.806866
3147.371488
3146.969157
3145.762163
3142.230587
3147.550302
3149.897236
3141.895311
3144.82339
3148.936111
3147.125619
3147.572654
3151.10423
3149.338442
3145.426887
3143.482285
3136.709706
3137.983756
3148.600834
3150.567788
3148.332614
3153.495866
3158.100326
3156.915683
3153.92055
3156.178076
3167.331596
3168.985625
3170.930227
3173.992416
3177.255771
3171.287855
3166.236361
3170.796117
3176.764032
3178.283951
3169.410309
3168.605646
3174.886486
3175.601742
3173.433623
3172.517201
3172.852477
3172.785422
3174.707672
3168.739756
3169.276198
3177.50164
3172.405442
3165.386995
3168.113907
3172.494849
3170.773765
3166.303416
3169.924399
3170.863172
3168.337425
3168.292721
3170.773765
3172.62896
3170.371434
3166.817506
3167.197486
3171.176096
3169.007977
3167.957445
3165.610512
3169.745585
3170.907875
3171.019634
3167.845686
3171.73489
3172.874829
3172.24898
3172.293684
3171.109041
3170.147916
3164.492925
3168.40448
3177.456937
3184.587143
3184.140108
3185.302399
3191.583239
3189.616286
3190.30919
3184.050701
3181.480251
3186.21882
3188.275181
3183.044873
3183.111928
3192.030274
3195.114815
3194.80189
3191.359722
3189.504527
3190.689169
3193.952524
3192.589068
3191.963219
3194.980704
3191.538536
3191.940867
3193.527841
3194.511318
3194.399559
3196.21005
3194.220745
3198.892259
3203.273201
3198.780501
3196.612382
3200.658047
3204.591954
3202.043855
3201.730931
3204.547251
3204.726065
3204.234326
3199.629867
3199.451053
3205.955411
3201.663876
3199.898088
3199.182832
3201.239193
3192.969047
3188.722216
3201.820338
3206.84948
3207.721199
3206.536556
3214.516129
3218.472388
3214.650239
3211.409236
3208.727027
3211.141015
3207.22946
3204.077864
3206.223632
3207.60944
3210.738684
3208.481158
3203.429664
3206.983591
3207.296515
3207.855309
3205.843652
3208.950544
3212.415065
3210.202242
3209.688152
3212.571527
3216.997172
3215.007867
3207.564736
3209.53169
3216.974821
3214.940812
3213.89028
3216.304268
3219.746437
3219.187643
3214.650239
3211.297478
3215.074922
3218.137111
3216.460731
3211.230422
3208.436454
3209.174062
3219.634678
3226.742533
3230.005888
3235.124437
3236.465542
3239.147751
3243.6181
3243.327527
3241.539388
3236.554949
3234.498588
3240.980594
3241.874664
3240.131228
3238.588958
3237.963109
3240.15358
3239.326565
3236.756115
3239.281862
3238.588958
3237.963109
3236.890225
3245.450943
3248.759001
3237.091391
3226.764885
3218.852367
3213.532652
3203.474367
3191.583239
3180.653236
3177.680454
3176.674625
3177.009902
3180.116794
3179.692111
3178.798041
3179.80387
3180.586181
3182.575486
3183.78248
3180.876753
3176.227591
3177.434585
3180.094442
3180.675588
3176.09348
3179.200373
3179.960332
3178.194544
3178.082785
3178.462765
3182.597838
3182.195506
3178.105137
3173.701843
3176.451108
3176.875791
3176.115832
3175.288817
3178.105137
3180.362663
3178.351006
3171.891352
3174.640617
3179.960332
3179.580352
3177.278123
3171.086689
3169.097384
3164.93996
3161.855419
3167.108079
3174.819431
3173.634788
3173.590085
3178.9098
3180.854402
3176.339349
3176.384053
3178.574524
3186.844669
3188.610457
3184.207163
3181.815527
3182.821355
3180.809698
3181.703768
3184.877716
3184.698902
3183.357797
3183.13428
3182.955466
3180.206201
3183.469556
3184.609495
3184.654198
3184.16246
3185.503565
3179.893277
3175.221762
3179.088614
3177.434585
3170.617303
3168.091556
3163.867076
3168.560942
3173.366567
3170.974931
3170.527896
3179.490945
3182.955466
3177.211067
3176.629922
3183.894239
3188.632809
3184.922419
3187.224649
3186.107062
3179.356835
3180.921457
3191.359722
3198.780501
3202.200318
3202.557946
3202.043855
3203.921402
3207.721199
3206.424797
3203.854347
3207.967068
3205.284858
3208.458806
3204.837823
3202.468539
3206.603611
3207.989419
3203.116739
3203.027332
3204.882527
3206.558908
3204.27903
3205.530728
3205.418969
3206.514204
3200.680399
3201.283896
3201.932097
3204.27903
3202.848518
3201.932097
3203.943754
3204.323733
3203.496719
3202.379132
3204.435492
3204.636658
3202.334428
3201.015675
3201.485062
3209.196414
3206.603611
3202.580297
3203.116739
3206.625963
3209.174062
3205.642486
3203.273201
3207.810606
3209.129358
3204.167271
3201.395655
3203.228498
3207.050646
3203.183794
3205.061341
3207.385922
3207.900012
3206.469501
3200.747454
3201.909745
3207.251812
3205.106044
3201.596821
3202.021504
3205.843652
3209.53169
3209.844614
3207.74355
3208.704675
3210.805739
3207.475329
3199.361646
3208.861137
3224.708524
3226.586071
3226.094332
3228.75419
3235.482065
3242.276995
3240.086524
3241.762905
3243.729859
3240.399449
3238.678365
3239.013641
3240.265338
3242.500513
3238.834827
3238.74542
3239.907711
3239.170103
3239.035993
3239.907711
3240.444152
3239.550083
3236.979632
3234.543292
3236.353783
3238.544254
3239.192455
3238.633661
3239.080696
3247.015565
3250.14481
3231.749324
3217.891242
3214.761998
3205.597783
3196.545326
3191.069149
3186.08471
3177.725157
3167.823335
3166.48223
3170.952579
3175.892314
3173.254809
3170.751413
3171.891352
3174.193582
3173.724195
3169.723233
3171.421966
3171.131393
3169.834992
3169.387957
3171.399614
3170.460841
3174.081823
3168.471535
3167.130431
3168.0245
3169.164439
3168.605646
3172.293684
3174.662968
3171.712538
3168.002149
3168.002149
3172.427794
3173.433623
3169.186791
3169.253846
3171.466669
3174.752375
3170.572599
3163.509448
3170.974931
3174.372396
3171.176096
3168.382128
3169.745585
3174.707672
3173.65714
3175.557038
3174.282989
3174.819431
3177.166364
3175.422928
3176.048777
3176.428756
3179.379187
3171.198448
3169.007977
3171.533724
3175.758204
3174.506506
3174.327692
3179.960332
3174.148878
3167.577465
3160.737832
3159.016747
3161.140163
3157.675643
3154.099364
3158.837933
3162.794192
3162.883599
3165.96814
3167.711576
3172.919532
3171.2208
3169.700881
3172.338387
3170.125564
3171.131393
3168.27037
3169.745585
3172.159573
3172.874829
3169.276198
3165.811678
3163.978835
3166.929265
3167.622169
3164.761146
3169.656178
3171.377262
3169.834992
3164.42587
3163.66591
3166.504582
3166.325768
3164.917608
3164.291759
3167.577465
3166.728099
3165.923436
3164.135297
3168.091556
3168.78446
3161.944826
3162.973006
3166.214009
3168.382128
3165.051718
3161.587198
3163.978835
3162.235399
3160.871942
3161.274274
3160.469611
3162.593026
3163.509448
3162.458916
3163.062413
3162.727137
3158.457954
3158.145029
3156.446297
3160.044928
3161.453088
3154.501695
3159.664948
3171.712538
3177.479288
3178.887448
3179.602704
3178.038082
3181.748471
3178.730986
3178.060434
3179.781518
3181.122623
3178.328655
3177.300474
3182.307265
3183.938942
3183.961294
3179.312131
3179.334483
3184.005998
3181.793175
3178.798041
3181.055567
3180.183849
3182.37432
3180.072091
3177.546344
3181.681416
3184.877716
3181.010864
3177.009902
3180.250905
3182.150803
3182.150803
3180.139146
3180.899105
3181.636713
3180.429719
3175.311169
3178.663931
3183.022521
3181.636713
3176.60757
3176.764032
3177.948675
3178.127489
3179.28978
3180.295608
3181.368492
3183.849535
3180.139146
3173.366567
3176.60757
3183.313094
3181.949637
3180.027387
3182.664893
3184.453033
3180.586181
3180.362663
3184.385977
3185.145937
3181.413195
3177.099309
3180.072091
3183.491908
3180.31796
3181.703768
3187.11289
3184.095405
3172.472498
3168.40448
3161.810715
3160.380204
3164.157649
3162.056585
3163.844724
3168.560942
3163.598855
3162.078936
3163.576503
3163.487096
3166.48223
3164.269407
3163.800021
3163.576503
3165.565808
3166.705747
3166.10225
3162.481268
3164.872904
3166.772803
3162.905951
3158.525009
3150.947768
3153.54057
3170.147916
3177.903971
3185.257695
3191.382073
3191.247963
3193.729006
3200.188661
3204.815472
3206.827129
3207.810606
3211.744513
3210.693981
3208.279992
3206.20128
3201.529765
3203.876698
3204.480196
3202.468539
3204.949582
3203.966105
3204.480196
3200.590992
3203.541422
3204.323733
3200.456882
3198.981666
3197.908783
3195.092463
3196.947658
3192.119681
3191.583239
3194.757187
3199.294591
3198.847556
3198.467576
3200.121605
3204.547251
3205.843652
3201.283896
3203.697885
3207.676495
3206.782425
3204.569603
3202.155614
3205.441321
3206.000114
3203.049684
3202.714408
3205.195451
3203.25085
3205.1731
3205.977762
3208.302344
3208.995248
3207.028294
3201.887393
3204.256678
3207.900012
3205.731893
3203.206146
3199.629867
3200.903916
3204.480196
3200.814509
3202.647353
3205.888355
3203.25085
3204.860175
3203.25085
3201.172137
3202.557946
3197.014713
3196.299457
3204.122568
3203.183794
3194.421911
3195.964181
3202.49089
3203.630829
3196.545326
3187.068187
3190.286838
3203.697885
3206.313039
3211.386885
3221.378114
3225.915519
3225.088504
3224.105027
3223.725048
3224.172082
3222.763923
3222.942736
3223.948565
3227.167216
3224.90969
3224.708524
3229.290632
3230.743495
3228.418914
3228.642431
3226.519016
3226.83194
3226.027277
3222.316888
3227.435437
3229.804722
3231.168178
3228.083638
3228.508321
3229.223577
3231.302289
3230.184702
3224.060324
3227.793065
3229.871777
3229.827074
3228.687135
3226.809588
3228.597728
3229.022411
3226.675478
3224.082675
3227.413085
3226.943699
3226.541367
3226.161388
3222.450998
3225.826112
3223.032143
3224.060324
3227.368382
3226.049629
3229.625908
3234.744458
3227.167216
3216.438379
3207.788254
3199.428701
3191.382073
3191.247963
3182.687245
3167.666872
3166.817506
3170.952579
3172.316035
3172.450146
3173.970064
3174.439451
3174.148878
3172.360739
3168.896218
3171.533724
3172.785422
3170.796117
3173.388919
3173.858306
3176.831088
3177.792213
3173.321864
3171.466669
3178.283951
3175.601742
3171.310207
3167.555114
3165.252884
3165.677567
3169.320902
3171.35491
3171.690186
3174.372396
3172.76307
3169.231495
3171.779593
3171.801945
3171.198448
3170.594951
3172.696015
3171.779593
3167.89039
3165.923436
3167.331596
3168.605646
3170.639654
3169.231495
3172.159573
3175.892314
3175.311169
3167.51041
3164.314111
3163.285931
3166.124602
3162.347157
3161.900122
3167.689224
3167.51041
3166.973968
3164.895256
3166.214009
3171.73489
3166.079899
3162.458916
3165.275236
3168.180963
3165.521105
3160.022576
3163.330634
3169.969102
3166.035195
3158.055622
3150.344271
3148.064393
3153.629977
3156.491
3162.481268
3172.494849
3177.322826
3181.524954
3189.772748
3194.66778
3192.723178
3190.130376
3189.459823
3194.891297
3194.243097
3190.711521
3191.583239
3194.2878
3198.065245
3192.186736
3188.856326
3192.924344
3194.108986
3193.036102
3187.783442
3188.945733
3192.857288
3192.052626
3189.191602
3190.95739
3193.192565
3192.432605
3184.207163
3182.575486
3185.548268
3191.516184
3189.459823
3187.761091
3191.426777
3194.220745
3191.694998
3189.303361
3187.559925
3188.699864
3187.448166
3185.950599
3199.115777
3202.423835
3187.984608
3174.260637
3169.29855
3166.99632
3163.15182
3151.283044
3148.064393
3150.053698
3155.775744
3153.697032
3149.874884
3153.406459
3151.260692
3150.612491
3150.768954
3152.624148
3153.02648
3150.858361
3147.840875
3150.07605
3150.165457
3148.913759
3151.372451
3153.518218
3157.876808
3156.692166
3153.92055
3157.027442
3159.664948
3159.284968
3156.893332
3157.072146
3158.92734
3154.009957
3152.467686
3155.708689
3157.318015
3155.351061
3150.411326
3152.043003
3158.770878
3155.663986
3150.478381
3151.595968
3155.395765
3155.440468
3152.892369
3144.108134
3148.958462
3157.608587
3159.955521
3155.08284
3157.496829
3166.929265
3164.604683
3162.369509
3166.012843
3172.62896
3180.094442
3181.927285
3181.122623
3176.786384
3168.896218
3167.488059
3166.258713
3169.186791
3168.40448
3168.046852
3167.219838
3172.11487
3177.076957
3173.366567
3173.187753
3182.195506
3189.973913
3191.136204
3189.41512
3192.589068
3198.579335
3196.053588
3198.333466
3195.852422
3192.589068
3191.806756
3189.593934
3188.409291
3193.550193
3194.421911
3191.627943
3191.33737
3193.483137
3193.885469
3193.930172
3190.040969
3188.789271
3190.4433
3191.046797
3186.867021
3187.559925
3193.147861
3188.90103
3186.107062
3188.811623
3192.298495
3188.453995
3182.866059
3184.609495
3187.939905
3186.151765
3184.654198
3183.961294
3186.151765
3187.269352
3186.263524
3184.497736
3187.068187
3189.236306
3187.179945
3186.46469
3189.526879
3190.30919
3189.012788
3180.720291
3182.329617
3189.236306
3188.185774
3184.341274
3185.19064
3189.281009
3190.510355
3184.587143
3184.520088
3188.319884
3186.040006
3183.64837
3187.179945
3192.36555
3190.867983
3185.70473
3182.307265
3183.536611
3185.503565
3181.770823
3175.087652
3173.27716
3173.433623
3170.550247
3169.566771
3171.757242
3178.239248
3181.815527
3178.216896
3180.519126
3186.531745
3183.670721
3181.189678
3178.842745
3177.144012
3181.681416
3194.868945
3203.072036
3205.217803
3212.370361
3214.27026
3212.616231
3220.886376
3221.042838
3218.11476
3214.560832
3214.650239
3216.416027
3215.052571
3213.75617
3214.337315
3217.935946
3215.723123
3212.526824
3210.023428
3216.170158
3212.683286
3210.448111
3210.626925
3211.744513
3213.89028
3212.526824
3208.12353
3212.10214
3214.40437
3212.951507
3206.983591
3208.816434
3211.252774
3208.279992
3207.005943
3207.944716
3212.035085
3212.660934
3206.514204
3205.776597
3211.677457
3213.040914
3207.22946
3205.843652
3208.414103
3208.861137
3211.610402
3214.560832
3208.727027
3194.086634
3185.905896
3177.12166
3170.974931
3165.208181
3155.216951
3145.560997
3142.878788
3144.376355
3142.051773
3140.777724
3143.772858
3146.589177
3143.594044
3145.940977
3148.578483
3149.785477
3146.969157
3148.779648
3148.332614
3145.091611
3144.711631
3145.963329
3142.387049
3145.382183
3146.052736
3142.856436
3139.883654
3142.431753
3150.299567
3145.203369
3143.638747
3146.723288
3148.734945
3145.918625
3139.615433
3144.085782
3147.282082
3144.421058
3140.710669
3143.571692
3147.729116
3148.265558
3144.935148
3143.236416
3147.192675
3148.310262
3142.52116
3143.124657
3147.706765
3143.079954
3142.565863
3142.230587
3144.756334
3138.654308
3138.900177
3134.027497
3138.497846
3138.430791
3137.536721
3136.441485
3134.027497
3145.538645
3151.372451
3144.756334
3139.660137
3134.362773
3137.78259
3141.537683
3143.795209
3150.299567
3148.399669
3142.744677
3140.442448
3145.650404
3151.305396
3146.320957
3139.794247
3142.454105
3147.371488
3141.202407
3139.771895
3142.029422
3144.264596
3142.789381
3144.465762
3146.075087
3150.344271
3146.455067
3143.951672
3143.214064
3143.459933
3143.92932
3142.498808
3144.465762
3147.974986
3147.840875
3145.538645
3148.109096
3150.165457
3153.249997
3150.299567
3146.812695
3148.42202
3153.719384
3150.299567
3148.846704
3149.271387
3150.299567
3149.606663
3146.388012
3149.941939
3152.177114
3149.517256
3149.405497
3153.384108
3155.731041
3154.188771
3151.394802
3150.344271
3149.18198
3151.506561
3148.310262
3144.890445
3144.935148
3144.622224
3139.838951
3133.066372
3134.563939
3134.563939
3134.586291
3139.235454
3143.571692
3145.046907
3146.320957
3144.801038
3143.705802
3150.970119
3151.350099
3149.427849
3148.310262
3146.87975
3147.483247
3145.315128
3146.544474
3147.282082
3150.120753
3150.388974
3147.438544
3140.397744
3138.453142
3153.898198
3163.241227
3168.359777
3174.059471
3180.340312
3184.050701
3192.522012
3198.847556
3195.874774
3191.270315
3190.242134
3193.237268
3193.080806
3190.30919
3188.409291
3188.409291
3187.403463
3189.079844
3187.403463
3188.118719
3189.839803
3191.918515
3192.209088
3189.616286
3187.828146
3191.136204
3188.409291
3187.381111
3188.051663
3187.895201
3188.498698
3191.896163
3190.867983
3187.247001
3185.905896
3185.995303
3189.660989
3190.555059
3186.777614
3184.005998
3185.995303
3188.051663
3186.73291
3188.409291
3190.398597
3193.483137
3188.297533
3185.212992
3190.018617
3192.723178
3188.275181
3187.314056
3191.873812
3196.299457
3192.030274
3191.315018
3192.410254
3191.694998
3189.504527
3190.108024
3190.532707
3188.00696
3188.543402
3185.928248
3186.017655
3188.185774
3187.425815
3183.938942
3190.175079
3197.260582
3193.661951
3182.709596
3178.328655
3176.764032
3175.154707
3172.070166
3170.170268
3174.528858
3178.842745
3178.730986
3177.434585
3177.054605
3179.714463
3176.98755
3176.786384
3172.964236
3173.500678
3173.075995
3171.645483
3173.634788
3177.166364
3178.283951
3172.807774
3170.617303
3171.35491
3173.344216
3172.137221
3168.337425
3171.064338
3175.132355
3170.058509
3170.930227
3172.003111
3177.099309
3176.227591
3175.154707
3174.730024
3174.215934
3174.998245
3174.417099
3173.27716
3176.004073
3174.439451
3172.271332
3173.701843
3175.780556
3177.054605
3174.461803
3175.244114
3176.47346
3176.719329
3175.691149
3175.758204
3179.401538
3179.848573
3177.50164
3175.892314
3177.300474
3182.419024
3178.552172
3176.09348
3173.813602
3176.741681
3178.082785
3171.667835
3173.880657
3175.7135
3174.998245
3173.590085
3174.372396
3172.360739
3175.937018
3172.561904
3171.332559
3177.948675
3177.211067
3175.44528
3173.14305
3174.841782
3178.105137
3181.659064
3177.278123
3179.692111
3179.312131
3175.557038
3175.19941
3174.975893
3176.339349
3178.418062
3176.719329
3175.892314
3179.401538
3176.361701
3174.014768
3174.238285
3176.004073
3169.410309
3164.358814
3160.961349
3159.17321
3162.078936
3163.643558
3168.002149
3172.181925
3175.020596
3175.311169
3177.389881
3178.552172
3179.155669
3176.182887
3171.511373
3175.937018
3179.133317
3177.546344
3175.355873
3176.160535
3182.128451
3179.021559
3171.958407
3173.52303
3179.155669
3181.502602
3174.193582
3175.914666
3178.038082
3176.339349
3176.629922
3176.652274
3178.127489
3178.507469
3180.96616
3179.446242
3169.790288
3171.35491
3172.204277
3167.912742
3169.589122
3174.864134
3173.590085
3177.456937
3175.937018
3180.45207
3180.005035
3187.604629
3186.643504
3186.5988
3179.781518
3179.222724
3179.80387
3179.28978
3180.340312
3184.609495
3181.994341
3180.608533
3184.050701
3186.554097
3183.178983
3185.257695
3187.828146
3184.341274
3174.327692
3170.684358
3181.524954
3179.535649
3176.205239
3176.47346
3177.591047
3172.070166
3169.723233
3174.908838
3182.419024
3183.626018
3176.719329
3170.013806
3173.79125
3173.098346
3171.399614
3167.51041
3171.801945
3172.11487
3170.952579
3164.604683
3158.614416
3165.051718
3173.098346
3173.008939
3172.226628
3167.532762
3159.843762
3168.449184
3165.409346
3166.549285
3169.522067
3167.622169
3163.688262
3167.555114
3168.113907
3163.196524
3160.424907
3161.073108
3163.621207
3174.305341
3165.096422
3161.520143
3164.515276
3166.884561
3161.497791
3166.459878
3165.901085
3174.372396
3170.751413
3170.974931
3178.328655
3183.64837
3189.392768
3184.251867
3189.862155
3191.091501
3195.226573
3194.399559
3196.388864
3201.932097
3207.385922
3212.727989
3217.243042
3224.261489
3223.166254
3228.150693
3239.035993
3247.395545
3242.455809
3244.847446
3246.523827
3251.128286
3253.832847
3258.079679
3260.717185
3254.570455
3255.509228
3255.1516
3259.689004
3254.615158
3255.755097
3250.033051
3253.519923
3258.079679
3257.476182
3250.636548
3248.110801
3251.485914
3260.203095
3257.900865
3254.212827
3257.543237
3262.170048
3265.679272
3261.991234
3257.029147
3261.611254
3261.790068
3260.292501
3256.336243
3267.713281
3263.757022
3249.295443
3255.129249
3258.459658
3263.689967
3260.292501
3256.850333
3259.420783
3261.477144
3256.135077
3252.670557
3254.12342
3256.649167
3248.714298
3251.038879
3250.837714
3249.317795
3252.514094
3243.953376
3242.925196
3245.070964
3247.172027
3256.492705
3257.900865
3261.208923
3257.275016
3262.058289
3264.896961
3262.237103
3249.742478
3234.252719
3224.842635
3219.768789
3210.023428
3203.876698
3196.679437
3189.728044
3185.212992
3176.965198
3169.007977
3165.878733
3162.25775
3165.655215
3161.207218
3161.140163
3167.756279
3166.325768
3164.716442
3162.414213
3161.386032
3164.627035
3161.22957
3164.314111
3164.023538
3165.521105
3162.235399
3162.660082
3160.693128
3167.935093
3169.030329
3163.174172
3161.74366
3164.135297
3162.63773
3163.509448
3157.832105
3167.465707
3162.749489
3165.789326
3163.308282
3163.800021
3160.357852
3156.714518
3159.933169
3165.163477
3160.469611
3153.92055
3156.893332
3167.108079
3168.851515
3164.269407
3161.386032
3160.402556
3161.788364
3161.497791
3167.957445
3165.901085
3165.409346
3160.268445
3168.627997
3164.805849
3164.023538
3162.682433
3165.878733
3155.865151
3159.463782
3159.284968
3160.3355
3165.297588
3172.360739
3166.772803
3164.448221
3159.776707
3163.978835
3161.654253
3160.782535
3175.087652
3173.545381
3168.605646
3161.810715
3164.42587
3169.544419
3172.047814
3169.700881
3165.163477
3175.221762
3173.254809
3174.55121
3180.764995
3185.771785
3181.793175
3187.224649
3179.848573
3183.424852
3182.709596
3184.922419
3177.054605
3179.200373
3176.384053
3176.965198
3169.94675
3167.622169
3173.52303
3175.020596
3171.623131
3171.801945
3172.673663
3173.098346
3167.868038
3178.060434
3175.333521
3178.686282
3176.674625
3168.873867
3172.070166
3169.678529
3169.522067
3173.52303
3171.176096
3173.746547
3174.439451
3166.236361
3166.929265
3170.349082
3178.440413
3173.031291
3162.794192
3169.633826
3171.645483
3170.013806
3172.025463
3171.2208
3167.331596
3166.705747
3166.593989
3169.611474
3168.560942
3169.700881
3172.003111
3167.3763
3169.767936
3171.511373
3167.085727
3164.805849
3166.705747
3167.3763
3167.353948
3163.978835
3162.548323
3174.439451
3173.858306
3169.589122
3168.449184
3167.063375
3171.623131
3173.455974
3170.751413
3170.416137
3164.93996
3160.491962
3159.620244
3160.067279
3158.547361
3149.092573
3154.255826
3166.124602
3169.29855
3161.073108
3165.878733
3172.405442
3171.041986
3167.465707
3170.617303
3174.864134
3172.450146
3174.193582
3170.684358
3175.601742
3175.221762
3177.568695
3176.786384
3173.210105
3171.712538
3169.499716
3178.619227
3181.703768
3175.244114
3171.019634
3168.449184
3166.392823
3167.555114
3172.360739
3172.070166
3173.455974
3179.178021
3171.041986
3171.421966
3173.366567
3173.165402
3175.422928
3177.412233
3174.573561
3165.163477
3171.801945
3171.399614
3163.576503
3171.198448
3175.758204
3177.322826
3168.605646
3168.762108
3166.593989
3168.113907
3169.29855
3167.152782
3166.281064
3171.198448
3169.902047
3162.12364
3170.393785
3171.310207
3154.680509
3160.983701
3177.971027
3171.332559
3171.35491
3165.699919
3160.648425
3160.84959
3165.498753
3164.984663
3182.597838
3177.389881
3181.256733
3167.733928
3177.389881
3169.94675
3175.847611
3174.03712
3179.960332
3178.798041
3175.646445
3174.439451
3173.52303
3176.294646
3177.278123
3173.478326
3165.275236
3177.814564
3179.692111
3176.115832
3184.564791
3174.059471
3175.869963
3177.434585
3171.176096
3175.311169
3175.825259
3165.163477
3167.331596
3169.320902
3173.455974
3169.991454
3175.825259
3166.817506
3165.476402
3181.681416
3169.94675
3172.405442
3170.796117
3153.741736
3161.587198
3172.830125
3177.434585
3178.418062
3148.198503
3172.226628
3160.134335
3148.891407
3154.747564
3163.755317
3171.176096
3164.135297
3163.978835
3153.451163
3157.541532
3177.903971
3177.166364
3168.78446
3168.717404
3149.941939
3155.194599
3159.732003
3160.71548
3180.139146
3174.461803
3186.934076
3143.750506
3153.406459
3199.294591
3151.730079
3158.390899
3183.871887
3163.01771
3163.308282
3197.908783
3193.997227
3147.304433
3159.642596
3184.989474
3167.063375
3156.692166
3170.505544
3195.718312
3168.382128
3183.246038
3166.281064
3181.234381
3168.963274
3215.745475
3210.269297
3173.545381
3175.557038
3176.182887
3178.954503
3215.94664
3151.975948
3195.986533
3193.326675
3179.379187
3202.960277
3193.930172
3183.558963
3222.719219
3177.144012
3193.863117
3194.533669
3198.556983
3189.281009
3173.366567
3185.592972
3205.597783
3181.569658
3179.446242
3186.956428
3200.590992
3206.648315
3224.328545
3194.623076
3178.887448
3205.1731
3210.55987
3184.095405
3184.050701
3191.449129
3232.442228
3200.143957
3183.357797
3193.438434
3199.562812
3198.51228
3191.538536
3205.955411
3202.692056
3198.959315
3193.617248
3196.947658
3178.261599
3190.242134
3196.299457
3203.273201
3161.184867
3186.040006
3228.977708
3195.338332
3176.853439
3167.421003
3187.939905
3172.718367
3193.304323
3186.375283
3180.362663
3202.468539
3172.897181
3188.163422
3193.952524
3188.722216
3173.835954
3171.198448
3181.301437
3165.677567
3173.970064
3161.162515
3180.519126
3190.867983
3192.857288
3191.225611
3184.944771
3162.347157
3161.967178
3184.944771
3197.215879
3213.063265
3162.324806
3193.371379
3212.660934
3142.230587
3180.474422
3198.735797
3181.524954
3143.370526
3205.888355
3221.266356
3178.149841
3140.174227
3206.938887
3252.156467
3222.942736
3175.981721
3182.195506
3191.963219
3208.63762
3209.375228
3172.606608
3172.718367
3205.441321
3239.952414
3177.434585
3189.906858
3196.053588
3219.209995
3182.843707
3185.481213
3223.702696
3202.982629
3184.833012
3175.914666
3226.675478
3203.720236
3216.505434
3197.729969
3177.769861
3173.52303
3214.739646
3206.000114
3198.109948
3212.415065
3198.802852
3182.821355
3179.245076
3197.931134
3186.844669
3200.881565
3196.500623
3183.715425
3198.244059
3205.083693
3200.859213
3201.015675
3203.049684
3191.203259
3198.177004
3207.74355
3192.969047
3189.973913
3210.582222
3206.625963
3191.024445
3198.914611
3206.670667
3194.198393
3200.926268
3209.062303
3216.483082
3195.517146
3183.894239
3199.92044
3199.652219
3204.502547
3199.898088
3200.56864
3194.936001
3198.959315
3197.327637
3189.862155
3203.697885
3199.853384
3195.271277
3189.616286
3200.076902
3192.454957
3199.316943
3196.835899
3199.339294
3179.110966
3201.373303
3198.802852
3178.351006
3186.710559
3196.120643
3200.747454
3187.403463
3181.256733
3176.272294
3196.813547
3192.544364
3178.149841
3171.846649
3174.215934
3192.790233
3179.647407
3182.307265
3183.380149
3182.083748
3179.714463
3176.138184
3173.053643
3170.527896
3172.427794
3179.245076
3165.386995
3166.593989
3174.394748
3173.813602
3180.072091
3188.230477
3180.31796
3182.195506
3186.08471
3182.955466
3184.81066
3187.448166
3183.581315
3180.183849
3186.509393
3183.156631
3183.246038
3189.348065
3184.028349
3182.709596
3188.476347
3188.252829
3172.852477
3170.393785
3190.488004
3190.95739
3184.274219
3170.460841
3171.489021
3188.431643
3174.841782
3190.488004
3185.212992
3178.261599
3176.227591
3180.96616
3181.144974
3182.419024
3185.391806
3190.06332
3186.509393
3177.166364
3174.350044
3171.623131
3185.682378
3186.643504
3181.413195
3188.565754
3172.807774
3170.751413
3184.229515
3177.63575
3172.785422
3177.099309
3166.638692
3184.788309
3176.808736
3169.231495
3176.629922
3173.411271
3160.782535
3185.861192
3191.180908
3189.92921
3173.14305
3170.170268
3188.00696
3179.781518
3178.462765
3184.721253
3184.922419
3179.669759
3175.802907
3173.970064
3181.524954
3204.323733
3204.167271
3177.769861
3188.722216
3179.088614
3198.355818
3197.23823
3186.487041
3184.989474
3198.221707
3198.244059
3192.298495
3196.500623
3189.616286
3179.312131
3170.393785
3171.176096
3183.558963
3178.753338
3176.182887
3177.009902
3173.098346
3172.696015
3168.002149
3163.732965
3177.658102
3159.329672
3149.31609
3151.506561
3157.139201
3157.832105
3144.44341
3161.922474
3170.170268
3171.801945
3164.42587
3161.631901
3164.090593
3164.470573
3159.396727
3149.360794
3152.802962
3168.337425
3158.346195
3163.822372
3168.53859
3169.387957
3170.952579
3164.761146
3166.057547
3167.935093
3169.611474
3163.777669
3159.441431
3161.542494
3172.047814
3169.767936
3165.252884
3173.768899
3177.725157
3171.913704
3166.973968
3183.827184
3171.533724
3166.124602
3169.007977
3178.127489
3172.293684
3163.464745
3173.075995
3176.160535
3164.314111
3169.455012
3175.601742
3182.843707
3187.336408
3189.526879
3189.482175
3192.007922
3187.738739
3189.482175
3194.712483
3192.969047
3203.76494
3197.61821
3186.285876
3175.646445
3177.099309
3188.856326
3190.800928
3187.984608
3193.863117
3184.81066
3187.179945
3194.421911
3195.785367
3203.988457
3207.877661
3194.824242
3198.355818
3200.032198
3190.800928
3194.444262
3204.27903
3200.635696
3201.775635
3196.768844
3198.1323
3195.919477
3200.94862
3203.630829
3190.085672
3190.733873
3210.314001
3192.924344
3197.171175
3199.674571
3200.903916
3198.355818
3197.774672
3193.304323
3195.114815
3193.214916
3206.782425
3189.839803
3187.49287
3194.980704
3190.532707
3188.811623
3186.956428
3186.621152
3181.681416
3189.616286
3190.577411
3185.123585
3177.814564
3184.318922
3188.297533
3179.893277
3179.625056
3166.370471
3185.05653
3186.554097
3179.021559
3179.870925
3176.786384
3177.322826
3175.266466
3187.291704
3181.077919
3169.902047
3178.485117
3179.669759
3177.278123
3175.981721
3184.944771
3196.165347
3178.954503
3176.09348
3187.448166
3181.524954
3185.101233
3189.348065
3189.906858
3176.629922
3170.147916
3179.379187
3176.115832
3187.202297
3185.660027
3187.269352
3183.357797
3181.681416
3175.422928
3178.976855
3179.066262
3178.39571
3175.266466
3186.844669
3186.174117
3178.440413
3182.575486
3182.061396
3179.222724
3182.128451
3182.687245
3181.592009
3184.475384
3182.933114
3174.953541
3176.384053
3175.825259
3174.215934
3175.042948
3178.507469
3177.88162
3177.568695
3176.540515
3177.166364
3181.636713
3185.324751
3184.743605
3170.550247
3175.221762
3184.207163
3185.280047
3181.010864
3173.210105
3183.313094
3185.19064
3176.115832
3176.98755
3178.261599
3179.826221
3178.351006
3179.267428
3184.497736
3185.838841
3186.151765
3180.094442
3185.257695
3181.904934
3180.854402
3179.04391
3188.588105
3193.125509
3183.313094
3174.998245
3176.764032
3184.251867
3184.631847
3187.962256
3189.526879
3184.005998
3185.928248
3175.668797
3176.920495
3189.258658
3177.255771
3174.506506
3182.039044
3181.100271
3177.680454
3180.83205
3181.569658
3172.405442
3169.723233
3169.589122
3169.253846
3167.823335
3167.622169
3164.135297
3168.315073
3170.907875
3174.618265
3182.173155
3179.446242
3181.279085
3173.813602
3172.293684
3177.412233
3179.468594
3168.248018
3179.625056
3183.156631
3183.201335
3169.522067
3169.343253
3183.044873
3177.099309
3174.886486
3179.04391
3182.24021
3176.60757
3178.708634
3174.573561
3179.558001
3177.50164
3177.792213
3184.095405
3173.65714
3179.401538
3169.611474
3167.979797
3175.780556
3174.819431
3175.780556
3176.115832
3173.210105
3172.137221
3180.675588
3176.652274
3172.986588
3174.864134
3176.004073
3179.42389
3171.980759
3175.668797
3174.595913
3175.355873
3174.327692
3186.643504
3181.971989
3167.756279
3171.421966
3170.214971
3166.951617
3170.527896
3176.406405
3171.511373
3173.14305
3171.399614
3178.641579
3176.719329
3175.758204
3178.999207
3177.792213
3179.558001
3172.651311
3181.457899
3180.608533
3179.088614
3176.875791
3173.321864
3175.378224
3180.45207
3178.39571
3182.799003
3177.88162
3178.641579
3177.523992
3172.964236
3172.24898
3178.9098
3180.273256
3174.305341
3169.119736
3183.335445
3180.675588
3173.433623
3170.103213
3179.178021
3177.278123
3176.339349
3176.942846
3176.316998
3177.725157
3179.155669
3173.746547
3168.248018
3176.09348
3184.654198
3177.725157
3175.557038
3178.686282
3189.370416
3183.156631
3182.307265
3190.242134
3190.800928
3181.927285
3180.876753
3187.559925
3198.802852
3190.018617
3181.010864
3188.163422
3189.370416
3189.41512
3179.647407
3179.133317
3186.643504
3188.856326
3193.572544
3184.16246
3184.81066
3184.721253
3186.040006
3184.654198
3185.57062
3184.028349
3181.793175
3181.144974
3190.644466
3195.092463
3186.174117
3183.693073
3188.074015
3191.806756
3184.721253
3183.000169
3190.376245
3197.662914
3193.080806
3184.54244
3177.211067
3173.075995
3178.328655
3176.495812
3162.883599
3163.911779
3174.886486
3170.214971
3165.029367
3166.035195
3166.459878
3163.397689
3160.961349
3159.6873
3157.072146
3156.781573
3150.299567
3152.333576
3156.088669
3154.43464
3151.640672
3155.261654
3160.693128
3158.010919
3158.681471
3168.806811
3173.858306
3168.672701
3155.663986
3165.744622
3172.673663
3172.584256
3170.617303
3173.411271
3165.811678
3166.258713
3164.090593
3163.621207
3162.235399
3163.352986
3167.778631
3165.96814
3166.437527
3165.163477
3159.463782
3164.649387
3169.723233
3175.44528
3175.869963
3175.869963
3180.787346
3193.617248
3186.665855
3185.168288
3184.005998
3189.348065
3188.275181
3186.129413
3180.854402
3183.626018
3183.491908
3180.630884
3183.469556
3187.604629
3184.765957
3180.250905
3180.027387
3183.536611
3183.201335
3182.150803
3182.799003
3184.54244
3186.621152
3188.118719
3180.630884
3178.283951
3183.737777
3186.665855
3187.425815
3188.319884
3188.789271
3187.202297
3186.129413
3184.81066
3184.318922
3183.044873
3181.815527
3181.748471
3187.783442
3187.045835
3182.463727
3185.816489
3185.883544
3194.310152
3188.968085
3181.927285
3184.430681
3191.091501
3193.371379
3183.13428
3184.095405
3192.700826
3190.242134
3188.185774
3192.589068
3190.689169
3188.722216
3189.526879
3184.274219
3187.202297
3192.432605
3188.498698
3183.424852
3186.509393
3196.366512
3189.795099
3190.890335
3190.778576
3192.454957
3191.650294
3196.992361
3191.829108
3189.504527
3189.459823
3186.151765
3185.235344
3192.36555
3191.694998
3186.889373
3188.632809
3188.610457
3189.281009
3189.392768
3188.118719
3186.241172
3188.632809
3185.771785
3182.553134
3181.815527
3189.169251
3188.074015
3185.503565
3187.269352
3192.566716
3191.98557
3188.297533
3188.632809
3195.763015
3190.420948
3186.554097
3186.107062
3190.82328
3193.483137
3191.694998
3185.19064
3187.269352
3191.672646
3188.565754
3187.023483
3188.699864
3193.170213
3191.560887
3190.085672
3194.108986
3196.992361
3191.292666
3184.631847
3184.900067
3191.98557
3191.516184
3188.14107
3189.012788
3186.5988
3190.867983
3184.609495
3166.437527
3163.5318
3164.537628
3160.134335
3159.910817
3161.341329
3162.905951
3164.984663
3165.655215
3163.822372
3164.604683
3166.973968
3170.639654
3170.684358
3168.516239
3167.488059
3166.437527
3173.746547
3175.489983
3168.516239
3166.437527
3173.031291
3169.276198
3170.729061
3168.672701
3167.264541
3171.287855
3166.817506
3162.905951
3163.084765
3169.387957
3171.198448
3168.896218
3170.550247
3167.778631
3168.560942
3172.919532
3170.259675
3167.979797
3167.778631
3170.483192
3172.830125
3169.611474
3168.27037
3168.739756
3165.811678
3168.672701
3170.796117
3166.169306
3161.900122
3162.369509
3165.610512
3164.738794
3165.923436
3167.108079
3165.565808
3166.191657
3165.431698
3164.984663
3165.163477
3168.516239
3167.041024
3166.214009
3168.985625
3168.627997
3164.247056
3165.096422
3171.109041
3176.898143
3176.853439
3169.209143
3168.069204
3179.558001
3187.157594
3180.787346
3167.286893
3164.492925
3176.875791
3175.758204
3182.039044
3183.357797
3181.86023
3175.266466
3178.172192
3183.357797
3183.715425
3185.481213
3186.107062
3186.777614
3188.074015
3184.095405
3184.363626
3184.944771
3189.54923
3187.179945
3181.927285
3179.669759
3189.124547
3183.804832
3176.227591
3184.318922
3188.811623
3189.839803
3181.904934
3178.842745
3187.559925
3187.805794
3180.809698
3180.049739
3190.06332
3192.320847
3188.90103
3184.609495
3187.269352
3191.091501
3189.728044
3188.632809
3187.224649
3189.012788
3188.968085
3182.709596
3182.62019
3187.068187
3182.687245
3181.927285
3180.519126
3182.106099
3183.26839
3180.340312
3177.658102
3184.654198
3188.029312
3181.815527
3186.174117
3184.631847
3187.068187
3184.765957
3184.475384
3180.697939
3184.274219
3184.385977
3185.503565
3182.530783
3184.140108
3180.183849
3179.893277
3184.251867
3185.212992
3185.838841
3184.765957
3179.647407
3181.256733
3180.586181
3180.250905
3179.021559
3183.760128
3177.50164
3170.952579
3172.181925
3171.287855
3174.03712
3171.064338
3166.549285
3171.466669
3173.813602
3177.568695
3180.094442
3182.799003
3185.838841
3184.095405
3184.095405
3190.06332
3187.962256
3188.230477
3185.05653
3183.938942
3182.575486
3184.140108
3184.117756
3181.34614
3179.446242
3182.419024
3182.039044
3178.082785
3179.513297
3182.7543
3183.804832
3179.356835
3183.178983
3188.275181
3183.827184
3175.489983
3174.215934
3176.47346
3178.060434
3181.614361
3180.31796
3179.602704
3179.133317
3177.389881
3176.741681
3179.535649
3178.105137
3174.886486
3172.360739
3177.076957
3179.692111
3174.528858
3174.528858
3170.729061
3174.662968
3176.272294
3171.310207
3172.807774
3181.189678
3177.434585
3171.667835
3169.790288
3179.245076
3177.523992
3174.640617
3176.875791
3178.686282
3179.155669
3179.222724
3176.562867
3179.625056
3179.490945
3176.875791
3174.707672
3178.663931
3177.680454
3180.630884
3177.591047
3178.216896
3176.115832
3175.154707
3173.411271
3176.875791
3176.205239
3177.725157
3175.44528
3172.651311
3176.562867
3177.009902
3172.360739
3172.472498
3180.407367
3177.591047
3173.545381
3173.366567
3176.540515
3183.178983
3180.541477
3174.886486
3176.205239
3181.949637
3183.313094
3174.774727
3173.746547
3177.63575
3171.73489
3174.260637
3186.665855
3187.381111
3189.370416
3190.420948
3198.959315
3203.474367
3204.994286
3206.380094
3206.089521
3202.200318
3204.92723
3201.663876
3196.992361
3202.893222
3203.966105
3202.468539
3203.653181
3207.408274
3210.626925
3209.352876
3212.526824
3203.608478
3208.168233
3210.246946
3205.1731
3205.061341
3207.028294
3206.022466
3203.742588
3202.088559
3203.161443
3202.468539
3202.066207
3204.390789
3208.391751
3206.156576
3207.788254
3208.458806
3204.815472
3209.866966
3210.805739
3207.162405
3203.027332
3203.76494
3202.937925
3207.676495
3210.090483
3209.621097
3203.027332
3198.065245
3195.673608
3201.440358
3198.914611
3189.638637
3186.889373
3192.298495
3194.958352
3189.146899
3180.519126
3185.57062
3187.559925
3181.882582
3175.0653
3171.869
3174.528858
3174.774727
3171.131393
3168.605646
3179.93798
3181.72612
3180.742643
3181.547306
3181.256733
3180.653236
3179.312131
3180.161498
3184.050701
3183.447204
3180.541477
3182.106099
3187.135242
3184.922419
3182.642541
3181.815527
3183.491908
3186.196469
3186.777614
3182.039044
3182.530783
3186.151765
3184.944771
3182.351969
3185.883544
3186.487041
3186.397634
3184.16246
3184.877716
3187.62698
3186.487041
3183.469556
3180.921457
3181.659064
3181.994341
3178.328655
3178.440413
3184.005998
3188.766919
3180.854402
3176.160535
3179.42389
3184.050701
3183.804832
3183.246038
3179.893277
3175.937018
3174.148878
3173.098346
3178.01573
3182.262562
3175.981721
3177.50164
3180.385015
3179.110966
3181.033216
3181.077919
3175.422928
3177.278123
3176.115832
3174.059471
3181.971989
3180.340312
3173.344216
3172.740718
3170.19262
3164.18
3168.0245
3161.74366
3164.738794
3164.872904
3167.979797
3161.788364
3157.206256
3165.096422
3166.214009
3162.905951
3164.962311
3165.610512
3170.103213
3164.805849
3162.235399
3162.928303
3167.175134
3173.724195
3171.556076
3165.990492
3168.739756
3169.94675
3163.397689
3163.598855
3168.113907
3169.455012
3164.04589
3162.861247
3165.722271
3166.146954
3165.364643
3159.575541
3163.688262
3167.957445
3165.610512
3161.207218
3159.508486
3162.548323
3163.397689
3161.587198
3164.716442
3167.331596
3169.790288
3162.950654
3160.84959
3164.135297
3164.649387
3162.235399
3160.3355
3168.963274
3167.599817
3162.615378
3154.814619
3162.302454
3164.984663
3164.649387
3163.129468
3168.225666
3168.27037
3160.782535
3161.117811
3164.761146
3162.458916
3169.678529
3168.829163
3166.504582
3162.436564
3162.436564
3165.901085
3166.325768
3169.209143
3170.19262
3164.93996
3169.142088
3170.036157
3166.124602
3163.196524
3162.391861
3170.304378
3172.561904
3171.243152
3167.3763
3165.565808
3170.505544
3164.93996
3159.441431
3167.912742
3170.974931
3164.627035
3171.310207
3167.108079
3166.124602
3172.76307
3171.801945
3167.242189
3164.984663
3176.115832
3166.325768
3162.682433
3163.755317
3173.031291
3169.700881
3165.655215
3168.78446
3166.169306
3166.214009
3158.904989
3156.088669
3162.414213
3162.458916
3155.820448
3158.904989
3158.256788
3163.352986
3162.525971
3165.252884
3168.762108
3169.94675
3174.193582
3173.65714
3174.394748
3176.316998
3174.975893
3172.092518
3175.802907
3175.825259
3175.221762
3172.964236
3176.205239
3181.659064
3178.216896
3170.080861
3177.792213
3179.915628
3171.891352
3176.227591
3166.437527
3168.53859
3165.878733
3169.522067
3175.087652
3179.93798
3174.238285
3161.363681
3161.006053
3165.722271
3170.460841
3174.662968
3172.271332
3172.226628
3170.393785
3171.667835
3172.561904
3177.680454
3175.847611
3176.339349
3178.574524
3175.557038
3181.234381
3183.424852
3172.76307
3174.148878
3177.747509
3179.915628
3175.937018
3176.361701
3182.821355
3176.741681
3166.571637
3170.684358
3172.696015
3177.814564
3180.31796
3180.005035
3181.569658
3185.70473
3184.363626
3180.787346
3180.206201
3184.005998
3183.961294
3181.815527
3186.107062
3186.487041
3181.055567
3182.396672
3180.474422
3182.262562
3178.351006
3177.054605
3183.760128
3187.738739
3181.770823
3178.239248
3174.931189
3181.592009
3184.073053
3184.251867
3182.486079
3183.64837
3183.693073
3178.239248
3179.535649
3189.504527
3188.744567
3186.621152
3186.509393
3185.19064
3184.765957
3184.855364
3188.00696
3184.967123
3182.843707
3184.922419
3186.419986
3182.530783
3182.351969
3188.14107
3185.481213
3183.827184
3180.899105
3180.876753
3181.301437
3180.921457
3182.150803
3182.799003
3181.971989
3179.267428
3183.424852
3182.128451
3179.356835
3178.060434
3177.054605
3185.660027
3184.430681
3179.669759
3180.563829
3184.251867
3183.581315
3177.725157
3180.519126
3184.274219
3184.318922
3178.932152
3180.809698
3180.630884
3182.039044
3181.502602
3177.233419
3177.166364
3180.586181
3185.548268
3178.574524
3180.586181
3179.155669
3179.245076
3176.451108
3175.110003
3183.156631
3183.626018
3177.099309
3175.177059
3180.988512
3179.066262
3175.378224
3171.801945
3182.933114
3187.11289
3178.619227
3178.619227
3181.122623
3182.709596
3182.24021
3186.5988
3180.876753
3180.183849
3182.687245
3187.515222
3186.308227
3184.251867
3185.235344
3180.250905
3181.793175
3186.665855
3184.073053
3183.424852
3188.923381
3183.447204
3180.586181
3179.245076
3180.45207
3187.157594
3184.989474
3180.496774
3175.400576
3177.993378
3179.692111
3178.820393
3174.439451
3174.819431
3173.880657
3180.005035
3183.044873
3182.530783
3182.128451
3179.647407
3183.491908
3186.73291
3185.034178
3189.906858
3181.971989
3183.581315
3179.28978
3183.938942
3187.045835
3188.342236
3189.638637
3187.403463
3186.665855
3183.983646
3182.664893
3184.475384
3185.458861
3182.307265
3186.174117
3189.862155
3187.314056
3185.19064
3188.297533
3188.051663
3185.034178
3179.692111
3184.564791
3192.544364
3188.498698
3183.201335
3184.721253
3183.693073
3181.122623
3182.910762
3181.502602
3182.262562
3179.558001
3181.72612
3181.144974
3178.239248
3180.697939
3183.000169
3178.954503
3182.195506
3183.514259
3178.194544
3178.216896
3178.306303
3180.787346
3180.094442
3179.110966
3178.619227
3184.207163
3181.189678
3182.709596
3181.949637
3182.351969
3190.95739
3187.49287
3178.798041
3186.710559
3183.64837
3182.307265
3175.534687
3175.311169
3183.491908
3184.989474
3183.871887
3183.246038
3181.971989
3181.971989
3178.686282
3177.613399
3180.474422
3182.731948
3180.854402
3180.072091
3182.7543
3184.475384
3181.793175
3178.686282
3184.318922
3183.603666
3184.944771
3186.799966
3188.945733
3188.811623
3186.352931
3188.766919
3188.163422
3189.817451
3184.609495
3182.150803
3192.320847
3193.371379
3190.398597
3188.945733
3190.175079
3189.526879
3189.079844
3180.720291
3185.995303
3191.315018
3186.889373
3185.928248
3184.698902
3189.951562
3188.856326
3184.028349
3179.513297
3185.525916
3192.544364
3186.375283
3183.916591
3184.475384
3189.571582
3189.750396
3183.022521
3186.5988
3196.455919
3191.98557
3188.38694
3194.645428
3192.454957
3192.186736
3193.505489
3191.806756
3191.158556
3191.091501
3189.079844
3190.733873
3197.372341
3191.963219
3189.124547
3188.52105
3189.191602
3190.420948
3194.690132
3190.689169
3191.47148
3194.131338
3194.019579
3192.544364
3192.946695
3192.924344
3190.577411
3192.901992
3192.298495
3195.517146
3194.354855
3185.05653
3192.097329
3198.177004
3197.215879
3192.589068
3190.488004
3194.041931
3192.767881
3190.622114
3190.4433
3194.041931
3198.020541
3191.449129
3187.738739
3192.209088
3191.225611
3185.727082
3178.976855
3177.88162
3169.633826
3167.935093
3169.410309
3168.337425
3181.167326
3189.124547
3186.867021
3182.419024
3183.290742
3187.895201
3184.318922
3187.962256
3188.990437
3192.477309
3187.247001
3186.554097
3192.030274
3192.767881
3194.533669
3191.180908
3192.454957
3200.278068
3194.980704
3192.834937
3198.199355
3197.394693
3201.46271
3202.245021
3196.947658
3197.99819
3195.494794
3190.108024
3189.839803
3196.366512
3197.461748
3189.124547
3187.425815
3195.539498
3195.226573
3192.477309
3191.605591
3192.410254
3196.21005
3192.74553
3191.538536
3190.242134
3196.366512
3196.366512
3194.399559
3195.114815
3191.404425
3193.527841
3192.522012
3189.795099
3193.371379
3196.791195
3197.193527
3191.583239
3190.95739
3192.499661
3191.739701
3192.23144
3198.825204
3199.495757
3196.634733
3192.767881
3197.10412
3202.423835
3197.528803
3193.997227
3197.439396
3197.729969
3196.925306
3197.215879
3194.980704
3199.093425
3200.300419
3195.293629
3200.389826
3202.401483
3200.993323
3197.864079
3196.500623
3199.227536
3198.556983
3198.936963
3194.444262
3196.053588
3203.25085
3198.177004
3197.4841
3201.820338
3205.1731
3199.808681
3197.595858
3199.987495
3200.076902
3199.249887
3198.1323
3197.908783
3201.865041
3199.674571
3197.260582
3193.6396
3194.80189
3201.239193
3194.824242
3189.191602
3195.003056
3194.265448
3192.544364
3192.253791
3191.963219
3198.579335
3200.680399
3194.824242
3192.544364
3195.360684
3192.924344
3193.103158
3196.21005
3197.059416
3196.500623
3195.293629
3195.740663
3197.953486
3198.64639
3195.673608
3195.226573
3195.204222
3197.014713
3189.973913
3191.47148
3198.1323
3196.768844
3193.192565
3191.672646
3194.041931
3193.974876
3190.331541
3192.454957
3197.931134
3199.741626
3200.501585
3199.361646
3197.171175
3195.159518
3195.338332
3195.003056
3193.729006
3201.038027
3203.139091
3193.170213
3197.506451
3201.619172
3203.116739
3199.54046
3196.232402
3199.585164
3197.975838
3193.147861
3192.924344
3194.15369
3191.605591
3189.41512
3192.499661
3195.114815
3192.812585
3191.404425
3184.721253
3187.269352
3186.934076
3186.062358
3184.475384
3185.05653
3187.962256
3189.951562
3188.498698
3189.951562
3195.003056
3193.77371
3193.326675
3194.377207
3196.07594
3200.56864
3195.763015
3192.969047
3197.193527
3195.494794
3193.930172
3196.791195
3195.137166
3194.488966
3197.282934
3193.214916
3193.349027
3196.098291
3195.31598
3198.445225
3194.66778
3193.438434
3193.036102
3190.488004
3191.516184
3196.992361
3198.735797
3194.243097
3191.694998
3194.600725
3193.617248
3191.292666
3191.158556
3190.912687
3188.833974
3190.465652
3194.488966
3193.550193
3195.18187
3194.66778
3193.147861
3191.583239
3192.320847
3192.36555
3196.031236
3192.410254
3192.343198
3193.25962
3188.230477
3187.537573
3188.543402
3190.711521
3191.538536
3189.146899
3191.33737
3194.66778
3190.666818
3192.477309
3193.885469
3187.716387
3187.381111
3190.845631
3199.115777
3200.836861
3197.886431
3197.729969
3196.746492
3196.567678
3202.200318
3204.256678
3206.514204
3210.269297
3209.196414
3204.055512
3205.910707
3204.79312
3206.760074
3204.480196
3194.488966
3198.333466
3203.206146
3202.110911
3199.518108
3199.741626
3201.261544
3199.629867
3193.438434
3197.305286
3202.155614
3203.76494
3198.467576
3198.355818
3202.222669
3203.89905
3199.92044
3198.288762
3204.033161
3204.033161
3199.808681
3196.545326
3203.38496
3206.111873
3202.915573
3200.076902
3203.139091
3209.442283
3204.502547
3199.227536
3200.881565
3202.826166
3202.826166
3200.702751
3197.23823
3202.468539
3202.781463
3195.606553
3197.349989
3203.027332
3201.46271
3198.735797
3200.05455
3205.642486
3201.306248
3200.367475
3197.260582
3205.8213
3205.329562
3198.892259
3195.763015
3199.294591
3194.265448
3199.004018
3201.9768
3203.720236
3202.781463
3198.780501
3195.673608
3199.048722
3196.165347
3197.774672
3195.941829
3201.46271
3206.603611
3203.25085
3196.21005
3198.556983
3205.888355
3201.127434
3196.746492
3197.23823
3200.255716
3202.625001
3201.261544
3201.909745
3200.903916
3199.92044
3197.349989
3195.897126
3195.785367
3197.148823
3199.875736
3190.867983
3185.034178
3186.308227
3181.927285
3182.351969
3183.469556
3189.057492
3192.87964
3191.225611
3192.052626
3196.321809
3198.489928
3198.735797
3195.427739
3199.451053
3203.586126
3200.345123
3197.260582
3198.065245
3194.131338
3198.1323
3198.713446
3196.657085
3198.758149
3203.988457
3199.249887
3193.930172
3199.40635
3200.859213
3198.378169
3195.897126
3195.360684
3195.941829
3195.003056
3196.478271
3198.691094
3200.009847
3196.545326
3194.757187
3197.282934
3200.993323
3194.511318
3195.539498
3199.987495
3199.808681
3199.071073
3195.651257
3197.10412
3197.327637
3200.881565
3193.885469
3197.819376
3199.249887
3195.472443
3190.800928
3193.371379
3198.758149
3199.227536
3197.23823
3190.912687
3192.052626
3192.142033
3192.477309
3191.650294
3193.25962
3195.070111
3197.23823
3193.147861
3195.427739
3197.908783
3202.088559
3196.344161
3194.131338
3197.014713
3193.349027
3193.885469
3193.818413
3198.378169
3195.606553
3189.54923
3191.739701
3197.461748
3197.75232
3191.538536
3191.762053
3198.601687
3196.858251
3194.891297
3191.963219
3196.388864
3198.51228
3199.048722
3195.807719
3197.171175
3198.556983
3192.298495
3191.806756
3195.003056
3199.138129
3195.226573
3197.61821
3194.712483
3197.864079
3197.014713
3192.276143
3192.119681
3193.147861
3191.85146
3188.856326
3188.074015
3191.762053
3192.790233
3188.185774
3193.952524
3196.366512
3196.098291
3197.171175
3194.511318
3196.612382
3193.505489
3196.366512
3198.735797
3192.36555
3194.511318
3195.271277
3200.56864
3198.713446
3196.411216
3196.880602
3196.098291
3194.623076
3191.404425
3195.070111
3188.498698
3191.315018
3194.198393
3196.59003
3194.66778
3190.286838
3194.176041
3195.003056
3194.310152
3194.444262
3201.015675
3205.262507
3194.466614
3190.398597
3189.616286
3194.354855
3194.064283
3188.543402
3189.616286
3196.321809
3192.790233
3193.214916
3194.958352
3199.451053
3195.83007
3191.069149
3192.633771
3193.304323
3193.974876
3195.226573
3194.779538
3192.522012
3190.979742
3192.410254
3188.833974
3187.291704
3190.040969
3188.968085
3183.938942
3189.169251
3189.057492
3187.604629
3180.072091
3181.748471
3185.548268
3181.368492
3185.749434
3194.332504
3198.199355
3194.66778
3192.007922
3192.186736
3192.410254
3195.941829
3196.59003
3198.1323
3197.819376
3199.786329
3201.038027
3201.753283
3196.880602
3199.585164
3197.014713
3192.834937
3193.416082
3198.109948
3201.730931
3198.467576
3192.23144
3190.935038
3201.194489
3203.988457
3206.514204
3213.689114
3217.690077
3222.830978
3229.804722
3230.855254
3230.430571
3221.020486
3220.864024
3226.988402
3227.614251
3225.826112
3223.903862
3222.518053
3226.429609
3225.490835
3220.975783
3221.802798
3226.854292
3226.474312
3224.999097
3227.837769
3229.760019
3229.424742
3224.440303
3225.982574
3224.261489
3230.855254
3227.234271
3221.914556
3222.942736
3227.457789
3222.60746
3222.696867
3227.34603
3226.943699
3223.635641
3220.752266
3227.86012
3230.877606
3226.809588
3227.435437
3223.479178
3223.88151
3220.953431
3223.993268
3225.28967
3226.295498
3224.172082
3226.183739
3224.350896
3225.379077
3230.117646
3232.062248
3232.263414
3232.21871
3230.408219
3225.781408
3227.234271
3228.575376
3229.64826
3232.933966
3226.764885
3228.083638
3231.436399
3227.971879
3223.88151
3226.943699
3231.861083
3228.731838
3224.932042
3225.177911
3229.581205
3231.816379
3226.049629
3224.373248
3229.000059
3231.257585
3228.173045
3228.709487
3232.106952
3229.469446
3228.307155
3226.563719
3227.86012
3231.05642
3229.871777
3226.496664
3227.010754
3226.630774
3226.720181
3224.440303
3223.814455
3227.547196
3230.989365
3231.794027
3234.945623
3233.157484
3219.634678
3213.666763
3207.944716
3207.520033
3204.837823
3196.992361
3193.594896
3191.091501
3194.265448
3199.115777
3198.467576
3199.182832
3199.339294
3195.092463
3194.108986
3198.847556
3194.868945
3194.645428
3195.83007
3198.981666
3197.059416
3194.310152
3196.277105
3197.260582
3199.674571
3198.333466
3195.271277
3195.427739
3199.227536
3198.154652
3194.220745
3195.606553
3200.121605
3199.741626
3197.10412
3195.919477
3201.641524
3203.653181
3197.059416
3193.974876
3195.383036
3199.652219
3201.641524
3200.076902
3199.696922
3197.059416
3193.751358
3200.211012
3198.936963
3196.344161
3193.013751
3187.157594
3184.922419
3189.571582
3190.30919
3183.827184
3180.720291
3191.247963
3197.014713
3194.556021
3193.483137
3195.293629
3201.485062
3199.428701
3198.020541
3196.567678
3196.433568
3190.666818
3187.761091
3201.708579
3209.0176
3204.547251
3205.061341
3201.46271
3201.46271
3207.162405
3207.005943
3200.814509
3203.049684
3208.391751
3203.720236
3198.869908
3201.350951
3208.458806
3207.341219
3202.513242
3201.3286
3207.274164
3205.262507
3199.875736
3203.563774
3205.463672
3202.088559
3200.43453
3202.110911
3205.106044
3200.211012
3202.692056
3201.015675
3199.987495
3203.317905
3197.685265
3200.188661
3206.983591
3201.641524
3200.43453
3203.76494
3206.625963
3209.218765
3207.408274
3205.284858
3203.563774
3203.273201
3206.84948
3206.111873
3204.681361
3205.016637
3208.414103
3206.670667
3202.49089
3204.100216
3204.703713
3203.429664
3203.541422
3209.062303
3210.202242
3203.89905
3200.792158
3204.502547
3204.368437
3200.836861
3200.389826
3206.84948
3213.264431
3208.682324
3204.167271
3203.76494
3209.062303
3206.245983
3206.044818
3199.898088
3208.615268
3210.761036
3204.591954
3204.770768
3202.088559
3201.909745
3200.747454
3203.988457
3213.175024
3213.130321
3212.079789
3207.408274
3204.971934
3205.731893
3208.145882
3207.363571
3206.625963
3204.815472
3210.336353
3211.900975
3218.807664
3223.434475
3226.094332
3230.16235
3231.503455
3235.124437
3227.34603
3224.328545
3224.619117
3227.882472
3231.101123
3225.177911
3224.507359
3228.731838
3228.62008
3225.28967
3220.864024
3223.255661
3231.391696
3230.408219
3220.595803
3222.965088
3227.167216
3230.475274
3229.78237
3225.960222
3226.563719
3220.864024
3217.108931
3221.221652
3226.049629
3221.914556
3220.081713
3221.713391
3225.557891
3228.75419
3225.356725
3220.03701
3224.172082
3225.177911
3225.267318
3220.729914
3220.819321
3228.173045
3223.702696
3218.964126
3222.965088
3229.603556
3227.21192
3223.926213
3227.435437
3227.72601
3224.708524
3219.701734
3219.813492
3227.301327
3225.93787
3223.50153
3223.054495
3224.417952
3226.429609
3222.383943
3219.947603
3228.195396
3228.150693
3221.132245
3220.819321
3223.769751
3227.167216
3230.430571
3224.842635
3225.960222
3224.77558
3225.468484
3223.657992
3217.041876
3205.30721
3202.848518
3190.398597
3192.544364
3197.461748
3197.595858
3200.188661
3204.726065
3208.458806
3213.152672
3212.459768
3209.934021
3213.934983
3212.638582
3210.962201
3208.458806
3212.079789
3211.364533
3207.721199
3208.25764
3208.659972
3211.766864
3213.487949
3209.397579
3211.096312
3210.358704
3209.174062
3206.380094
3208.414103
3210.962201
3206.447149
3207.005943
3208.659972
3208.659972
3209.643449
3206.670667
3205.396617
3209.911669
3213.197376
3207.296515
3204.904879
3208.279992
3210.381056
3207.318867
3206.022466
3203.094387
3207.09535
3205.1731
3201.149786
3200.680399
3205.30721
3205.128396
3204.636658
3203.831995
3202.379132
3201.865041
3203.340257
3205.731893
3203.809643
3208.101178
3207.072998
3209.241117
3214.829053
3218.718257
3215.231385
3209.621097
3210.17989
3213.465597
3211.208071
3208.458806
3212.213899
3216.058399
3216.863062
3208.950544
3207.855309
3212.325658
3215.745475
3214.78435
3214.27026
3217.555966
3213.733818
3213.107969
3216.460731
3219.053533
3219.14294
3213.867928
3209.844614
3215.454902
3219.321754
3215.074922
3214.091446
3214.516129
3218.494739
3217.399504
3214.314963
3212.549175
3215.276088
3214.314963
3215.119626
3217.287745
3217.801835
3216.214861
3215.253736
3220.081713
3219.008829
3218.338277
3215.365495
3214.091446
3219.098236
3223.613289
3220.059361
3213.085617
3211.006905
3212.973858
3212.146844
3212.236251
3213.420893
3216.952469
3219.366457
3214.605536
3218.830016
3225.222614
3217.667725
3200.613344
3191.672646
3194.846594
3197.282934
3188.00696
3181.301437
3180.742643
3182.419024
3178.351006
3176.942846
3181.144974
3183.290742
3182.977817
3179.401538
3182.597838
3189.124547
3187.559925
3182.977817
3182.463727
3182.597838
3182.106099
3178.440413
3182.486079
3186.799966
3184.497736
3182.351969
3184.341274
3186.330579
3186.576448
3184.631847
3187.828146
3186.107062
3187.001131
3183.089576
3183.201335
3187.403463
3186.643504
3183.201335
3185.369454
3188.565754
3188.453995
3189.772748
3186.665855
3187.269352
3186.397634
3188.789271
3185.168288
3189.683341
3189.281009
3187.604629
3188.118719
3186.196469
3189.973913
3189.817451
3188.230477
3187.381111
3188.588105
3189.750396
3183.603666
3180.228553
3185.816489
3183.424852
3183.916591
3179.80387
3175.7135
3173.254809
3169.723233
3170.125564
3169.745585
3171.958407
3173.14305
3176.09348
3182.351969
3186.799966
3184.050701
3186.531745
3185.212992
3180.206201
3183.089576
3188.588105
3190.733873
3196.07594
3189.348065
3178.351006
3184.028349
3190.286838
3187.604629
3181.904934
3179.80387
3181.033216
3193.214916
3192.477309
3185.525916
3192.566716
3200.345123
3198.534632
3204.390789
3205.061341
3205.486024
3208.25764
3212.236251
3213.823225
3209.732856
3206.737722
3206.491853
3204.79312
3204.211975
3206.491853
3208.011771
3207.967068
3214.046742
3214.829053
3212.616231
3210.805739
3214.493777
3220.506396
3223.50153
3214.292611
3209.464635
3209.576393
3203.76494
3192.477309
3199.696922
3216.393675
3206.514204
3195.226573
3196.120643
3205.508376
3209.978725
3209.755207
3212.169196
3217.935946
3217.73478
3210.537518
3206.737722
3202.669704
3210.761036
3214.314963
3208.145882
3210.269297
3207.005943
3201.46271
3196.657085
3199.227536
3209.576393
3205.888355
3201.485062
3204.904879
3211.386885
3212.303306
3207.520033
3210.738684
3217.824187
3218.070056
3215.276088
3204.92723
3202.401483
3209.732856
3213.934983
3220.774617
3220.349934
3212.191547
3204.144919
3206.737722
3206.894184
3210.336353
3211.163367
3209.107007
3211.409236
3216.32662
3217.243042
3216.952469
3215.320792
3215.343143
3206.961239
3200.680399
3204.390789
3209.822263
3210.917498
3208.190585
3206.178928
3211.118664
3210.314001
3209.129358
3210.761036
3210.649277
3210.448111
3205.709542
3202.759111
3203.206146
3204.65901
3205.374265
3201.239193
3204.502547
3207.050646
3206.491853
3203.027332
3198.869908
3200.479233
3201.9768
3200.970972
3197.10412
3196.768844
3199.138129
3193.818413
3198.020541
3202.915573
3194.488966
3189.41512
3193.751358
3195.874774
3201.283896
3202.334428
3201.194489
3202.289725
3209.285821
3204.547251
3203.072036
3205.128396
3207.989419
3205.1731
3202.379132
3201.999152
3206.111873
3208.861137
3210.17989
3206.20128
3205.418969
3202.602649
3199.965143
3202.289725
3203.429664
3209.419931
3204.100216
3200.009847
3200.076902
3203.049684
3201.306248
3194.891297
3197.662914
3201.775635
3191.762053
3183.961294
3183.916591
3185.861192
3186.5988
3188.342236
3193.617248
3199.763977
3201.149786
3198.177004
3198.445225
3200.658047
3204.994286
3203.966105
3203.206146
3205.866004
3206.33539
3205.1731
3201.46271
3201.797986
3204.033161
3204.92723
3203.38496
3201.641524
3206.245983
3206.111873
3205.463672
3204.167271
3196.567678
3188.90103
3186.867021
3189.906858
3195.092463
3199.562812
3195.785367
3197.305286
3194.332504
3194.936001
3190.979742
3191.136204
3193.237268
3198.624039
3200.300419
3198.244059
3197.528803
3200.702751
3197.014713
3198.51228
3197.506451
3199.249887
3198.400521
3189.370416
3192.209088
3197.461748
3194.824242
3194.712483
3192.142033
3193.706655
3192.544364
3194.377207
3194.66778
3190.867983
3189.92921
3190.912687
3193.080806
3193.080806
3193.192565
3190.979742
3193.214916
3196.187698
3196.992361
3195.964181
3195.763015
3197.394693
3200.05455
3195.204222
3191.516184
3196.411216
3201.797986
3199.92044
3199.182832
3199.227536
3201.820338
3206.558908
3201.641524
3191.650294
3198.355818
3199.898088
3197.61821
3196.992361
3199.518108
3203.429664
3199.071073
3196.858251
3194.556021
3201.932097
3199.249887
3195.673608
3197.148823
3203.38496
3202.312076
3199.071073
3197.975838
3201.485062
3199.786329
3193.930172
3195.003056
3200.456882
3195.450091
3196.344161
3196.72414
3196.522975
3199.696922
3197.014713
3198.825204
3199.562812
3199.339294
3198.668742
3196.165347
3200.479233
3203.362608
3201.239193
3201.306248
3202.759111
3206.156576
3201.373303
3198.422873
3197.439396
3200.43453
3194.80189
3195.986533
3197.931134
3197.23823
3201.574469
3199.40635
3194.734835
3188.677512
3188.163422
3187.314056
3181.994341
3188.856326
3192.410254
3190.376245
3187.090538
3191.784405
3193.885469
3189.906858
3186.107062
3188.744567
3194.868945
3196.455919
3189.482175
3187.247001
3190.845631
3195.897126
3190.286838
3182.955466
3189.660989
3194.779538
3187.11289
3183.626018
3189.057492
3193.997227
3190.264486
3191.627943
3193.25962
3190.845631
3185.436509
3185.548268
3188.565754
3193.058454
3186.822317
3182.776652
3189.884506
3189.839803
3183.581315
3179.245076
3178.798041
3175.400576
3179.513297
3178.999207
3177.322826
3185.592972
3186.397634
3189.906858
3188.297533
3189.03514
3189.258658
3188.833974
3184.095405
3186.419986
3186.062358
3187.939905
3185.660027
3187.179945
3187.62698
3191.538536
3189.079844
3190.331541
3196.478271
3194.868945
3191.918515
3190.599762
3193.080806
3193.974876
3194.198393
3190.890335
3191.315018
3192.969047
3191.963219
3193.080806
3189.996265
3190.264486
3189.303361
3183.804832
3186.621152
3189.839803
3189.146899
3185.950599
3186.956428
3191.091501
3186.509393
3184.385977
3185.101233
3187.291704
3188.968085
3185.548268
3190.242134
3193.125509
3186.934076
3189.41512
3189.772748
3189.169251
3190.912687
3188.409291
3188.565754
3188.655161
3189.951562
3190.912687
3190.689169
3191.762053
3188.051663
3187.738739
3186.509393
3191.806756
3190.488004
3193.885469
3192.142033
3189.660989
3192.969047
3192.186736
3187.671684
3191.672646
3193.6396
3191.806756
3187.448166
3183.536611
3190.644466
3193.371379
3191.113852
3191.359722
3190.197431
3194.533669
3195.427739
3191.627943
3192.209088
3195.092463
3192.097329
3191.359722
3193.818413
3192.656123
3189.906858
3186.352931
3189.839803
3200.94862
3200.032198
3195.718312
3193.192565
3193.751358
3193.39373
3187.828146
3187.604629
3190.420948
3190.756224
3190.465652
3191.449129
3193.818413
3191.404425
3189.973913
3190.689169
3197.171175
3198.668742
3197.193527
3192.901992
3192.320847
3190.622114
3190.4433
3190.532707
3189.571582
3194.176041
3190.108024
3191.918515
3191.292666
3191.091501
3190.979742
3190.398597
3187.001131
3193.326675
3191.784405
3194.198393
3192.007922
3193.080806
3195.271277
3195.539498
3190.622114
3193.25962
3196.165347
3191.292666
3192.544364
3197.327637
3196.344161
3191.315018
3189.906858
3189.236306
3196.031236
3195.338332
3191.180908
3195.69596
3196.522975
3195.718312
3192.36555
3190.242134
3194.041931
3192.969047
3191.717349
3194.980704
3196.880602
3197.729969
3195.226573
3188.632809
3192.767881
3196.791195
3195.606553
3192.656123
3192.522012
3197.931134
3193.080806
3189.616286
3190.979742
3188.38694
3187.895201
3184.944771
3185.369454
3185.70473
3182.866059
3183.603666
3183.26839
3185.883544
3187.872849
3185.145937
3186.107062
3190.4433
3194.466614
3193.214916
3192.074977
3189.906858
3189.303361
3193.885469
3192.298495
3190.018617
3188.342236
3192.74553
3189.951562
3190.867983
3192.142033
3195.070111
3190.599762
3190.577411
3192.209088
3194.019579
3191.091501
3193.192565
3197.327637
3198.065245
3195.159518
3194.645428
3194.80189
3197.394693
3195.517146
3188.677512
3184.073053
3183.469556
3181.34614
3175.557038
3173.411271
3172.204277
3170.84082
3168.78446
3167.957445
3174.68532
3172.964236
3167.957445
3166.191657
3168.471535
3166.303416
3163.442393
3163.464745
3169.611474
3172.539553
3168.091556
3165.58816
3172.316035
3170.147916
3170.349082
3171.980759
3172.986588
3173.903009
3172.651311
3171.533724
3172.181925
3170.974931
3168.516239
3168.627997
3167.51041
3169.499716
3175.266466
3168.449184
3167.778631
3169.633826
3168.493887
3167.3763
3169.365605
3174.372396
3174.126527
3165.901085
3165.476402
3171.533724
3175.869963
3176.115832
3171.2208
3173.14305
3174.081823
3173.433623
3169.566771
3167.800983
3168.963274
3167.175134
3169.566771
3169.387957
3172.427794
3174.03712
3171.846649
3169.656178
3170.594951
3169.052681
3163.464745
3166.258713
3170.125564
3171.399614
3168.292721
3167.711576
3167.800983
3167.912742
3166.99632
3168.248018
3169.678529
3174.864134
3169.700881
3169.410309
3169.678529
3174.841782
3173.52303
3169.276198
3168.829163
3173.79125
3174.417099
3174.528858
3171.444317
3175.422928
3179.826221
3177.211067
3176.451108
3175.333521
3178.887448
3180.429719
3174.193582
3175.467631
3179.602704
3175.378224
3173.768899
3175.154707
3175.601742
3174.595913
3170.371434
3168.627997
3172.226628
3175.646445
3170.572599
3171.824297
3172.427794
3175.355873
3172.360739
3173.679492
3176.09348
3177.702806
3173.79125
3171.891352
3174.707672
3176.652274
3173.388919
3174.104175
3175.489983
3169.857343
3174.752375
3174.104175
3174.841782
3176.451108
3177.50164
3175.847611
3173.344216
3176.60757
3174.618265
3166.638692
3163.643558
3171.779593
3172.137221
3171.377262
3169.633826
3169.678529
3168.046852
3166.884561
3171.243152
3170.416137
3173.299512
3173.947713
3170.527896
3173.075995
3165.07407
3162.145992
3158.592064
3156.289835
3161.140163
3161.475439
3161.363681
3162.458916
3172.025463
3168.873867
3167.957445
3168.53859
3171.645483
3173.545381
3169.455012
3166.370471
3169.499716
3172.24898
3170.080861
3171.913704
3168.560942
3168.583294
3165.610512
3165.543457
3166.370471
3172.070166
3169.94675
3170.460841
3170.058509
3171.176096
3170.594951
3168.560942
3171.243152
3169.097384
3171.690186
3170.639654
3168.896218
3172.092518
3172.025463
3169.276198
3163.688262
3166.661044
3168.873867
3165.722271
3162.12364
3165.141125
3168.40448
3166.839858
3165.409346
3165.208181
3162.235399
3160.581369
3159.620244
3159.508486
3167.823335
3161.22957
3155.149896
3156.826276
3160.20139
3159.597893
3158.122678
3158.346195
3160.000224
3161.140163
3159.039099
3153.093535
3157.407422
3160.246093
3157.89916
3159.217913
3161.766012
3163.15182
3161.698957
3157.608587
3158.256788
3164.761146
3164.202352
3160.626073
3159.329672
3166.817506
3165.476402
3163.062413
3160.134335
3160.134335
3163.732965
3165.051718
3163.844724
3156.222779
3149.338442
3148.109096
3142.834084
3138.453142
3131.367639
3123.857453
3114.782645
3109.753503
3106.043113
3101.840985
3094.509613
3093.168508
3087.42411
3082.059691
3075.443575
3078.617523
3078.170488
3076.315293
3070.079156
3064.558275
3063.127764
3065.184124
3058.925636
3062.166639
3060.78083
3062.166639
3061.116107
3059.23856
3058.34449
3059.126801
3062.099583
3061.317272
3060.400851
3061.116107
3058.746822
3058.433897
3057.673938
3054.768211
3056.645758
3057.092793
3058.165676
3060.892589
3063.753612
3063.395985
3062.546618
3060.914941
3062.904246
3060.78083
3062.479563
3062.904246
3059.015043
3058.322139
3057.562179
3058.322139
3063.485392
3058.970339
3054.410583
3054.969377
3061.004348
3058.657415
3057.428069
3056.645758
3058.568008
3058.255083
3057.472772
3054.388232
3057.1822
3059.953816
3057.919807
3054.410583
3055.505819
3055.461115
3053.225941
3050.946063
3051.41545
3057.584531
3054.969377
3050.834304
3053.248293
3055.729336
3054.455287
3054.522342
3056.086964
3059.126801
3056.824572
3054.924673
3053.315348
3058.098621
3057.249255
3054.052955
3053.449458
3054.745859
3053.896493
3047.146266
3051.728374
3056.668109
3058.031566
3053.516514
3048.375612
3052.935368
3052.421278
3048.688537
3046.609824
3052.711851
3055.595226
3049.716717
3045.536941
3045.671051
3042.184179
3039.166694
3036.976223
3041.804199
3047.459191
3048.107391
3048.241502
3050.208455
3054.678804
3051.638967
3049.604958
3051.706022
3056.086964
3053.069479
3047.816819
3046.006327
3050.163752
3051.124877
3047.258025
3034.830455
3031.81297
3039.658432
3061.227865
3072.336682
3080.8974
3094.867241
3102.846814
3114.112093
3124.997392
3144.354003
3153.697032
3159.240265
3175.489983
3190.197431
3203.228498
3207.296515
3220.931079
3238.298385
3247.373193
3256.805629
3261.499496
3273.368272
3285.12529
3288.858031
3297.038769
3310.561575
3313.087322
3319.390514
3322.095075
3329.694668
3337.495427
3338.30009
3339.149456
3344.089191
3348.55954
3351.018232
3354.885084
3350.325328
3352.001709
3355.756802
3353.432221
3347.933691
3352.225226
3357.969625
3348.961872
3353.29811
3356.360299
3355.309767
3354.862732
3353.67809
3356.919093
3358.908398
3358.483715
3353.67809
3352.895779
3358.215494
3360.09304
3354.370994
3359.511895
3359.109564
3360.741241
3356.919093
3355.287415
3357.500238
3356.472058
3354.348642
3357.321424
3361.009462
3359.400136
3361.74707
3360.316558
3360.137744
3361.232979
3360.98711
3353.29811
3353.923959
3359.400136
3356.583817
3353.186351
3354.527456
3358.461363
3353.923959
3354.303939
3354.773325
3357.075555
3357.701404
3355.980319
3355.130953
3354.840381
3355.980319
3353.320462
3353.968662
3358.439011
3362.171753
3358.93075
3355.421526
3364.473982
3360.182447
3352.40404
3355.712099
3359.06486
3356.270892
3358.751936
3352.962834
3350.437087
3354.750974
3356.270892
3351.957005
3351.24175
3352.515799
3351.219398
3349.095982
3347.888988
3356.047375
3356.896741
3353.186351
3353.856904
3355.019194
3356.606168
3355.756802
3355.08625
3359.713061
3362.90936
3356.226189
3339.507084
3326.811293
3315.948345
3306.538261
3293.998932
3281.370197
3271.580132
3257.990272
3245.629757
3236.242024
3237.672536
3234.945623
3234.990327
3238.097219
3240.533559
3244.959205
3240.466504
3238.007812
3237.560777
3241.941719
3236.689059
3238.432495
3240.15358
3240.622966
3238.499551
3235.616176
3237.136094
3233.716277
3236.040859
3237.136094
3235.280899
3237.113742
3239.39362
3237.583129
3232.196359
3235.012679
3234.00685
3233.805684
3237.091391
3237.136094
3244.668632
3241.941719
3233.559815
3221.132245
3215.387847
3209.598745
3204.860175
3198.065245
3193.617248
3185.145937
3178.172192
3176.451108
3177.255771
3180.072091
3173.925361
3172.405442
3173.813602
3168.292721
3165.297588
3163.911779
3162.928303
3166.459878
3169.924399
3173.947713
3177.568695
3177.680454
3176.384053
3174.260637
3177.054605
3180.496774
3179.04391
3174.417099
3176.674625
3178.798041
3180.697939
3178.172192
3177.054605
3176.674625
3180.943809
3179.736814
3178.708634
3181.681416
3176.942846
3173.992416
3176.294646
3176.786384
3176.451108
3174.797079
3174.327692
3175.557038
3178.686282
3172.76307
3174.730024
3174.193582
3179.133317
3176.853439
3172.025463
3171.73489
3176.808736
3174.215934
3176.853439
3173.612436
3176.562867
3173.724195
3174.931189
3175.422928
3178.306303
3179.178021
3168.426832
3177.725157
3179.110966
3171.019634
3161.520143
3169.94675
3177.255771
3180.921457
3179.312131
3178.798041
3180.787346
3184.073053
3189.638637
3185.950599
3183.871887
3193.416082
3195.047759
3192.007922
3188.453995
3190.06332
3192.119681
3191.918515
3186.330579
3191.538536
3192.454957
3184.609495
3183.894239
3182.486079
3181.189678
3177.345178
3177.345178
3180.027387
3183.693073
3180.161498
3175.44528
3178.976855
3184.721253
3184.721253
3180.899105
3182.329617
3181.502602
3179.915628
3178.283951
3184.833012
3184.609495
3183.201335
3183.156631
3181.703768
3180.921457
3183.693073
3181.927285
3179.468594
3182.799003
3187.448166
3183.536611
3176.071128
3179.960332
3183.827184
3185.391806
3183.000169
3183.290742
3186.487041
3185.302399
3180.630884
3179.781518
3184.631847
3186.822317
3181.368492
3184.453033
3184.765957
3184.698902
3184.207163
3183.871887
3188.565754
3184.900067
3181.435547
3183.313094
3186.241172
3185.615323
3188.118719
3187.559925
3184.743605
3183.603666
3181.144974
3181.569658
3186.710559
3187.984608
3186.889373
3181.927285
3182.709596
3187.805794
3186.487041
3180.675588
3183.067224
3188.342236
3188.453995
3182.843707
3180.921457
3183.64837
3182.843707
3179.848573
3178.52982
3189.728044
3188.90103
3182.955466
3181.413195
3182.262562
3183.827184
3182.24021
3179.28978
3182.016692
3184.050701
3187.895201
3183.938942
3182.419024
3183.626018
3181.882582
3177.278123
3182.128451
3180.697939
3177.63575
3180.31796
3183.067224
3181.502602
3184.251867
3180.809698
3176.09348
3178.373358
3180.183849
3179.848573
3176.540515
3179.558001
3179.960332
3181.592009
3177.658102
3176.205239
3182.016692
3180.295608
3174.417099
3174.886486
3178.999207
3174.305341
3172.852477
3170.214971
3168.069204
3172.539553
3170.505544
3167.957445
3179.468594
3185.034178
3180.854402
3176.540515
3183.246038
3183.26839
3177.50164
3179.893277
3182.24021
3185.838841
3182.039044
3177.36753
3178.440413
3179.356835
3179.28978
3173.14305
3173.14305
3179.848573
3178.976855
3180.094442
3182.709596
3191.896163
3190.644466
3182.575486
3182.150803
3186.263524
3185.816489
3183.223687
3182.039044
3187.001131
3187.939905
3186.040006
3182.128451
3185.391806
3186.710559
3185.302399
3182.039044
3182.933114
3184.81066
3185.168288
3183.000169
3185.749434
3183.156631
3182.664893
3184.29657
3179.133317
3179.915628
3186.375283
3185.369454
3182.262562
3184.184812
3183.78248
3178.283951
3180.027387
3183.201335
3186.554097
3179.781518
3180.83205
3181.323788
3187.805794
3185.168288
3184.16246
3183.536611
3187.224649
3184.430681
3181.167326
3182.061396
3186.509393
3184.698902
3185.212992
3185.257695
3190.420948
3189.750396
3186.509393
3186.397634
3190.06332
3191.47148
3186.241172
3185.70473
3189.41512
3189.012788
3190.756224
3188.38694
3188.118719
3189.839803
3185.57062
3186.777614
3189.795099
3191.091501
3192.36555
3189.348065
3185.816489
3187.381111
3187.962256
3186.621152
3189.146899
3196.947658
3199.16048
3190.152727
3190.420948
3195.070111
3197.126472
3192.723178
3190.644466
3188.342236
3186.017655
3183.693073
3185.145937
3187.448166
3189.504527
3187.872849
3179.848573
3181.413195
3183.290742
3188.230477
3186.174117
3184.788309
3189.54923
3188.722216
3188.856326
3188.90103
3188.699864
3194.108986
3191.247963
3187.649332
3193.39373
3193.527841
3187.895201
3185.637675
3188.744567
3190.175079
3188.833974
3187.202297
3187.001131
3191.091501
3194.108986
3191.873812
3190.06332
3191.627943
3191.203259
3186.5988
3189.951562
3191.225611
3189.41512
3181.793175
3187.425815
3188.342236
3191.359722
3190.935038
3189.079844
3195.31598
3195.293629
3189.191602
3185.212992
3188.00696
3196.120643
3196.992361
3191.694998
3187.291704
3193.304323
3193.77371
3186.710559
3193.371379
3194.108986
3195.494794
3192.678475
3190.465652
3195.31598
3195.450091
3190.644466
3190.867983
3192.991399
3200.523937
3195.025408
3194.533669
3196.388864
3198.355818
3197.014713
3195.673608
3198.042893
3198.355818
3193.706655
3185.861192
3185.05653
3183.760128
3181.636713
3184.16246
3184.050701
3189.817451
3194.645428
3190.733873
3193.661951
3197.841727
3197.193527
3192.432605
3193.192565
3194.980704
3196.098291
3199.227536
3199.585164
3200.725103
3200.076902
3195.56185
3184.765957
3185.168288
3189.191602
3187.62698
3188.118719
3192.656123
3192.544364
3189.795099
3188.074015
3188.90103
3191.47148
3193.505489
3192.142033
3192.097329
3195.69596
3193.080806
3191.158556
3187.515222
3190.800928
3192.522012
3190.890335
3188.185774
3190.845631
3193.818413
3189.370416
3189.92921
3188.945733
3188.990437
3189.459823
3189.03514
3187.582277
3192.544364
3192.36555
3192.544364
3191.605591
3189.906858
3193.483137
3187.761091
3184.989474
3189.459823
3189.884506
3186.509393
3184.050701
3190.242134
3189.906858
3190.756224
3188.90103
3189.057492
3194.444262
3192.74553
3190.935038
3193.349027
3198.244059
3197.037065
3195.226573
3198.087597
3199.741626
3199.853384
3200.523937
3197.99819
3197.260582
3198.51228
3199.54046
3198.065245
3196.008884
3200.523937
3201.485062
3192.276143
3194.466614
3202.423835
3197.417044
3192.432605
3196.433568
3196.388864
3195.070111
3197.059416
3194.868945
3199.831033
3199.741626
3198.780501
3198.311114
3199.182832
3199.831033
3193.885469
3195.584201
3199.965143
3202.937925
3200.94862
3200.881565
3202.267373
3202.35678
3203.049684
3200.926268
3198.266411
3203.273201
3199.40635
3194.623076
3201.686228
3205.396617
3200.166309
3197.886431
3203.608478
3207.184757
3201.038027
3198.467576
3197.439396
3198.959315
3203.38496
3200.523937
3200.255716
3204.390789
3206.782425
3199.004018
3195.807719
3202.692056
3200.255716
3202.200318
3201.753283
3201.529765
3205.038989
3199.249887
3201.574469
3204.480196
3202.088559
3197.10412
3199.339294
3204.27903
3206.536556
3205.843652
3202.088559
3198.624039
3201.797986
3206.84948
3203.00498
3201.08273
3202.937925
3202.669704
3201.46271
3200.613344
3207.296515
3207.520033
3201.663876
3200.523937
3209.084655
3213.219728
3217.801835
3214.314963
3215.745475
3220.774617
3215.186681
3212.236251
3216.438379
3218.695905
3217.131283
3212.146844
3212.012733
3217.444207
3226.049629
3221.109893
3217.824187
3220.439341
3220.260527
3216.103103
3213.175024
3215.901937
3214.985515
3210.224594
3206.33539
3212.750341
3211.543347
3205.508376
3202.580297
3205.150748
3210.403408
3212.795045
3212.392713
3210.090483
3215.186681
3223.389771
3226.071981
3223.970917
3217.019524
3213.979687
3216.863062
3223.926213
3221.355763
3215.320792
3213.197376
3213.689114
3221.288707
3220.260527
3210.135187
3210.984553
3216.147806
3220.796969
3217.444207
3211.476292
3211.58805
3215.320792
3213.152672
3213.398542
3215.767827
3213.130321
3214.337315
3204.480196
3205.843652
3212.437417
3208.905841
3202.379132
3200.56864
3201.708579
3202.87087
3207.497681
3214.314963
3209.464635
3210.001076
3206.268335
3202.937925
3203.452015
3200.814509
3204.435492
3204.256678
3204.591954
3205.150748
3197.014713
3193.39373
3201.283896
3205.508376
3198.914611
3198.691094
3194.131338
3197.014713
3195.83007
3196.59003
3198.109948
3196.299457
3200.412178
3198.936963
3197.215879
3203.608478
3204.189623
3203.496719
3204.949582
3201.172137
3197.573507
3195.651257
3200.345123
3201.373303
3204.904879
3201.46271
3194.265448
3192.812585
3198.177004
3201.753283
3194.466614
3198.1323
3207.452978
3206.71537
3201.865041
3199.853384
3201.060379
3200.412178
3198.914611
3195.517146
3192.74553
3194.019579
3188.163422
3186.509393
3192.499661
3190.82328
3195.427739
3196.992361
3198.355818
3205.597783
3201.015675
3196.232402
3192.343198
3194.377207
3192.276143
3191.762053
3195.56185
3196.657085
3195.472443
3198.579335
3198.691094
3201.596821
3200.523937
3193.974876
3194.310152
3201.485062
3201.46271
3193.863117
3186.710559
3189.526879
3195.204222
3202.781463
3202.49089
3202.35678
3201.797986
3195.092463
3192.633771
3193.572544
3195.874774
3194.243097
3195.114815
3192.834937
3192.633771
3197.081768
3198.847556
3205.016637
3207.184757
3205.977762
3198.400521
3193.147861
3197.819376
3198.892259
3194.019579
3192.36555
3187.425815
3194.198393
3194.064283
3187.716387
3195.651257
3197.439396
3194.556021
3190.30919
3198.556983
3199.383998
3196.545326
3191.247963
3190.353893
3190.622114
3192.589068
3192.186736
3188.163422
3190.689169
3189.012788
3184.318922
3189.41512
3195.450091
3197.506451
3191.806756
3184.944771
3186.487041
3192.186736
3189.973913
3185.414158
3185.414158
3184.274219
3182.597838
3180.474422
3182.530783
3185.123585
3185.70473
3183.670721
3184.318922
3187.291704
3184.475384
3183.067224
3181.748471
3183.983646
3185.19064
3180.362663
3172.740718
3174.774727
3175.154707
3171.019634
3175.177059
3174.931189
3175.042948
3174.640617
3170.952579
3173.925361
3185.369454
3182.441376
3181.323788
3182.195506
3184.765957
3185.19064
3179.178021
3175.825259
3177.322826
3182.486079
3179.580352
3175.154707
3173.701843
3177.836916
3176.853439
3177.926323
3180.496774
3180.362663
3173.478326
3171.958407
3180.250905
3180.474422
3175.847611
3174.148878
3172.159573
3175.087652
3179.222724
3175.780556
3172.181925
3174.640617
3174.998245
3175.467631
3172.070166
3176.294646
3175.937018
3168.337425
3168.40448
3172.852477
3167.532762
3169.075032
3168.002149
3165.632864
3171.399614
3164.716442
3157.563884
3161.363681
3164.157649
3162.593026
3154.255826
3161.207218
3168.717404
3164.358814
3161.363681
3159.888465
3159.352024
3162.77184
3160.626073
3160.469611
3163.576503
3157.608587
3156.423945
3155.529875
3159.106154
3161.520143
3163.442393
3163.844724
3164.515276
3161.587198
3156.982739
3156.714518
3156.960387
3159.955521
3157.76505
3158.502657
3166.705747
3166.772803
3162.816544
3161.698957
3154.56875
3160.469611
3158.681471
3153.272349
3152.601797
3155.686337
3152.6465
3152.13241
3152.244169
3150.277215
3148.980814
3142.00707
3149.271387
3156.289835
3160.179038
3154.099364
3149.673718
3149.383145
3153.428811
3153.473515
3150.053698
3146.835047
3148.1538
3143.169361
3144.152837
3143.92932
3138.117866
3134.139256
3132.552282
3127.724305
3132.664041
3134.698049
3130.2277
3128.841892
3130.495921
3129.624203
3126.472607
3120.370581
3127.321974
3121.398761
3115.006163
3117.15193
3113.754465
3113.285078
3110.602869
3109.954668
3112.189843
3114.737942
3115.296735
3112.636878
3107.875956
3110.960497
3108.032418
3101.528061
3102.220965
3105.372561
3102.913869
3100.633991
3095.426034
3098.532927
3097.54945
3096.096587
3093.727302
3096.856546
3094.375502
3093.168508
3092.833232
3094.59902
3097.92943
3093.682598
3088.429938
3091.000389
3092.453252
3090.553354
3085.770081
3087.915848
3085.166584
3087.04413
