Detector 2,,,,,,,,Detector 4,,,,,,,,Detector 6,,,,,,,,Detector 8,,,,,,,,Detector 10,,,,,,,,Detector 12,,,,,,,,Detector 14,,,,,,,,Detector 16,,,,,,,
"RED1,2,3,4","IR1,2,3,4 ","RED5,6,7,8","IR5,6,7,8 ","RED9,10,11,12","IR9,10,11,12 ","RED13,14,15,16","IR13,14,15,16 ","RED1,2,3,4","IR1,2,3,4 ","RED5,6,7,8","IR5,6,7,8 ","RED9,10,11,12","IR9,10,11,12 ","RED13,14,15,16","IR13,14,15,16 ","RED1,2,3,4","IR1,2,3,4 ","RED5,6,7,8","IR5,6,7,8 ","RED9,10,11,12","IR9,10,11,12 ","RED13,14,15,16","IR13,14,15,16 ","RED1,2,3,4","IR1,2,3,4 ","RED5,6,7,8","IR5,6,7,8 ","RED9,10,11,12","IR9,10,11,12 ","RED13,14,15,16","IR13,14,15,16 ","RED1,2,3,4","IR1,2,3,4 ","RED5,6,7,8","IR5,6,7,8 ","RED9,10,11,12","IR9,10,11,12 ","RED13,14,15,16","IR13,14,15,16 ","RED1,2,3,4","IR1,2,3,4 ","RED5,6,7,8","IR5,6,7,8 ","RED9,10,11,12","IR9,10,11,12 ","RED13,14,15,16","IR13,14,15,16 ","RED1,2,3,4","IR1,2,3,4 ","RED5,6,7,8","IR5,6,7,8 ","RED9,10,11,12","IR9,10,11,12 ","RED13,14,15,16","IR13,14,15,16 ","RED1,2,3,4","IR1,2,3,4 ","RED5,6,7,8","IR5,6,7,8 ","RED9,10,11,12","IR9,10,11,12 ","RED13,14,15,16","IR13,14,15,16 "
27298,65535,4023,208,179,172,170,169,2089,14201,337,165,163,161,157,165,4568,26113,631,319,300,302,297,297,2021,8022,723,687,663,664,662,661,464,467,11488,12418,11566,11440,584,474,520,519,11991,9491,13862,10840,635,533,843,3904,27613,27535,25109,24541,31101,17013,313,1297,24590,23491,25503,27122,30318,15365
27000,65535,3995,209,182,173,171,171,2062,14229,335,164,162,164,161,160,4518,26153,629,316,300,299,298,303,2007,8036,732,686,663,667,658,662,467,469,11510,12455,11585,11473,583,475,523,523,12043,9548,13929,10920,635,536,1059,3927,27667,27611,25146,24602,31140,17040,490,1309,24619,23530,25535,27180,30344,15385
27050,65535,4036,211,181,174,171,171,2066,14265,337,170,162,161,161,158,4526,26207,634,314,301,298,300,299,2008,8045,729,687,662,661,665,661,468,471,11530,12499,11605,11507,587,477,523,528,12083,9600,13991,10994,639,537,1062,3943,27717,27683,25185,24668,31167,17070,491,1315,24654,23574,25569,27241,30371,15412
27097,65535,3997,210,180,174,170,170,2069,14299,337,167,163,163,162,160,4532,26268,631,313,305,299,300,303,2014,8062,723,688,664,667,670,663,468,471,11560,12541,11625,11543,587,481,525,526,12135,9659,14053,11073,642,542,1067,3959,27775,27774,25231,24739,31206,17098,488,1319,24689,23623,25607,27316,30397,15434
27150,65535,4042,208,181,174,173,174,2075,14338,339,167,163,165,158,163,4542,26341,637,314,300,301,297,305,2012,8076,731,692,667,664,665,662,469,474,11587,12591,11652,11587,593,479,530,529,12187,9725,14122,11167,646,543,1067,3975,27835,27865,25285,24822,31251,17129,494,1323,24741,23691,25654,27406,30434,15458
27209,65535,4005,212,183,175,171,171,2076,14375,337,166,163,165,160,163,4549,26411,637,314,300,301,299,299,2015,8091,729,691,665,668,663,661,469,474,11618,12637,11673,11616,589,478,533,532,12231,9767,14159,11172,645,541,1072,3994,27905,27959,25329,24877,31293,17151,498,1327,24777,23739,25700,27463,30467,15473
27190,65535,4040,211,181,175,174,171,2072,14335,338,166,161,162,159,161,4550,26322,635,316,302,301,299,302,2019,8088,731,688,661,663,663,661,469,473,11601,12580,11646,11530,586,476,528,525,12083,9566,13887,10823,633,535,1073,3979,27947,27948,25300,24791,31295,17135,498,1322,24832,23767,25676,27350,30454,15445
27137,65535,3993,205,181,174,171,169,2068,14276,335,169,163,163,158,162,4538,26216,634,314,299,300,300,302,2015,8063,726,687,662,665,663,659,465,471,11593,12543,11620,11487,585,477,519,522,11993,9471,13776,10708,631,531,1069,3959,27985,27954,25289,24749,31287,17125,496,1319,24867,23771,25645,27287,30443,15429
27127,65535,4033,210,181,175,172,170,2070,14254,338,169,163,165,160,161,4533,26166,634,313,302,299,299,299,2012,8051,730,686,663,662,662,659,465,468,11588,12535,11604,11461,585,478,519,519,11974,9443,13739,10673,629,529,1069,3955,28013,27966,25278,24722,31286,17125,495,1316,24900,23781,25629,27245,30436,15421
27134,65535,3990,211,181,178,171,171,2070,14252,341,166,163,162,161,164,4534,26158,629,315,302,300,299,299,2009,8046,726,686,662,660,665,659,467,469,11610,12553,11610,11471,584,475,518,517,12011,9485,13794,10737,631,531,1071,3957,28047,28011,25296,24753,31301,17128,497,1318,24918,23795,25631,27268,30447,15430
27147,65535,4030,207,181,175,172,173,2071,14269,338,170,166,164,161,165,4534,26145,634,313,301,296,305,298,2013,8053,727,687,662,663,662,661,465,471,11617,12573,11616,11475,586,475,519,520,12027,9496,13794,10735,632,530,1069,3965,28087,28054,25301,24762,31311,17134,495,1317,24937,23819,25637,27269,30460,15429
27155,65535,3991,211,183,176,172,172,2071,14274,337,166,163,161,164,161,4535,26154,630,315,303,301,299,298,2012,8056,728,687,662,663,664,661,465,473,11631,12590,11618,11484,584,476,522,519,12045,9521,13822,10782,632,530,1072,3968,28135,28115,25317,24788,31319,17143,500,1316,24958,23836,25638,27289,30467,15441
27185,65535,4032,210,183,174,173,171,2072,14298,337,169,162,161,160,161,4539,26185,634,314,301,304,306,299,2014,8065,729,689,663,664,667,660,466,471,11654,12630,11629,11511,586,477,519,520,12094,9579,13891,10866,635,536,1074,3978,28175,28179,25347,24847,31341,17167,497,1320,24982,23874,25658,27347,30482,15455
27222,65535,3995,215,184,174,175,171,2075,14327,337,166,163,161,159,161,4546,26229,631,315,300,301,301,300,2017,8074,728,690,663,665,667,665,467,471,11677,12670,11648,11547,589,477,521,520,12145,9640,13963,10948,640,535,1078,3993,28231,28267,25382,24903,31367,17185,498,1322,25016,23916,25692,27400,30506,15478
27267,65535,4037,209,180,175,175,172,2078,14354,343,167,162,164,165,165,4551,26286,636,319,302,299,299,297,2019,8091,729,693,667,665,665,663,467,470,11703,12712,11668,11579,589,478,523,525,12191,9695,14019,11021,637,536,1079,4008,28289,28349,25421,24964,31399,17209,499,1326,25040,23963,25726,27463,30527,15489
27310,65535,4000,210,183,173,172,169,2082,14385,340,167,163,165,163,165,4562,26345,633,314,301,299,298,299,2021,8101,733,691,672,668,667,665,469,474,11736,12755,11686,11616,589,478,526,525,12237,9749,14071,11089,640,539,1082,4027,28342,28429,25458,25032,31424,17234,497,1329,25089,24019,25759,27531,30553,15514
27357,65535,4044,211,180,176,173,170,2084,14421,341,166,163,161,160,166,4571,26418,639,315,301,300,303,299,2024,8117,733,695,667,670,670,664,471,478,11764,12801,11709,11651,592,479,527,528,12286,9808,14134,11173,645,541,1083,4038,28405,28524,25506,25108,31459,17262,504,1334,25131,24079,25799,27610,30582,15537
27409,65535,4007,210,182,174,174,171,2085,14448,339,167,163,163,158,160,4579,26484,637,315,301,300,301,300,2027,8127,735,693,668,671,669,667,471,477,11794,12855,11734,11695,595,484,529,532,12341,9878,14204,11261,651,544,1085,4058,28476,28625,25558,25188,31493,17287,501,1336,25179,24143,25854,27693,30612,15560
27460,65535,4049,211,181,174,171,171,2089,14481,343,167,161,162,160,160,4583,26509,641,315,303,301,300,301,2031,8155,731,698,668,665,666,665,472,480,11813,12872,11749,11677,594,480,531,532,12321,9817,14107,11072,642,539,1088,4071,28547,28682,25559,25167,31525,17289,502,1343,25229,24181,25878,27680,30626,15550
27387,65535,4004,210,181,176,174,170,2082,14399,338,171,160,160,162,164,4576,26395,634,316,303,301,301,300,2029,8126,731,695,666,668,669,664,470,474,11795,12814,11711,11608,591,477,524,524,12162,9634,13874,10821,634,532,1088,4039,28581,28670,25536,25109,31519,17278,501,1334,25287,24213,25841,27579,30615,15533
27373,65535,4040,210,181,176,171,171,2082,14377,340,169,163,162,161,162,4572,26351,639,316,304,304,298,302,2026,8110,731,691,668,667,667,666,467,472,11797,12807,11699,11590,591,477,521,518,12135,9602,13834,10782,634,532,1084,4033,28619,28699,25543,25098,31522,17275,499,1333,25327,24233,25829,27554,30621,15526
27372,65535,3999,211,180,176,175,170,2082,14372,340,167,161,159,159,164,4567,26326,634,315,303,301,303,299,2025,8108,732,691,667,668,670,664,468,475,11815,12824,11706,11600,590,478,519,521,12155,9626,13865,10835,635,533,1087,4037,28671,28750,25561,25125,31530,17285,499,1333,25364,24264,25831,27572,30628,15538
27390,65535,4040,210,181,176,171,171,2082,14383,341,168,162,161,161,158,4574,26343,639,317,303,300,300,299,2027,8118,734,693,662,667,671,665,470,473,11837,12852,11714,11614,589,478,521,525,12190,9660,13894,10855,636,533,1088,4045,28718,28817,25567,25141,31539,17290,502,1332,25379,24281,25847,27595,30642,15541
27400,65535,4001,213,183,177,172,169,2082,14386,340,167,162,161,162,164,4576,26352,633,316,302,302,301,298,2033,8128,734,692,669,668,667,667,469,472,11854,12872,11720,11619,593,478,521,521,12199,9666,13907,10871,636,533,1090,4048,28761,28863,25584,25165,31555,17301,500,1334,25415,24313,25857,27611,30643,15549
27424,65535,4041,213,182,175,170,175,2086,14403,341,167,160,164,161,163,4580,26382,637,315,304,301,300,299,2032,8128,734,693,668,670,670,667,469,473,11876,12907,11732,11648,593,479,523,524,12241,9721,13957,10949,640,535,1087,4059,28807,28932,25619,25218,31577,17314,500,1337,25441,24351,25874,27660,30667,15565
27461,65535,4003,209,183,178,171,172,2087,14423,338,169,163,160,161,159,4587,26423,637,317,303,301,301,301,2031,8138,734,695,672,670,670,671,470,478,11903,12953,11749,11682,595,477,522,525,12294,9783,14029,11035,642,538,1091,4070,28861,29009,25646,25277,31595,17337,503,1336,25467,24389,25902,27726,30684,15582
27501,65535,4046,211,183,176,174,170,2089,14452,341,166,160,161,164,159,4595,26481,641,316,305,302,300,301,2035,8151,735,695,673,670,671,669,472,476,11930,12996,11768,11714,595,483,526,527,12346,9841,14091,11118,643,540,1094,4085,28919,29092,25683,25339,31621,17359,505,1339,25497,24436,25937,27787,30705,15599
27539,65535,4010,212,182,177,172,170,2092,14483,339,167,165,162,164,165,4601,26542,637,316,304,301,301,300,2037,8165,736,697,673,671,673,671,471,477,11961,13045,11793,11751,596,484,532,531,12395,9901,14151,11191,645,542,1097,4101,28977,29175,25724,25404,31646,17378,505,1343,25540,24490,25977,27859,30734,15616
27585,65535,4052,211,180,175,171,173,2092,14515,343,167,163,164,159,160,4610,26612,644,319,305,301,301,302,2040,8179,737,698,675,673,673,671,475,482,11990,13090,11814,11788,600,485,529,530,12438,9957,14207,11263,652,547,1099,4113,29037,29267,25764,25471,31676,17407,507,1347,25587,24548,26015,27924,30758,15640
27640,65535,4015,210,183,174,173,174,2100,14543,342,171,163,160,162,159,4621,26674,641,320,303,305,301,303,2041,8198,737,700,673,675,675,672,474,478,12023,13141,11836,11833,600,484,535,533,12491,10021,14279,11353,653,548,1099,4127,29104,29358,25807,25549,31711,17428,505,1350,25630,24607,26063,28011,30789,15665
27683,65535,4061,210,182,178,172,175,2102,14580,342,171,163,159,160,159,4630,26745,648,318,305,303,302,303,2043,8207,736,699,673,673,675,669,477,482,12057,13189,11860,11857,601,483,535,535,12533,10057,14293,11335,654,545,1104,4147,29167,29445,25841,25582,31745,17441,508,1357,25680,24665,26099,28053,30813,15665
27652,65535,4013,210,176,175,175,172,2096,14527,339,169,163,163,160,161,4623,26647,640,316,303,301,303,302,2045,8201,735,697,668,672,671,669,474,481,12039,13133,11831,11775,591,482,531,531,12367,9827,14009,10964,640,535,1102,4126,29207,29411,25806,25488,31735,17423,505,1352,25733,24685,26079,27941,30795,15640
27596,65535,4049,210,183,179,170,174,2094,14473,341,167,161,159,160,164,4615,26552,643,316,304,302,303,301,2045,8183,736,696,671,672,674,666,472,477,12033,13099,11810,11738,593,479,524,523,12277,9741,13904,10863,637,534,1097,4105,29244,29423,25790,25454,31727,17411,503,1348,25769,24690,26052,27883,30787,15627
27573,65535,4005,211,181,175,176,171,2090,14438,339,167,163,162,157,162,4613,26501,641,316,302,301,303,302,2043,8161,733,695,671,670,671,667,474,479,12039,13092,11805,11723,595,482,522,523,12267,9719,13882,10841,636,535,1100,4095,29263,29423,25787,25441,31715,17406,505,1343,25796,24698,26036,27860,30788,15626
27583,65535,4043,212,182,175,172,171,2091,14434,344,166,162,161,161,164,4613,26498,641,317,304,303,302,300,2038,8150,734,694,672,671,668,665,470,475,12059,13117,11810,11740,596,479,522,523,12306,9762,13930,10902,638,535,1100,4101,29283,29457,25805,25467,31725,17407,505,1343,25814,24715,26041,27878,30792,15634
27582,65535,4004,211,180,175,172,177,2092,14436,338,167,165,164,162,160,4612,26482,641,317,303,303,301,304,2041,8156,732,694,673,671,671,667,473,475,12071,13131,11819,11751,594,480,524,522,12319,9771,13938,10903,638,535,1102,4105,29324,29484,25805,25468,31721,17412,505,1345,25828,24727,26049,27887,30791,15631
27578,65535,4044,211,183,175,172,173,2092,14437,342,167,163,160,161,164,4617,26483,639,317,303,303,303,300,2038,8159,735,695,669,667,669,668,471,477,12082,13149,11825,11761,597,481,525,524,12335,9793,13969,10956,640,537,1101,4103,29343,29516,25813,25494,31728,17415,503,1345,25831,24732,26046,27904,30799,15638
27599,65535,4003,211,182,177,172,173,2097,14446,337,171,167,161,161,160,4620,26503,638,316,306,302,298,301,2039,8160,734,699,670,670,670,667,472,479,12105,13187,11836,11790,598,483,526,526,12393,9857,14035,11042,641,541,1101,4111,29375,29567,25836,25535,31736,17429,510,1343,25854,24765,26073,27956,30810,15650
27627,65535,4047,211,179,175,171,170,2095,14464,341,170,164,162,161,158,4622,26535,642,316,303,304,301,301,2042,8170,735,696,671,676,671,668,472,477,12130,13222,11858,11822,598,484,528,530,12446,9918,14103,11129,648,541,1102,4122,29409,29617,25859,25587,31753,17444,503,1343,25863,24790,26095,28012,30826,15667
27656,65535,4011,210,182,177,167,172,2095,14490,339,171,160,160,162,163,4630,26587,637,317,304,302,301,302,2041,8178,735,698,670,670,672,669,476,479,12149,13263,11871,11858,599,483,529,531,12491,9977,14168,11207,647,544,1103,4134,29443,29676,25889,25637,31768,17462,503,1350,25889,24827,26123,28069,30842,15685
27689,65535,4052,210,183,175,172,172,2099,14516,342,171,162,165,161,161,4638,26636,646,316,305,303,305,302,2045,8189,739,697,671,671,674,670,475,481,12176,13299,11895,11895,601,485,530,532,12535,10029,14225,11281,651,548,1104,4147,29481,29738,25917,25694,31787,17479,505,1354,25913,24865,26154,28131,30865,15699
27728,65535,4014,211,184,177,175,174,2103,14539,339,167,163,162,162,158,4645,26690,642,318,303,302,301,303,2047,8195,737,699,673,673,673,672,476,479,12199,13341,11913,11927,601,485,536,535,12580,10085,14279,11357,654,548,1106,4160,29517,29803,25949,25754,31811,17501,510,1357,25941,24910,26194,28200,30883,15720
27769,65535,4057,213,181,175,172,171,2103,14564,343,168,162,165,162,161,4655,26753,647,317,305,302,303,302,2048,8207,738,698,675,674,675,669,477,480,12226,13389,11938,11976,602,488,537,537,12635,10156,14358,11455,659,551,1108,4171,29556,29868,25990,25821,31829,17526,506,1361,25975,24951,26237,28277,30910,15745
27811,65535,4019,210,181,174,173,169,2105,14597,341,167,161,161,161,164,4660,26793,645,318,305,303,302,303,2051,8223,738,697,672,671,672,669,481,482,12246,13408,11953,11967,606,485,536,540,12638,10129,14296,11319,653,543,1109,4189,29599,29913,25991,25805,31855,17520,507,1360,26005,24990,26259,28277,30916,15734
27731,65535,4051,210,182,175,171,171,2098,14503,341,169,167,163,161,163,4649,26647,643,317,303,302,302,303,2049,8193,736,696,670,670,671,668,474,479,12211,13327,11913,11881,600,482,529,529,12440,9888,14012,10986,642,536,1107,4145,29593,29831,25945,25701,31831,17490,507,1354,26043,24978,26208,28143,30895,15704
27675,65535,4005,210,181,173,172,170,2099,14448,340,166,163,161,165,159,4642,26539,638,317,303,303,299,301,2046,8165,735,700,668,669,667,667,472,480,12204,13289,11896,11851,597,475,526,524,12379,9822,13942,10910,637,535,1105,4127,29601,29776,25919,25651,31806,17470,508,1348,26055,24957,26176,28079,30872,15690
27634,65535,4039,211,181,175,172,169,2095,14399,340,167,163,163,164,162,4633,26460,641,317,303,301,301,300,2043,8138,731,693,667,668,669,663,472,475,12198,13265,11889,11839,595,480,526,523,12369,9802,13931,10909,637,535,1102,4111,29565,29722,25899,25619,31783,17453,505,1346,26048,24929,26157,28047,30865,15681
27629,65535,3998,210,178,175,170,171,2096,14391,339,165,164,159,165,161,4635,26442,637,319,303,303,301,301,2038,8129,731,693,668,668,668,664,471,476,12206,13276,11896,11851,595,481,526,526,12402,9839,13977,10957,639,536,1102,4111,29554,29703,25898,25613,31777,17450,509,1345,26039,24917,26150,28053,30861,15675
27605,65535,4035,213,184,173,174,175,2096,14377,341,165,159,160,159,161,4628,26396,639,315,302,303,300,303,2042,8123,731,692,667,669,667,666,472,475,12199,13265,11895,11850,598,480,526,524,12398,9835,13971,10957,639,537,1101,4104,29526,29655,25886,25597,31761,17442,504,1343,26023,24891,26140,28039,30852,15675
27588,65535,3995,210,184,176,175,170,2093,14369,338,167,164,161,160,165,4630,26369,633,316,303,301,304,301,2039,8119,732,693,667,667,669,665,470,476,12201,13271,11895,11860,596,480,524,524,12425,9868,14015,11021,642,538,1105,4100,29509,29635,25877,25607,31747,17439,506,1341,26002,24866,26133,28049,30851,15680
27594,65535,4035,213,182,174,172,170,2093,14369,341,167,162,161,161,162,4629,26385,638,316,303,302,301,301,2041,8115,734,695,671,670,670,671,471,475,12209,13290,11905,11889,597,479,525,526,12466,9919,14082,11105,643,540,1101,4107,29486,29627,25885,25629,31740,17444,504,1341,25985,24863,26147,28088,30850,15689
27612,65535,3996,212,180,176,172,172,2094,14387,338,160,163,170,161,161,4635,26409,636,316,302,302,302,303,2043,8125,735,697,675,675,673,670,474,475,12217,13308,11920,11915,601,483,527,525,12510,9971,14145,11186,647,544,1102,4111,29479,29633,25893,25659,31742,17453,506,1344,25977,24862,26159,28123,30856,15698
27623,65535,4038,209,181,176,176,171,2095,14407,339,167,164,164,164,160,4641,26444,640,319,302,301,299,300,2045,8132,739,697,672,672,671,669,474,479,12224,13334,11938,11952,600,484,529,530,12547,10021,14205,11261,649,543,1102,4116,29472,29645,25909,25693,31747,17461,508,1347,25975,24869,26170,28168,30865,15711
27652,65535,4000,211,180,177,175,173,2096,14425,339,170,164,171,160,164,4647,26481,636,317,303,302,304,301,2044,8135,735,699,671,671,673,669,474,479,12236,13356,11953,11980,600,483,530,531,12584,10066,14259,11331,654,545,1103,4124,29459,29651,25920,25735,31759,17474,506,1347,25966,24877,26197,28215,30875,15727
27683,65535,4042,217,181,174,175,170,2100,14447,341,167,167,159,163,160,4652,26529,641,318,302,302,300,304,2045,8142,741,698,671,675,672,670,474,479,12245,13382,11971,12013,604,487,533,533,12623,10123,14318,11411,654,548,1103,4134,29461,29684,25938,25777,31765,17491,506,1351,25969,24895,26225,28276,30895,15744
27720,65535,4005,210,180,177,174,168,2103,14472,339,169,162,162,158,161,4660,26579,639,317,307,301,303,302,2047,8153,737,697,672,672,675,669,475,482,12262,13415,11989,12047,604,486,536,537,12671,10182,14380,11488,659,550,1104,4144,29466,29715,25973,25831,31780,17507,510,1354,25982,24923,26257,28338,30907,15755
27727,65535,4042,211,183,175,171,171,2102,14466,342,171,163,163,161,158,4661,26552,642,316,306,301,301,303,2051,8160,736,695,672,669,671,671,478,479,12260,13388,11985,12003,601,483,536,536,12599,10057,14218,11216,648,543,1105,4141,29462,29659,25935,25748,31777,17480,507,1351,25992,24914,26250,28266,30894,15729
27619,65535,3995,211,181,175,174,171,2092,14359,339,169,169,159,162,170,4645,26387,635,315,303,304,299,301,2046,8118,734,699,669,669,668,667,475,479,12210,13291,11949,11934,597,480,526,527,12426,9863,14009,10996,642,536,1103,4096,29403,29523,25882,25644,31738,17447,507,1343,25993,24869,26189,28140,30866,15704
27569,65535,4027,212,185,175,174,172,2091,14309,338,166,159,162,162,158,4639,26288,637,316,302,303,300,299,2042,8092,733,693,668,670,667,664,471,476,12194,13247,11929,11901,593,480,524,524,12387,9810,13959,10940,637,535,1097,4074,29340,29399,25845,25571,31698,17414,503,1338,25968,24806,26147,28063,30839,15680
27527,65535,3984,211,181,175,173,170,2085,14268,337,167,165,165,158,165,4632,26220,632,316,302,300,301,299,2037,8067,731,693,671,668,669,665,471,475,12180,13219,11925,11901,596,479,522,525,12390,9821,13989,10987,641,536,1097,4059,29273,29308,25818,25540,31669,17401,505,1335,25939,24751,26125,28040,30825,15678
27519,65535,4020,210,181,178,173,171,2088,14265,336,170,166,163,165,157,4629,26190,635,315,302,301,298,300,2036,8064,731,691,667,668,667,664,469,475,12168,13204,11929,11901,595,477,524,525,12402,9830,14004,10999,639,536,1097,4054,29207,29227,25787,25500,31643,17380,503,1337,25882,24698,26099,28012,30810,15670
27492,65535,3977,210,183,177,171,169,2088,14240,336,171,163,161,166,154,4626,26157,631,315,300,300,299,300,2037,8057,729,693,667,667,668,665,468,473,12147,13178,11921,11896,594,480,523,523,12393,9820,14012,11014,640,538,1095,4043,29134,29141,25763,25475,31625,17370,506,1331,25845,24647,26079,27991,30802,15665
27483,65535,4017,208,183,174,171,169,2086,14241,339,167,166,162,162,159,4630,26153,633,318,301,299,300,299,2036,8051,732,693,668,667,671,665,470,475,12136,13174,11927,11917,597,481,525,524,12424,9863,14068,11093,642,537,1094,4042,29081,29088,25754,25483,31607,17369,504,1331,25809,24619,26070,28002,30789,15669
27499,65535,3978,210,180,175,171,170,2091,14249,337,167,161,166,161,163,4632,26169,630,316,305,301,300,299,2039,8059,733,694,668,672,669,666,469,477,12134,13181,11934,11941,597,479,528,525,12467,9914,14130,11177,644,538,1093,4047,29035,29060,25759,25495,31598,17373,503,1331,25781,24592,26076,28027,30792,15676
27522,65535,4020,213,181,175,172,170,2092,14272,340,168,165,162,159,159,4635,26199,635,315,303,301,300,299,2041,8070,733,695,671,671,669,667,470,475,12129,13189,11942,11966,599,483,527,527,12502,9966,14195,11256,649,539,1094,4051,29003,29051,25760,25527,31597,17383,505,1335,25751,24585,26081,28062,30797,15688
27545,65535,3983,209,180,175,173,170,2093,14293,336,171,163,165,162,163,4641,26241,633,315,302,299,301,299,2041,8077,737,699,670,672,670,667,471,477,12127,13206,11958,11991,598,481,530,527,12537,10008,14253,11328,650,543,1095,4059,28981,29036,25769,25557,31596,17389,505,1335,25738,24582,26097,28097,30802,15702
27576,65535,4026,209,180,174,171,171,2094,14317,339,168,162,161,157,161,4645,26287,638,318,303,301,300,303,2044,8084,737,697,671,673,671,670,471,476,12129,13217,11970,12021,602,482,531,532,12567,10051,14301,11396,652,549,1094,4065,28951,29038,25785,25593,31604,17401,505,1336,25725,24583,26109,28143,30809,15716
27617,65535,3989,204,182,175,171,171,2097,14343,339,169,163,162,161,161,4652,26351,634,316,303,301,301,301,2043,8093,735,696,671,674,670,671,472,477,12139,13246,11990,12055,604,482,532,533,12606,10108,14369,11486,658,552,1096,4074,28939,29051,25809,25643,31611,17420,506,1339,25722,24596,26130,28202,30824,15730
27658,65535,4033,211,181,174,175,171,2097,14373,341,165,164,162,164,158,4660,26399,642,317,302,303,300,300,2045,8105,737,696,671,671,670,668,473,477,12142,13258,12003,12068,600,483,535,537,12627,10120,14374,11444,653,545,1095,4087,28935,29062,25814,25643,31629,17418,507,1341,25715,24598,26144,28215,30827,15722
27594,65535,3982,210,184,176,172,171,2094,14297,338,169,164,163,160,160,4653,26283,635,315,301,301,302,302,2046,8090,731,697,668,670,667,665,471,477,12102,13162,11967,11984,598,479,531,530,12443,9884,14095,11097,644,538,1094,4054,28889,28924,25747,25517,31596,17377,506,1337,25712,24555,26099,28073,30798,15691
27530,65535,4015,208,182,174,175,171,2092,14233,342,167,161,162,164,167,4644,26177,635,319,302,300,299,301,2044,8059,730,693,667,668,667,665,469,474,12062,13097,11942,11938,595,477,526,524,12357,9791,14006,11007,639,534,1089,4023,28815,28799,25709,25439,31553,17345,502,1331,25681,24482,26048,27977,30774,15669
27493,65535,3973,211,181,174,172,170,2087,14194,338,167,170,167,161,164,4639,26118,631,315,301,302,299,299,2039,8036,731,691,667,668,666,665,469,474,12045,13056,11933,11926,597,478,523,526,12333,9766,13995,11005,642,537,1088,4012,28748,28693,25679,25390,31525,17325,505,1326,25644,24416,26010,27929,30759,15664
27493,65535,4011,211,180,175,174,170,2091,14194,338,167,162,160,163,162,4641,26113,634,316,303,301,299,300,2039,8033,731,693,668,669,668,665,468,473,12027,13045,11932,11927,595,479,527,524,12362,9800,14040,11048,639,539,1087,4007,28684,28630,25654,25364,31504,17316,503,1324,25599,24367,25996,27916,30745,15655
27479,65535,3972,213,182,175,172,172,2086,14187,336,167,162,159,164,158,4634,26084,629,315,301,304,296,300,2039,8035,733,693,667,666,668,668,472,471,12008,13017,11925,11918,591,477,523,523,12349,9776,14031,11043,639,536,1088,3999,28622,28551,25629,25335,31477,17300,503,1325,25561,24319,25969,27881,30731,15652
27477,65535,4010,210,182,176,171,172,2086,14182,337,170,163,164,161,166,4636,26075,634,313,301,300,300,299,2044,8037,733,693,667,668,668,666,468,472,11991,13007,11923,11929,595,477,525,523,12354,9797,14065,11098,644,537,1084,3996,28579,28508,25618,25325,31457,17293,502,1323,25512,24273,25953,27878,30722,15652
27493,65535,3970,211,180,175,174,172,2086,14195,337,167,165,161,159,162,4639,26108,631,318,301,298,300,303,2043,8042,733,693,670,669,669,668,469,474,11994,13010,11929,11947,594,479,525,527,12393,9846,14131,11177,643,539,1086,4002,28535,28484,25617,25346,31449,17296,504,1323,25481,24250,25956,27901,30719,15659
27523,65535,4015,210,183,177,174,169,2090,14223,338,169,160,161,160,159,4649,26153,635,313,303,301,300,300,2046,8053,735,695,672,669,671,668,472,478,11984,13023,11937,11973,595,481,528,527,12425,9890,14186,11252,647,541,1086,4006,28506,28474,25619,25372,31452,17307,503,1325,25449,24235,25963,27931,30723,15670
27557,65535,3975,211,180,176,171,170,2094,14245,336,168,163,165,161,165,4656,26204,636,317,302,303,300,300,2045,8063,733,694,671,672,671,669,469,475,11987,13035,11951,11999,597,480,531,530,12454,9932,14243,11324,649,542,1085,4016,28484,28477,25635,25404,31452,17319,509,1329,25434,24231,25972,27968,30733,15681
27595,65535,4019,210,181,175,172,171,2096,14270,339,167,163,152,159,160,4662,26259,637,319,304,301,300,301,2045,8072,737,698,674,672,672,668,471,477,11994,13054,11965,12026,598,481,530,530,12487,9973,14294,11388,652,545,1087,4028,28473,28499,25658,25448,31466,17326,503,1328,25427,24242,25992,28013,30747,15694
27635,65535,3982,209,181,174,171,170,2096,14303,337,165,161,162,161,158,4670,26323,636,317,306,300,300,302,2050,8083,740,697,672,673,676,668,474,476,11999,13079,11981,12059,600,485,532,534,12521,10022,14351,11470,655,548,1089,4036,28478,28525,25682,25494,31478,17343,505,1331,25422,24249,26011,28070,30755,15713
27684,65535,4023,210,179,177,170,171,2101,14331,340,164,165,161,159,160,4681,26372,639,317,301,301,300,304,2051,8102,738,699,671,673,673,669,476,477,12006,13089,11993,12053,599,482,535,535,12522,10007,14323,11374,652,543,1091,4050,28482,28532,25676,25481,31493,17338,505,1334,25413,24252,26029,28061,30757,15701
27617,65535,3977,210,180,175,175,170,2095,14248,340,167,162,165,159,161,4672,26261,633,315,303,301,302,301,2053,8085,735,698,671,674,672,668,470,474,11965,12995,11950,11973,594,478,530,529,12347,9793,14073,11082,641,535,1087,4014,28448,28425,25623,25364,31455,17301,507,1329,25419,24205,25975,27934,30731,15666
27577,65535,4012,210,183,175,172,171,2091,14207,338,171,157,165,161,164,4667,26188,637,315,304,301,302,299,2049,8067,735,692,668,669,671,668,469,471,11933,12947,11933,11941,593,478,524,527,12289,9727,14015,11019,640,535,1082,3994,28403,28336,25590,25306,31423,17280,504,1324,25388,24154,25933,27854,30708,15657
27557,65535,3972,210,181,174,172,170,2092,14188,332,168,161,164,162,161,4663,26167,632,316,299,300,299,301,2050,8057,732,695,670,672,670,667,469,473,11924,12930,11923,11932,594,478,525,527,12282,9728,14030,11059,641,537,1081,3990,28361,28287,25573,25290,31399,17266,505,1321,25353,24112,25911,27841,30699,15657
27580,65535,4012,217,181,177,171,171,2093,14204,339,165,163,161,159,161,4665,26182,636,317,307,301,299,297,2049,8066,733,694,671,670,671,667,468,473,11920,12921,11923,11936,594,477,524,525,12308,9750,14057,11078,640,537,1082,3991,28336,28263,25563,25268,31392,17260,504,1321,25324,24077,25902,27827,30698,15650
27568,65535,3971,207,180,176,171,174,2093,14189,335,166,163,161,163,159,4666,26176,633,315,302,300,301,304,2055,8071,733,695,669,670,671,670,471,471,11905,12907,11920,11931,594,477,525,526,12291,9734,14050,11073,642,538,1085,3988,28301,28221,25539,25246,31373,17251,503,1321,25300,24042,25885,27805,30681,15645
27582,65535,4013,206,183,177,173,169,2095,14200,338,168,160,161,159,160,4666,26191,635,311,301,301,296,300,2055,8073,735,696,671,669,670,668,468,473,11899,12909,11918,11939,594,480,527,526,12310,9767,14097,11141,639,537,1084,3991,28271,28210,25547,25271,31367,17253,501,1321,25273,24020,25875,27815,30679,15650
27615,65535,3974,212,182,177,172,172,2096,14220,336,166,163,161,158,159,4676,26242,631,321,302,303,301,303,2053,8082,735,696,672,668,671,669,468,472,11909,12924,11927,11960,594,478,526,527,12348,9813,14159,11218,646,539,1084,3997,28271,28226,25559,25295,31367,17261,504,1325,25257,24010,25882,27845,30683,15658
27652,65535,4019,211,181,176,172,173,2099,14247,337,170,162,160,159,162,4684,26296,639,315,303,300,301,300,2056,8091,736,696,673,673,671,670,471,473,11909,12947,11937,11983,597,479,529,527,12383,9862,14209,11289,648,540,1085,4006,28267,28247,25568,25329,31375,17268,504,1325,25244,24020,25895,27885,30689,15671
27692,65535,3981,210,181,175,171,171,2101,14278,338,167,164,166,160,163,4689,26351,635,315,303,301,305,301,2058,8106,735,696,673,674,673,669,466,473,11917,12966,11946,12009,598,479,529,531,12416,9903,14263,11355,649,543,1087,4019,28278,28279,25584,25372,31388,17283,504,1328,25248,24028,25910,27929,30698,15684
27736,65535,4024,217,182,175,173,174,2107,14310,339,167,162,166,164,165,4699,26421,643,316,303,297,299,299,2062,8117,739,697,671,672,671,671,471,476,11931,12997,11963,12041,599,481,533,533,12445,9949,14318,11429,653,546,1087,4030,28295,28330,25612,25425,31397,17299,503,1330,25253,24055,25939,27984,30717,15697
27783,65535,3989,213,180,175,175,171,2109,14341,338,167,163,160,158,161,4712,26498,637,315,302,302,299,303,2062,8130,737,698,675,671,674,669,473,477,11946,13024,11975,12061,599,480,536,534,12479,9982,14348,11443,656,548,1087,4042,28315,28373,25635,25457,31423,17309,509,1333,25263,24078,25959,28019,30725,15704
27766,65535,4024,209,181,175,171,171,2105,14301,338,171,161,161,161,161,4706,26427,641,315,303,301,301,300,2064,8130,736,696,675,673,670,668,470,475,11920,12961,11950,11980,596,478,531,531,12336,9787,14105,11107,643,536,1089,4024,28314,28310,25587,25338,31403,17280,504,1330,25271,24047,25932,27903,30703,15668
27701,65535,3978,210,181,176,172,171,2101,14231,335,167,160,160,161,162,4699,26329,633,322,304,303,301,299,2062,8113,734,695,668,669,670,666,467,471,11891,12895,11919,11926,597,477,525,521,12233,9673,13987,10988,637,535,1085,3996,28299,28241,25550,25267,31371,17245,505,1325,25260,23999,25877,27805,30678,15645
27676,65535,4015,209,180,174,172,170,2100,14198,338,166,164,162,161,163,4697,26287,641,317,303,303,304,302,2060,8100,735,695,668,673,670,668,468,473,11873,12859,11901,11900,593,476,522,519,12203,9637,13959,10961,638,533,1083,3985,28265,28183,25513,25214,31341,17225,499,1320,25241,23958,25842,27749,30662,15637
27685,65535,3974,210,183,175,173,172,2100,14199,335,167,162,165,158,161,4695,26300,637,315,303,300,300,304,2061,8097,732,693,669,671,672,668,467,471,11876,12863,11894,11905,591,476,521,522,12227,9668,14006,11023,638,538,1086,3984,28243,28167,25513,25205,31327,17217,503,1323,25214,23935,25828,27742,30652,15633
27687,65535,4017,209,181,175,172,170,2101,14205,337,167,162,160,161,161,4696,26283,637,319,301,301,300,304,2063,8111,734,695,671,672,670,667,466,471,11860,12849,11893,11892,593,476,523,522,12219,9661,14000,11007,639,535,1084,3984,28244,28161,25490,25176,31308,17206,502,1319,25183,23898,25817,27719,30643,15628
27692,65535,3975,211,181,174,175,170,2103,14204,337,166,163,161,158,162,4699,26299,634,319,307,301,301,299,2064,8112,735,695,669,670,676,668,467,473,11860,12853,11891,11897,593,477,526,523,12228,9673,14021,11054,642,535,1082,3983,28230,28149,25486,25175,31300,17206,506,1318,25166,23879,25805,27716,30631,15629
27714,65535,4015,210,180,175,175,173,2103,14214,339,167,167,158,163,163,4704,26343,637,319,303,302,301,299,2063,8113,735,695,676,671,671,669,467,473,11869,12871,11894,11913,594,477,523,524,12265,9721,14080,11123,641,537,1085,3994,28217,28167,25494,25201,31299,17209,502,1320,25160,23881,25799,27741,30632,15635
27747,65535,3978,209,181,174,172,169,2103,14243,336,168,159,158,162,161,4710,26393,637,316,304,303,300,301,2069,8132,734,696,670,671,670,671,470,473,11874,12892,11901,11935,595,480,525,527,12308,9770,14136,11200,644,539,1086,4002,28235,28201,25506,25238,31311,17221,500,1323,25153,23887,25818,27782,30636,15643
27783,65535,4021,213,181,176,171,170,2108,14276,339,171,163,161,162,162,4718,26445,641,316,307,302,302,299,2071,8149,735,697,673,672,675,672,470,473,11889,12918,11907,11955,594,478,527,529,12339,9814,14188,11266,646,541,1085,4015,28251,28241,25524,25271,31319,17234,501,1325,25149,23897,25835,27822,30645,15657
27818,65535,3985,211,182,177,171,170,2110,14303,338,166,161,160,162,160,4725,26509,637,317,299,301,301,302,2075,8164,739,698,671,672,672,670,474,476,11897,12944,11919,11979,597,481,527,528,12373,9859,14241,11335,649,544,1089,4023,28279,28295,25549,25321,31334,17254,503,1327,25159,23924,25853,27871,30654,15668
27869,65535,4027,212,181,175,174,170,2113,14330,340,165,163,164,164,164,4735,26580,642,317,305,302,300,302,2076,8168,738,699,677,673,673,673,471,475,11920,12980,11931,12008,598,481,533,532,12413,9910,14297,11399,651,543,1088,4039,28303,28345,25579,25371,31355,17269,503,1328,25176,23959,25880,27925,30668,15683
27893,65535,3988,210,181,176,170,173,2114,14338,338,170,160,162,161,159,4741,26589,637,316,305,300,300,302,2076,8185,737,698,672,671,671,670,471,474,11920,12966,11930,11975,595,476,532,532,12366,9825,14165,11179,643,539,1091,4042,28341,28357,25559,25311,31351,17244,505,1333,25198,23967,25883,27873,30656,15655
27809,65535,4021,211,182,173,173,170,2106,14247,339,168,163,161,161,161,4731,26462,638,315,305,303,309,305,2075,8163,736,696,673,672,670,669,469,471,11883,12883,11885,11887,591,477,525,525,12201,9635,13957,10952,637,533,1087,4003,28320,28275,25508,25205,31319,17213,504,1325,25203,23927,25830,27743,30628,15628
27783,65535,3977,210,181,174,174,172,2106,14207,336,164,167,165,158,158,4725,26398,638,318,301,300,303,301,2074,8148,733,695,670,669,671,670,466,467,11863,12838,11863,11841,590,474,519,519,12159,9581,13897,10884,633,528,1084,3986,28314,28227,25475,25135,31286,17179,506,1319,25189,23881,25781,27665,30605,15603
27755,65535,4015,214,181,175,173,170,2103,14184,337,166,163,162,164,161,4719,26364,639,315,307,299,302,301,2071,8134,737,695,672,669,671,669,466,471,11854,12821,11842,11825,591,473,518,519,12146,9575,13907,10914,635,532,1084,3978,28296,28196,25454,25108,31262,17163,503,1318,25166,23846,25753,27631,30585,15602
27768,65535,3975,211,184,176,171,170,2103,14189,335,167,163,165,164,163,4723,26385,636,316,303,301,301,301,2071,8140,734,694,668,672,669,667,466,469,11852,12826,11837,11819,591,475,519,521,12170,9593,13927,10925,635,533,1085,3982,28294,28195,25437,25082,31248,17154,502,1316,25146,23821,25735,27613,30571,15591
27761,65535,4013,211,181,175,174,172,2104,14181,337,167,162,166,165,161,4721,26374,638,316,303,307,299,300,2073,8140,735,697,672,671,669,669,465,470,11846,12814,11827,11810,589,475,519,520,12155,9585,13927,10932,635,532,1084,3978,28277,28179,25423,25063,31231,17147,505,1316,25130,23797,25719,27592,30558,15583
27772,65535,3976,210,181,175,172,170,2104,14188,335,170,161,162,158,162,4725,26395,634,315,304,301,300,300,2074,8146,736,697,669,671,674,668,466,470,11849,12828,11825,11816,591,476,521,522,12186,9624,13977,11001,637,534,1083,3982,28284,28195,25425,25078,31230,17145,504,1317,25111,23790,25712,27606,30556,15586
27799,65535,4018,211,180,178,173,174,2106,14210,338,167,167,159,160,164,4731,26441,640,317,303,302,299,299,2076,8153,737,696,670,673,670,667,467,470,11858,12848,11831,11835,592,475,522,521,12221,9672,14033,11078,640,535,1086,3991,28293,28231,25428,25105,31233,17152,497,1316,25101,23795,25711,27637,30551,15596
27830,65535,3980,210,182,174,175,171,2109,14235,336,171,163,162,159,164,4735,26489,638,315,303,300,303,300,2079,8169,737,698,673,674,674,670,466,470,11873,12876,11837,11855,593,477,523,525,12263,9718,14090,11151,646,537,1086,4001,28306,28269,25447,25140,31239,17166,503,1319,25091,23804,25725,27675,30559,15606
27865,65535,4023,211,183,177,172,171,2111,14264,339,170,159,159,161,157,4744,26542,643,317,303,302,301,300,2081,8179,740,698,674,672,669,671,469,472,11884,12903,11847,11879,596,478,528,525,12293,9764,14140,11214,647,539,1086,4011,28330,28313,25463,25177,31260,17179,505,1322,25095,23815,25743,27713,30571,15617
27901,65535,3986,210,181,176,173,174,2113,14297,338,167,163,161,160,159,4753,26607,639,315,302,301,301,301,2081,8191,739,700,673,675,670,675,469,474,11902,12936,11856,11905,597,479,527,529,12333,9814,14195,11285,647,541,1091,4023,28368,28375,25490,25233,31281,17202,510,1323,25107,23849,25771,27770,30584,15633
27945,65535,4028,209,181,175,172,172,2118,14327,340,170,161,161,161,161,4761,26675,645,317,304,305,302,300,2084,8201,741,701,677,682,673,671,472,474,11918,12972,11869,11930,598,480,529,532,12374,9866,14248,11346,651,545,1089,4039,28390,28438,25522,25280,31300,17218,503,1327,25124,23881,25794,27818,30601,15638
27951,65535,3987,210,180,174,172,171,2116,14315,337,169,163,162,164,165,4762,26649,641,317,302,301,301,300,2086,8211,738,701,673,673,679,669,471,475,11916,12941,11859,11871,591,477,529,529,12291,9734,14065,11061,639,533,1091,4034,28430,28426,25489,25190,31295,17188,505,1325,25144,23879,25790,27742,30581,15607
27872,65535,4022,208,181,174,171,175,2109,14226,338,166,167,162,164,165,4753,26530,646,318,303,305,301,299,2086,8187,738,698,669,671,671,670,467,472,11878,12863,11816,11795,589,473,522,521,12150,9573,13893,10881,632,531,1085,3996,28415,28361,25443,25097,31261,17157,501,1319,25150,23842,25727,27623,30548,15575
27840,65535,3977,211,180,171,172,170,2107,14186,335,167,160,161,164,166,4745,26466,639,315,303,300,299,300,2083,8166,734,696,670,671,670,668,467,469,11867,12822,11787,11746,588,472,517,518,12112,9523,13837,10814,631,530,1085,3982,28405,28308,25412,25018,31234,17124,502,1316,25135,23801,25685,27544,30525,15553
27823,65535,4015,210,181,175,171,172,2106,14167,337,167,163,158,162,161,4742,26438,642,316,303,301,300,300,2080,8159,735,697,677,671,673,669,465,465,11859,12813,11773,11734,589,475,518,519,12120,9535,13859,10859,633,533,1083,3975,28401,28299,25389,24999,31211,17117,501,1313,25119,23781,25663,27523,30517,15547
27830,65535,3975,209,183,177,174,171,2106,14170,338,167,162,162,160,165,4745,26438,636,315,301,301,302,300,2079,8162,734,695,670,671,671,669,465,469,11860,12813,11768,11726,589,469,521,518,12131,9541,13869,10859,633,531,1085,3977,28403,28291,25369,24971,31198,17098,502,1312,25103,23751,25644,27500,30500,15536
27820,65535,4013,211,180,176,173,171,2104,14162,340,170,165,157,159,162,4745,26434,639,316,302,300,301,302,2081,8162,735,695,670,670,673,670,464,469,11854,12807,11757,11713,588,474,519,519,12126,9542,13874,10880,633,531,1083,3974,28380,28279,25356,24955,31189,17095,504,1313,25089,23733,25625,27476,30480,15531
27823,65535,3976,209,180,175,171,169,2103,14171,337,165,161,162,165,159,4746,26452,641,317,307,303,301,301,2083,8167,738,696,677,671,676,671,467,469,11862,12825,11757,11724,589,480,519,520,12159,9587,13923,10942,635,534,1085,3978,28401,28304,25361,24965,31191,17097,500,1308,25077,23735,25623,27491,30482,15531
27848,65535,4016,216,181,175,172,172,2108,14197,339,167,166,161,156,163,4751,26495,641,316,302,303,300,299,2085,8179,739,699,674,675,674,673,468,472,11866,12844,11759,11741,591,476,523,522,12193,9630,13983,11022,640,535,1083,3987,28402,28326,25363,24992,31197,17107,501,1310,25050,23721,25626,27523,30475,15541
27878,65535,3980,208,186,178,171,170,2109,14218,336,168,163,162,161,161,4755,26532,638,315,301,302,300,302,2086,8189,739,702,681,673,674,673,467,471,11875,12868,11767,11762,592,476,525,523,12238,9678,14040,11095,641,540,1086,3997,28411,28363,25382,25028,31210,17122,502,1312,25045,23733,25638,27559,30486,15550
27911,65535,4021,211,182,175,174,179,2112,14248,338,167,164,166,159,164,4765,26587,643,317,302,301,299,299,2087,8199,740,702,674,675,675,678,469,476,11890,12893,11777,11785,593,477,525,525,12271,9727,14088,11158,644,537,1086,4006,28438,28409,25402,25060,31229,17137,501,1316,25050,23754,25659,27598,30490,15563
27944,65535,3986,210,178,177,173,174,2116,14271,339,165,163,160,161,159,4773,26641,639,317,303,299,302,304,2087,8211,740,700,673,674,674,674,468,474,11910,12929,11787,11814,594,478,530,531,12315,9776,14139,11229,646,541,1087,4021,28465,28468,25427,25112,31252,17156,504,1317,25071,23791,25679,27657,30507,15578
27986,65535,4027,211,180,175,173,171,2119,14301,341,170,163,162,160,157,4777,26703,643,316,304,303,300,301,2091,8220,742,702,677,679,675,671,467,474,11931,12965,11801,11841,596,479,528,531,12360,9832,14199,11301,649,542,1089,4032,28495,28518,25460,25167,31270,17172,501,1320,25093,23825,25709,27713,30525,15594
28013,65535,3988,213,180,175,172,168,2117,14311,338,168,167,161,160,160,4781,26710,645,317,303,303,302,301,2095,8236,740,699,678,675,674,671,474,475,11934,12958,11801,11808,593,480,529,533,12322,9754,14077,11082,642,537,1093,4039,28535,28530,25441,25109,31283,17155,503,1323,25117,23839,25722,27665,30511,15561
27925,65535,4021,210,184,177,172,171,2108,14218,339,167,162,159,160,159,4771,26574,644,319,303,302,301,300,2091,8208,739,700,673,677,669,674,467,472,11897,12873,11755,11716,591,474,523,521,12155,9564,13863,10854,636,531,1085,3997,28517,28453,25391,25004,31259,17124,504,1317,25129,23812,25662,27539,30482,15531
27889,65535,3977,210,180,175,168,171,2107,14180,337,167,164,165,161,163,4762,26510,637,314,302,302,301,300,2086,8181,738,698,673,673,672,667,466,470,11885,12835,11727,11674,588,477,519,519,12115,9514,13809,10783,631,528,1085,3979,28506,28396,25361,24934,31229,17096,502,1311,25125,23786,25622,27462,30462,15505
27857,65535,4014,211,181,172,173,170,2105,14153,337,170,162,163,160,163,4760,26463,643,316,304,303,301,301,2084,8169,739,696,671,668,672,670,466,468,11877,12821,11714,11655,590,475,519,517,12111,9518,13822,10818,635,530,1082,3974,28491,28375,25338,24903,31210,17083,501,1305,25114,23757,25595,27435,30448,15503
27866,65535,3976,210,181,174,176,172,2104,14159,335,167,167,165,161,163,4759,26466,636,315,303,301,298,300,2086,8172,736,697,673,674,671,670,469,472,11879,12821,11709,11649,590,473,519,520,12138,9535,13833,10829,634,530,1085,3976,28487,28368,25326,24879,31199,17076,504,1311,25099,23737,25581,27413,30431,15492
27854,65535,4014,213,179,169,171,169,2105,14145,337,167,163,162,161,159,4757,26450,641,315,301,300,300,300,2086,8170,739,698,671,672,674,671,465,469,11873,12816,11699,11639,588,474,519,522,12131,9532,13838,10841,631,530,1083,3970,28470,28346,25307,24856,31195,17071,501,1305,25091,23722,25560,27393,30422,15484
27855,65535,3974,209,180,176,172,173,2105,14157,339,167,159,160,163,160,4759,26458,634,315,305,303,299,303,2088,8175,740,699,675,674,673,671,465,471,11880,12827,11695,11647,587,474,518,519,12166,9578,13884,10905,635,531,1083,3973,28475,28361,25318,24878,31187,17074,500,1303,25084,23727,25555,27409,30420,15493
27885,65535,4015,206,181,175,176,170,2106,14175,342,167,160,161,163,160,4763,26491,641,315,301,304,300,300,2087,8179,739,699,674,676,673,675,465,469,11886,12853,11706,11665,590,475,519,520,12209,9626,13944,10983,637,535,1083,3980,28485,28391,25323,24899,31203,17088,501,1306,25083,23739,25562,27440,30424,15499
27898,65535,3979,209,180,178,173,170,2109,14198,340,167,159,164,158,160,4769,26534,636,315,305,300,301,301,2089,8187,740,699,673,676,675,671,467,470,11901,12877,11717,11686,591,479,523,522,12251,9681,14000,11058,640,539,1088,3990,28497,28419,25340,24936,31221,17103,501,1307,25087,23754,25574,27482,30435,15509
27938,65535,4019,210,182,175,173,170,2111,14227,340,171,163,166,158,162,4775,26579,643,315,305,301,300,301,2091,8197,741,700,677,675,675,675,469,471,11915,12910,11723,11711,596,473,524,524,12291,9728,14055,11124,642,539,1084,4001,28510,28457,25362,24982,31239,17117,501,1311,25103,23779,25597,27526,30450,15524
27962,65535,3982,210,186,174,174,172,2113,14257,339,168,163,163,158,157,4779,26626,640,318,301,302,301,301,2093,8207,742,703,677,678,677,677,469,472,11935,12938,11737,11741,593,478,525,528,12329,9775,14102,11189,644,538,1087,4012,28539,28511,25386,25026,31266,17140,502,1311,25117,23808,25624,27582,30466,15539
28011,65535,4027,210,181,175,172,174,2117,14287,338,167,166,161,159,160,4787,26690,648,317,303,302,302,301,2095,8217,744,703,675,677,676,677,467,474,11951,12975,11756,11773,593,478,528,529,12375,9833,14166,11275,650,542,1089,4026,28567,28564,25422,25089,31294,17162,503,1314,25144,23851,25655,27645,30491,15556
28047,65535,3990,211,180,177,171,170,2120,14317,338,165,163,166,164,164,4794,26743,641,317,303,303,303,301,2095,8230,743,703,677,678,677,674,466,473,11975,13006,11769,11790,597,477,530,529,12414,9866,14184,11255,646,539,1091,4039,28599,28614,25445,25109,31327,17169,503,1319,25166,23887,25688,27679,30507,15553
28007,65535,4022,206,183,177,172,174,2112,14259,343,169,162,158,158,160,4790,26650,644,315,303,301,300,301,2096,8220,741,701,675,675,674,671,469,473,11945,12936,11738,11697,591,475,526,526,12243,9650,13913,10911,635,532,1088,4012,28601,28543,25396,24998,31309,17139,502,1311,25194,23888,25655,27551,30479,15517
27943,65535,3978,213,187,174,172,173,2110,14201,335,167,162,162,162,159,4777,26545,636,316,301,302,300,301,2093,8192,739,699,674,673,674,673,465,474,11923,12880,11707,11646,586,472,519,519,12165,9561,13821,10813,631,530,1087,3989,28588,28486,25364,24932,31287,17119,502,1307,25199,23851,25612,27473,30460,15500
27914,65535,4016,210,180,174,167,169,2105,14168,338,168,166,163,157,161,4774,26488,645,317,302,301,300,304,2091,8171,738,699,673,673,672,674,464,471,11910,12854,11689,11617,591,475,518,518,12144,9537,13794,10799,630,531,1087,3977,28567,28436,25338,24877,31274,17106,504,1303,25198,23834,25582,27430,30444,15488
27916,65535,3975,209,183,174,171,172,2110,14169,334,164,163,169,164,161,4774,26487,637,318,303,305,300,303,2088,8165,738,700,673,673,674,673,465,469,11917,12864,11690,11621,587,474,520,518,12181,9578,13839,10844,633,532,1087,3978,28558,28432,25340,24874,31272,17102,501,1304,25197,23835,25579,27428,30443,15482
27903,65535,4016,214,181,179,175,171,2109,14167,337,165,163,158,162,158,4770,26458,643,316,304,301,300,299,2091,8167,741,699,675,675,675,671,465,469,11913,12855,11683,11610,586,473,517,520,12176,9570,13828,10833,632,529,1083,3978,28549,28407,25329,24852,31261,17094,499,1300,25189,23823,25566,27403,30437,15476
27899,65535,3975,210,184,178,173,177,2109,14168,335,176,149,161,160,159,4769,26457,637,318,302,301,301,301,2092,8167,738,700,673,675,678,673,464,469,11914,12861,11679,11614,586,474,520,519,12195,9592,13861,10884,633,533,1086,3975,28550,28412,25320,24863,31264,17096,501,1300,25179,23817,25559,27413,30436,15479
27916,65535,4014,210,182,175,174,170,2109,14185,337,166,163,161,157,160,4777,26482,640,318,301,301,299,301,2089,8169,740,703,675,676,677,674,467,469,11926,12880,11688,11633,589,479,520,518,12238,9647,13919,10965,637,533,1085,3983,28540,28425,25332,24889,31275,17107,501,1304,25187,23831,25569,27447,30440,15489
27947,65535,3979,210,183,175,167,168,2111,14207,338,165,162,165,163,163,4777,26518,637,316,303,300,300,301,2094,8180,740,700,675,677,676,673,470,469,11934,12905,11699,11656,591,476,521,523,12279,9699,13979,11039,639,536,1086,3994,28549,28448,25348,24926,31293,17123,500,1303,25187,23847,25592,27493,30455,15502
27972,65535,4020,210,182,178,171,170,2114,14237,338,166,161,163,162,162,4786,26563,642,316,302,301,300,304,2093,8183,742,699,678,676,677,677,467,473,11945,12933,11713,11684,591,477,524,525,12316,9747,14033,11109,641,537,1087,4003,28558,28479,25373,24970,31309,17140,501,1305,25192,23869,25610,27537,30473,15520
28001,65535,3984,210,182,175,173,170,2120,14260,338,170,165,158,162,165,4790,26605,638,319,303,305,302,300,2094,8191,745,705,677,677,676,675,467,473,11965,12959,11725,11713,591,476,527,527,12357,9795,14083,11172,644,539,1088,4014,28576,28518,25401,25016,31336,17160,502,1306,25217,23895,25636,27590,30493,15532
28045,65535,4027,214,177,177,173,170,2119,14295,340,168,166,159,161,161,4797,26666,642,319,303,302,300,303,2095,8199,745,704,677,678,679,675,469,476,11982,12995,11747,11746,594,481,526,527,12399,9850,14145,11251,647,543,1089,4023,28598,28569,25437,25074,31359,17187,500,1311,25232,23941,25671,27655,30514,15553
28083,65535,3990,210,181,176,172,171,2123,14325,341,170,161,159,161,162,4804,26723,641,316,307,302,300,301,2099,8211,743,703,678,679,677,675,470,476,12003,13033,11765,11775,596,479,529,532,12444,9903,14193,11295,648,543,1093,4041,28629,28627,25468,25123,31395,17200,501,1315,25258,23979,25709,27709,30536,15562
28073,65535,4026,206,182,175,175,171,2122,14294,339,171,167,165,161,160,4801,26663,643,316,303,300,300,301,2101,8215,745,702,675,675,675,673,467,471,11983,12981,11749,11706,593,480,529,529,12321,9730,13963,10974,637,532,1093,4026,28638,28566,25433,25025,31389,17177,505,1313,25292,23985,25698,27619,30523,15533
28001,65535,3979,213,180,174,173,171,2115,14229,337,167,161,159,165,172,4791,26550,638,316,303,302,300,300,2098,8184,742,700,675,674,674,672,467,471,11956,12918,11714,11649,590,474,520,522,12215,9613,13837,10847,632,531,1085,3997,28619,28501,25401,24956,31372,17158,501,1306,25304,23964,25653,27535,30511,15516
27977,65535,4017,210,182,176,173,172,2114,14204,342,167,163,160,159,164,4785,26492,641,319,303,303,303,301,2091,8160,739,701,678,673,676,675,465,469,11950,12895,11702,11625,585,472,519,519,12198,9588,13811,10827,633,531,1089,3988,28594,28446,25383,24916,31366,17149,504,1302,25309,23953,25631,27495,30504,15511
27972,65535,3977,210,181,178,172,173,2116,14203,336,171,163,162,168,175,4784,26490,636,316,302,301,299,301,2093,8160,739,700,675,675,675,673,466,468,11955,12901,11702,11631,589,475,518,521,12233,9631,13862,10889,634,532,1089,3987,28581,28437,25383,24924,31373,17153,501,1305,25302,23951,25635,27507,30506,15510
27971,65535,4015,211,181,178,171,170,2117,14211,340,167,163,162,162,161,4782,26467,639,315,306,301,300,302,2093,8165,740,702,676,675,677,672,464,470,11949,12893,11703,11625,588,476,519,521,12230,9628,13854,10876,635,534,1089,3989,28571,28407,25377,24904,31365,17149,503,1301,25299,23944,25632,27493,30504,15509
27963,65535,3979,210,180,176,171,173,2119,14210,336,165,166,168,164,160,4787,26463,636,320,304,302,299,301,2093,8164,740,701,677,676,675,675,466,469,11944,12896,11703,11633,588,475,521,521,12242,9645,13879,10921,635,533,1087,3987,28559,28401,25373,24913,31374,17153,503,1303,25293,23941,25624,27507,30512,15517
27985,65535,4016,214,181,175,173,170,2119,14223,339,167,164,164,165,157,4787,26491,641,317,303,303,299,299,2093,8158,743,701,678,676,677,672,467,471,11956,12913,11709,11655,590,475,521,521,12282,9697,13943,10999,638,531,1089,3993,28550,28411,25390,24953,31380,17165,501,1303,25293,23957,25639,27539,30515,15523
28011,65535,3977,211,181,178,172,174,2123,14250,338,170,167,161,162,159,4794,26525,638,315,303,302,300,303,2093,8169,741,704,677,676,677,676,467,471,11964,12938,11726,11681,591,475,523,524,12327,9755,14000,11078,641,536,1089,3999,28555,28434,25411,24987,31398,17180,503,1306,25299,23973,25656,27587,30529,15541
28044,65535,4020,209,180,174,175,174,2124,14276,343,167,162,166,162,166,4798,26563,642,315,305,300,300,299,2099,8178,741,704,677,677,676,675,468,472,11974,12961,11737,11710,592,478,524,525,12367,9803,14058,11147,646,538,1091,4012,28563,28466,25434,25031,31415,17199,503,1307,25309,23994,25679,27633,30550,15555
28067,65535,3985,213,184,175,172,171,2128,14307,338,167,163,162,163,161,4805,26611,638,316,303,302,301,302,2096,8184,741,702,678,677,677,675,468,474,11989,12987,11753,11740,595,478,527,527,12408,9851,14113,11217,648,543,1089,4023,28583,28502,25466,25084,31441,17219,503,1310,25325,24022,25712,27694,30572,15572
28111,65535,4026,209,183,175,173,174,2128,14340,340,165,159,162,157,163,4814,26673,644,316,303,302,300,301,2097,8194,744,704,678,681,678,675,471,475,12009,13023,11774,11773,597,479,530,530,12448,9906,14175,11298,649,543,1093,4031,28593,28544,25501,25144,31468,17239,503,1315,25345,24062,25749,27760,30597,15591
28154,65535,3990,210,181,175,170,170,2134,14367,338,165,158,157,160,164,4817,26714,644,320,303,303,303,301,2099,8208,743,702,677,677,678,675,471,475,12024,13050,11791,11783,596,477,531,534,12471,9914,14159,11225,647,539,1095,4049,28622,28578,25513,25154,31497,17244,504,1317,25367,24092,25779,27780,30618,15592
28087,65535,4022,207,181,174,171,171,2129,14295,340,167,165,165,160,166,4807,26598,642,316,301,301,300,303,2102,8195,741,702,677,677,677,677,471,472,11987,12960,11758,11697,594,476,525,525,12291,9693,13898,10905,634,533,1092,4015,28607,28486,25470,25039,31483,17219,503,1314,25392,24084,25741,27653,30597,15565
28033,65535,3980,210,182,174,171,171,2124,14247,336,164,163,160,160,161,4797,26496,636,316,304,304,296,299,2101,8167,741,703,677,675,676,673,468,472,11964,12911,11731,11653,592,477,519,522,12229,9621,13823,10826,629,530,1091,3993,28576,28405,25437,24983,31463,17202,502,1305,25393,24053,25707,27594,30583,15543
28006,65535,4013,209,183,175,172,171,2124,14219,338,167,161,165,157,160,4791,26434,642,315,304,301,301,304,2095,8145,740,699,676,674,675,673,467,465,11951,12885,11722,11636,589,474,520,518,12211,9601,13809,10836,632,532,1088,3985,28542,28340,25417,24946,31450,17195,500,1304,25383,24032,25687,27561,30583,15541
28008,65535,3975,210,181,177,172,171,2125,14221,337,166,160,162,162,163,4792,26438,637,315,302,301,299,300,2093,8137,739,701,675,675,675,673,465,469,11955,12888,11724,11642,587,476,519,520,12247,9646,13857,10875,631,531,1088,3984,28515,28320,25417,24948,31456,17196,503,1306,25378,24023,25684,27565,30582,15543
27994,65535,4012,215,184,175,172,171,2126,14220,339,171,161,161,152,162,4790,26409,639,314,302,302,299,300,2095,8140,741,701,677,678,675,672,463,471,11944,12874,11720,11636,589,477,523,519,12238,9632,13846,10866,633,531,1087,3979,28487,28271,25407,24930,31450,17190,501,1303,25367,24013,25675,27547,30580,15540
27987,65535,3972,210,180,174,175,173,2124,14223,337,167,165,164,165,159,4791,26396,635,315,302,301,300,301,2095,8141,741,702,680,678,679,675,466,470,11943,12878,11723,11651,587,474,519,522,12259,9663,13891,10925,635,531,1089,3981,28479,28265,25412,24942,31453,17193,503,1302,25356,24007,25676,27567,30589,15548
28007,65535,4015,212,183,175,171,170,2127,14243,340,167,162,161,159,161,4793,26425,639,315,303,301,301,303,2096,8146,741,702,676,680,678,675,464,470,11946,12893,11733,11671,590,476,520,521,12296,9713,13950,11007,641,535,1089,3985,28466,28273,25422,24975,31459,17206,503,1306,25344,24006,25688,27602,30593,15560
28032,65535,3976,210,183,176,171,175,2132,14263,337,171,162,163,163,158,4800,26463,637,316,302,302,299,300,2095,8152,741,701,677,678,677,677,465,470,11955,12910,11746,11695,591,475,523,525,12337,9765,14015,11086,640,535,1087,3996,28456,28285,25443,25015,31471,17219,506,1307,25341,24015,25710,27649,30607,15577
28059,65535,4018,212,181,176,172,171,2131,14292,343,165,168,158,162,157,4805,26507,640,316,303,302,301,300,2099,8167,743,704,678,677,680,675,467,472,11966,12933,11763,11726,591,477,524,526,12375,9809,14067,11155,643,537,1093,4004,28462,28310,25469,25057,31488,17237,502,1310,25337,24031,25729,27694,30626,15589
28091,65535,3983,211,181,177,174,171,2134,14318,338,166,162,160,162,163,4809,26559,637,317,301,302,301,301,2101,8177,743,703,679,679,679,677,467,472,11975,12959,11776,11756,593,479,526,526,12409,9855,14118,11221,645,539,1095,4016,28471,28346,25495,25109,31510,17261,503,1311,25347,24052,25756,27749,30648,15608
28129,65535,4025,217,180,175,170,170,2141,14355,340,164,163,165,161,163,4819,26614,645,317,304,303,303,306,2103,8185,745,704,683,682,683,679,471,475,11992,12989,11797,11791,594,478,529,528,12451,9910,14177,11297,648,540,1093,4028,28491,28386,25529,25167,31535,17279,502,1314,25357,24075,25793,27813,30670,15624
28165,65535,3986,210,184,174,172,173,2139,14373,337,166,162,160,165,160,4824,26641,640,318,304,302,301,299,2105,8200,744,705,679,679,678,676,471,472,11996,12991,11803,11773,591,475,529,527,12433,9861,14104,11139,641,535,1097,4034,28515,28394,25529,25139,31553,17271,505,1317,25367,24094,25810,27796,30674,15611
28069,65535,4015,210,181,175,172,171,2132,14276,340,165,163,161,164,163,4811,26502,642,316,304,303,297,298,2105,8167,743,702,678,681,677,675,467,470,11954,12890,11762,11683,587,473,524,521,12244,9638,13855,10855,633,529,1087,3996,28475,28266,25481,25025,31527,17246,504,1309,25382,24054,25759,27663,30650,15583
28018,65535,3973,212,181,177,170,171,2129,14225,337,168,162,161,164,163,4801,26402,635,314,302,301,300,298,2099,8141,741,700,675,675,675,673,464,470,11930,12835,11739,11639,585,473,519,519,12190,9573,13791,10778,629,527,1089,3975,28431,28178,25438,24955,31509,17217,504,1303,25360,24009,25719,27581,30643,15561
27981,65535,4007,211,183,175,171,174,2125,14189,341,171,161,163,159,161,4796,26330,637,315,299,298,303,299,2095,8121,740,699,673,674,674,673,466,467,11908,12798,11723,11622,586,472,516,515,12163,9551,13777,10785,632,528,1086,3960,28382,28085,25416,24908,31488,17207,502,1301,25325,23954,25688,27543,30626,15558
27978,65535,3969,210,181,174,172,170,2125,14190,336,171,162,159,161,160,4794,26319,634,315,303,303,301,303,2094,8115,739,701,675,675,675,672,464,467,11903,12791,11727,11625,587,474,517,516,12194,9579,13815,10816,632,531,1086,3959,28340,28047,25404,24896,31475,17203,502,1301,25300,23927,25672,27530,30619,15552
27959,65535,4005,215,181,175,175,170,2127,14182,339,163,162,161,166,165,4791,26287,636,319,309,307,298,299,2096,8120,739,701,676,675,674,674,464,469,11889,12771,11722,11616,585,473,517,517,12182,9561,13813,10817,631,528,1085,3953,28299,27986,25389,24873,31461,17193,503,1302,25266,23891,25662,27507,30616,15555
27950,65535,3965,209,181,175,171,170,2128,14185,335,172,163,162,159,161,4790,26283,633,314,301,300,305,301,2095,8120,738,701,674,677,680,675,460,466,11878,12769,11720,11625,585,475,518,519,12195,9590,13857,10881,632,531,1087,3953,28268,27963,25386,24885,31464,17199,503,1297,25226,23857,25652,27515,30621,15556
27963,65535,4007,211,184,176,171,171,2127,14199,337,170,163,163,160,165,4795,26313,640,316,303,295,300,300,2100,8129,745,704,679,678,679,678,463,469,11879,12781,11731,11645,589,473,518,518,12228,9637,13911,10955,636,532,1086,3958,28259,27963,25388,24907,31470,17209,503,1300,25199,23833,25659,27541,30622,15570
27983,65535,3969,210,182,178,172,172,2130,14222,333,168,163,162,161,158,4797,26352,635,316,303,303,302,301,2103,8140,743,704,677,677,678,678,465,469,11878,12792,11738,11673,589,474,521,521,12261,9678,13977,11034,638,534,1087,3966,28231,27955,25405,24944,31471,17226,503,1302,25161,23816,25673,27581,30636,15583
28019,65535,4011,212,181,174,173,171,2133,14244,341,167,165,163,161,158,4804,26392,639,315,302,301,300,300,2103,8147,743,704,678,678,677,675,465,470,11881,12809,11756,11698,590,475,523,524,12290,9723,14031,11103,640,535,1087,3975,28218,27971,25428,24983,31487,17240,504,1303,25140,23810,25689,27621,30655,15597
28050,65535,3974,212,182,175,171,171,2134,14273,338,165,159,160,165,161,4808,26451,639,313,306,300,300,300,2104,8157,741,703,677,677,679,675,467,470,11893,12831,11771,11730,590,476,525,524,12324,9766,14085,11172,643,537,1090,3983,28225,28001,25451,25034,31516,17258,503,1307,25135,23823,25715,27676,30672,15615
28094,65535,4017,211,183,177,173,171,2139,14306,340,166,160,159,160,160,4817,26510,640,315,303,302,305,303,2102,8168,743,703,679,678,679,677,466,475,11908,12861,11789,11762,593,478,525,524,12365,9819,14144,11252,646,540,1091,3996,28239,28041,25485,25091,31532,17277,504,1309,25140,23843,25746,27734,30696,15632
28129,65535,3980,210,184,177,170,171,2139,14334,339,171,163,161,165,161,4827,26568,645,316,304,299,300,300,2107,8179,743,704,676,677,678,675,471,472,11923,12884,11805,11780,592,475,528,529,12391,9840,14158,11218,644,535,1093,4011,28267,28075,25503,25107,31555,17286,503,1311,25150,23862,25772,27757,30706,15632
28077,65535,4014,213,183,177,172,171,2135,14261,343,167,163,157,161,161,4817,26454,639,315,303,300,302,300,2106,8169,741,702,677,676,676,673,465,471,11881,12795,11770,11682,587,473,523,522,12203,9601,13881,10869,633,529,1090,3979,28244,27967,25455,24982,31538,17250,504,1308,25157,23827,25731,27621,30687,15604
28005,65535,3968,212,181,175,172,171,2130,14197,336,164,163,160,162,161,4807,26349,638,315,307,301,299,302,2101,8140,739,701,674,676,671,672,462,468,11853,12729,11741,11637,586,471,517,517,12120,9511,13791,10770,629,529,1086,3952,28209,27875,25416,24911,31508,17229,505,1301,25139,23772,25690,27533,30673,15583
27961,65535,4004,212,181,174,171,170,2125,14151,336,168,162,161,161,157,4801,26268,637,315,304,303,302,298,2099,8121,740,699,674,676,674,672,462,467,11824,12684,11725,11604,585,470,511,513,12079,9467,13753,10736,629,526,1083,3936,28157,27778,25379,24847,31483,17212,503,1298,25107,23712,25651,27466,30656,15571
27952,65535,3963,209,182,175,172,174,2127,14151,339,171,162,160,161,159,4797,26269,633,314,301,300,300,301,2101,8114,740,705,675,675,673,673,465,467,11821,12678,11722,11611,583,469,514,514,12107,9498,13802,10795,629,526,1085,3936,28123,27745,25376,24846,31470,17205,502,1295,25077,23675,25634,27463,30659,15578
27942,65535,3997,210,181,176,171,170,2128,14148,337,167,163,160,160,161,4796,26245,638,315,304,301,303,306,2101,8123,740,701,677,677,676,676,461,464,11806,12660,11719,11601,584,469,518,516,12097,9488,13797,10791,630,527,1082,3932,28094,27698,25357,24814,31453,17194,501,1296,25035,23635,25621,27432,30650,15571
27935,65535,3961,211,180,175,174,173,2126,14142,335,167,166,162,157,161,4798,26250,636,313,301,300,300,303,2104,8124,740,701,674,675,678,674,462,468,11798,12653,11719,11606,583,471,514,514,12103,9502,13828,10841,629,529,1083,3929,28062,27674,25351,24819,31450,17198,502,1293,24997,23588,25610,27430,30649,15574
27951,65535,4001,207,181,175,172,173,2127,14159,338,167,166,162,160,162,4801,26285,639,316,303,305,304,299,2099,8125,742,703,677,681,679,677,461,465,11801,12667,11728,11628,586,471,516,519,12138,9551,13893,10923,633,531,1082,3935,28043,27669,25355,24844,31452,17207,503,1297,24964,23573,25613,27462,30657,15582
27975,65535,3965,209,183,174,172,170,2131,14185,335,167,164,160,160,165,4806,26327,634,314,303,302,299,301,2104,8142,743,702,678,680,679,677,463,467,11807,12686,11736,11653,587,472,520,519,12173,9599,13957,11001,636,531,1084,3945,28036,27685,25374,24881,31462,17220,503,1299,24938,23558,25625,27499,30663,15595
28008,65535,4009,209,181,175,173,171,2132,14213,341,168,163,159,161,158,4812,26388,639,319,301,300,303,300,2101,8147,744,706,680,681,680,677,463,468,11814,12710,11754,11683,589,475,521,521,12206,9641,14015,11075,639,535,1085,3956,28043,27711,25397,24925,31471,17232,505,1299,24922,23558,25642,27538,30676,15612
28037,65535,3973,210,181,174,175,171,2133,14241,340,171,166,162,160,161,4820,26438,635,316,303,300,304,300,2109,8155,744,707,684,681,681,677,467,469,11828,12736,11767,11709,589,476,523,523,12239,9687,14069,11147,642,537,1088,3966,28053,27741,25421,24975,31489,17249,502,1301,24917,23564,25672,27590,30688,15625
28083,65535,4015,211,181,177,173,175,2136,14270,339,167,163,159,165,164,4832,26511,643,319,305,306,300,299,2107,8171,747,706,683,683,682,683,468,471,11841,12769,11788,11747,591,475,525,525,12274,9735,14129,11226,645,538,1087,3979,28082,27801,25459,25032,31513,17273,503,1304,24925,23589,25703,27651,30716,15647
28127,65535,3979,211,180,175,172,171,2140,14307,340,167,163,161,161,165,4836,26580,639,315,303,301,301,301,2111,8183,748,707,681,681,681,679,467,470,11864,12803,11805,11774,591,474,527,528,12314,9782,14183,11267,645,539,1090,3993,28115,27861,25486,25081,31543,17289,504,1309,24936,23607,25733,27695,30738,15655
28111,65535,4013,213,181,175,171,170,2138,14273,339,168,165,162,160,158,4836,26527,639,316,302,302,301,300,2113,8188,745,705,681,681,681,676,467,469,11843,12749,11788,11705,589,472,524,525,12182,9595,13947,10934,635,529,1092,3980,28119,27805,25452,24979,31534,17256,506,1307,24946,23599,25717,27603,30722,15629
28037,65535,3968,210,182,175,171,170,2133,14197,336,165,161,162,162,161,4825,26417,637,319,302,301,299,300,2111,8161,744,703,679,679,679,674,463,467,11807,12682,11753,11641,587,472,520,516,12061,9465,13815,10799,628,527,1085,3947,28106,27731,25417,24905,31507,17234,506,1301,24941,23547,25669,27503,30710,15611
28001,65535,4003,216,184,177,172,170,2128,14159,337,165,161,159,160,160,4821,26373,638,315,303,300,304,300,2109,8150,743,704,679,679,681,678,463,468,11794,12645,11739,11616,585,472,514,515,12032,9430,13777,10759,629,531,1083,3937,28076,27675,25390,24853,31490,17220,502,1301,24926,23503,25641,27443,30696,15603
28001,65535,3965,210,180,175,171,169,2130,14156,337,167,161,159,160,161,4821,26374,641,316,306,304,299,299,2108,8144,747,706,679,679,680,679,461,466,11795,12648,11741,11625,587,472,515,516,12055,9459,13829,10828,629,526,1083,3934,28061,27655,25390,24862,31479,17217,505,1295,24902,23485,25629,27445,30696,15605
27994,65535,4004,207,181,176,172,171,2129,14163,337,167,162,162,159,162,4818,26369,639,317,305,301,299,300,2111,8152,747,706,684,685,681,679,462,468,11789,12641,11737,11616,585,472,515,517,12051,9453,13825,10819,631,531,1084,3939,28049,27632,25382,24843,31463,17211,504,1299,24871,23449,25619,27427,30693,15602
27990,65535,3964,210,181,174,173,171,2130,14153,334,167,163,162,162,164,4821,26373,636,315,303,301,302,299,2113,8156,745,706,682,684,680,680,462,467,11787,12638,11734,11626,585,472,517,518,12052,9461,13849,10858,632,528,1083,3938,28047,27636,25373,24843,31460,17207,500,1301,24845,23415,25612,27425,30688,15607
28006,65535,4004,210,182,178,172,169,2131,14174,339,170,163,159,163,157,4829,26423,640,316,304,303,302,301,2113,8162,749,710,686,686,688,683,465,467,11795,12662,11742,11644,585,472,516,519,12087,9507,13908,10933,634,530,1082,3945,28047,27657,25393,24876,31471,17221,503,1298,24828,23413,25626,27455,30695,15617
28041,65535,3970,210,179,175,172,174,2135,14198,337,168,160,160,165,158,4833,26463,637,316,304,304,301,301,2117,8182,754,710,686,687,686,685,463,470,11803,12684,11753,11669,587,474,520,521,12125,9555,13968,11009,636,533,1086,3955,28064,27690,25408,24918,31477,17233,504,1299,24823,23415,25638,27497,30713,15632
28073,65535,4009,212,180,177,171,171,2135,14230,341,163,163,159,161,160,4840,26524,641,318,303,302,303,302,2120,8195,751,712,687,687,687,685,463,469,11815,12708,11771,11696,589,474,521,520,12160,9601,14022,11079,640,536,1087,3965,28085,27739,25433,24957,31495,17250,507,1301,24818,23431,25661,27541,30731,15645
28111,65535,3973,213,189,175,171,170,2143,14255,341,167,162,159,164,162,4846,26579,639,317,303,302,301,301,2121,8207,752,713,683,686,688,684,465,472,11831,12739,11782,11726,589,475,523,526,12189,9643,14079,11144,641,536,1088,3977,28110,27786,25461,25010,31511,17262,505,1303,24833,23452,25684,27588,30743,15660
28149,65535,4017,211,181,174,171,169,2141,14287,340,167,164,166,160,161,4855,26654,645,317,303,301,303,305,2124,8219,751,712,685,687,689,685,465,470,11854,12779,11803,11762,591,477,523,525,12234,9696,14137,11225,645,540,1090,3993,28147,27857,25498,25075,31532,17287,504,1306,24850,23490,25720,27660,30755,15681
28197,65535,3983,209,178,174,171,170,2145,14320,338,166,161,165,161,161,4862,26719,641,317,303,303,301,303,2126,8235,752,713,686,684,686,684,472,473,11875,12812,11820,11779,592,476,526,527,12261,9718,14145,11193,642,537,1092,4006,28194,27923,25521,25094,31559,17291,504,1311,24874,23520,25751,27689,30774,15678
28152,65535,4018,211,180,174,173,171,2137,14258,338,167,162,161,161,161,4859,26633,645,319,307,306,302,302,2127,8229,750,712,686,685,684,682,466,470,11847,12737,11787,11691,588,473,523,521,12091,9504,13887,10867,633,528,1089,3979,28208,27859,25481,24991,31545,17267,508,1308,24899,23506,25723,27567,30763,15652
28101,65535,3972,211,190,175,171,173,2135,14204,337,165,163,159,160,160,4849,26563,639,318,303,306,303,305,2124,8213,747,708,679,681,682,680,463,467,11830,12694,11763,11649,590,471,517,517,12017,9424,13805,10785,628,528,1089,3959,28208,27822,25456,24942,31523,17245,504,1303,24903,23474,25685,27495,30744,15639
28078,65535,4009,211,183,175,174,171,2131,14176,339,164,160,165,156,162,4849,26539,643,317,303,301,300,301,2121,8200,752,709,683,683,683,678,463,465,11823,12681,11754,11638,587,475,515,516,11998,9406,13795,10790,630,527,1086,3955,28209,27808,25446,24923,31511,17239,503,1300,24903,23452,25666,27462,30737,15636
28091,65535,3970,212,180,175,171,170,2134,14185,337,167,160,159,161,161,4851,26573,642,316,305,305,300,301,2122,8199,747,708,679,682,681,682,464,468,11836,12697,11763,11649,590,471,515,517,12037,9446,13845,10834,629,529,1086,3958,28222,27837,25454,24931,31510,17237,503,1303,24898,23455,25661,27475,30740,15640
28093,65535,4010,211,181,179,169,171,2134,14186,339,167,162,157,159,162,4851,26574,647,319,303,302,301,302,2123,8209,750,711,682,683,683,678,463,467,11835,12695,11757,11643,587,473,516,517,12031,9438,13839,10829,630,531,1087,3959,28219,27828,25447,24921,31501,17233,504,1300,24895,23447,25659,27459,30734,15639
28101,65535,3971,212,180,174,173,170,2137,14192,339,170,160,163,159,161,4855,26591,639,319,307,301,302,301,2125,8211,749,707,683,685,685,683,463,469,11843,12715,11759,11655,586,473,519,518,12047,9465,13874,10887,633,529,1087,3964,28242,27868,25458,24947,31502,17239,503,1301,24894,23444,25657,27479,30742,15647
28133,65535,4014,210,180,177,170,170,2141,14217,339,166,165,162,160,161,4861,26645,644,319,302,306,299,300,2128,8223,752,711,685,688,686,682,463,469,11857,12742,11773,11680,591,477,520,518,12085,9517,13938,10963,635,532,1087,3970,28271,27921,25476,24990,31511,17252,502,1303,24897,23463,25675,27518,30751,15658
28166,65535,3978,213,183,177,174,170,2144,14243,339,167,162,159,164,165,4867,26699,642,318,304,306,302,301,2128,8237,752,711,685,685,686,683,464,468,11882,12776,11787,11708,589,474,523,522,12131,9568,13997,11038,637,533,1089,3984,28309,27979,25505,25038,31526,17267,507,1303,24915,23488,25701,27567,30765,15674
28206,65535,4018,209,182,178,174,173,2144,14275,343,166,166,162,165,162,4876,26763,645,316,303,304,301,302,2129,8249,752,711,686,686,681,684,465,469,11898,12811,11801,11735,589,476,521,523,12169,9615,14051,11107,639,535,1092,3998,28343,28046,25528,25089,31543,17284,508,1307,24927,23521,25723,27623,30774,15687
28246,65535,3984,211,181,174,173,172,2145,14306,342,166,160,162,160,161,4884,26836,643,317,304,305,301,300,2132,8265,753,713,687,687,685,683,465,469,11923,12851,11821,11770,593,479,523,524,12210,9664,14104,11176,641,538,1093,4009,28391,28122,25567,25145,31564,17303,506,1313,24957,23558,25759,27684,30796,15703
28292,65535,4026,216,181,181,171,173,2149,14341,342,165,161,158,161,162,4893,26903,649,318,305,303,301,303,2135,8278,752,713,688,687,690,683,471,472,11949,12894,11840,11807,594,477,525,525,12255,9719,14165,11251,645,538,1094,4024,28441,28201,25605,25215,31587,17324,504,1315,24984,23607,25799,27753,30819,15715
28327,65535,3988,212,182,175,172,165,2152,14362,339,167,162,162,161,160,4899,26945,649,317,305,303,302,304,2136,8295,752,713,686,686,685,682,467,469,11962,12907,11845,11791,595,477,527,527,12237,9674,14081,11074,640,536,1097,4037,28503,28246,25604,25185,31605,17319,507,1313,25022,23638,25820,27734,30817,15704
28249,65535,4020,207,179,175,172,171,2145,14264,341,165,166,163,163,160,4888,26822,645,317,304,302,302,305,2138,8269,751,710,684,683,685,683,466,470,11928,12823,11807,11706,590,476,521,520,12052,9461,13834,10807,630,529,1094,3999,28503,28184,25567,25093,31584,17294,505,1310,25048,23625,25769,27599,30791,15681
28213,65535,3979,211,181,175,171,171,2139,14215,340,169,162,166,165,165,4879,26764,643,318,305,303,302,303,2132,8241,748,710,683,684,684,681,466,470,11923,12797,11788,11668,587,475,514,519,12014,9413,13773,10737,627,527,1095,3987,28521,28167,25550,25050,31564,17271,508,1304,25072,23613,25738,27535,30773,15663
28194,65535,4017,207,181,176,173,167,2138,14188,338,165,162,163,159,160,4879,26741,649,319,307,305,302,303,2132,8231,751,712,687,686,685,683,465,468,11917,12786,11777,11653,585,474,515,518,11993,9393,13766,10743,628,527,1089,3976,28534,28173,25536,25031,31555,17265,503,1304,25074,23600,25721,27507,30764,15661
28212,65535,3980,210,184,175,174,170,2139,14198,337,168,163,165,159,161,4885,26768,643,319,304,303,304,303,2134,8244,754,711,685,688,687,683,465,469,11929,12800,11776,11660,588,473,517,515,12028,9428,13802,10779,632,530,1093,3983,28557,28209,25535,25035,31550,17265,505,1305,25070,23588,25717,27509,30762,15657
28209,65535,4015,211,183,174,173,177,2140,14199,338,168,163,161,161,157,4885,26769,646,319,303,303,303,300,2134,8254,752,715,685,686,688,684,469,469,11925,12803,11780,11662,587,474,516,520,12023,9421,13800,10784,629,529,1092,3983,28572,28225,25531,25032,31547,17261,503,1305,25055,23584,25709,27506,30762,15659
28227,65535,3980,211,180,175,172,171,2140,14207,338,169,162,163,164,161,4884,26787,642,317,305,302,302,299,2136,8255,754,712,685,686,685,682,466,471,11940,12825,11779,11678,589,477,517,520,12057,9460,13846,10853,630,531,1095,3991,28593,28273,25546,25062,31550,17271,505,1303,25051,23595,25715,27529,30767,15667
28253,65535,4019,213,180,175,171,173,2141,14228,339,167,164,162,157,162,4895,26842,647,319,304,303,302,302,2137,8264,753,712,686,686,685,682,468,470,11963,12862,11795,11707,590,475,519,522,12105,9516,13911,10930,635,531,1094,3999,28626,28331,25570,25109,31562,17285,504,1306,25070,23625,25735,27571,30770,15679
28287,65535,3984,210,189,175,173,173,2146,14258,341,166,162,167,161,159,4895,26901,645,318,303,302,303,304,2140,8277,753,715,688,687,686,686,465,474,11985,12900,11807,11739,591,476,519,519,12153,9570,13974,11006,640,533,1097,4013,28673,28395,25597,25155,31578,17302,505,1308,25090,23657,25757,27630,30777,15690
28324,65535,4029,212,182,177,166,171,2147,14289,339,164,163,159,160,161,4908,26959,651,321,305,303,303,305,2141,8294,754,712,687,688,688,685,468,475,12004,12934,11827,11762,591,479,521,522,12193,9624,14033,11079,641,536,1097,4025,28715,28468,25626,25210,31587,17320,505,1312,25112,23693,25787,27679,30796,15706
28363,65535,3991,209,180,175,173,171,2150,14316,338,170,162,161,165,161,4914,27030,648,318,305,306,302,302,2145,8305,753,717,690,688,689,686,469,473,12032,12978,11841,11802,593,480,523,526,12238,9680,14085,11148,642,533,1101,4042,28763,28546,25659,25273,31615,17337,506,1315,25143,23742,25819,27744,30811,15722
28414,65535,4035,210,183,176,164,169,2152,14351,341,168,161,161,161,158,4922,27098,653,319,305,307,302,302,2146,8315,756,715,692,690,689,686,466,474,12058,13027,11863,11837,599,482,525,527,12290,9741,14151,11231,647,540,1102,4056,28821,28634,25703,25341,31640,17363,507,1317,25183,23793,25861,27815,30829,15741
28450,65535,3996,211,182,175,172,170,2156,14383,339,168,159,164,164,164,4930,27149,650,318,305,303,303,302,2147,8336,754,715,691,689,687,686,469,475,12085,13053,11881,11835,594,475,527,529,12300,9728,14111,11117,640,534,1105,4071,28884,28701,25711,25340,31663,17360,507,1321,25219,23833,25895,27824,30835,15731
28388,65535,4031,210,183,177,171,170,2149,14295,343,171,162,159,159,158,4918,27035,651,318,305,303,302,302,2150,8317,753,711,686,687,686,683,468,472,12054,12977,11839,11750,595,480,525,520,12118,9511,13846,10820,630,529,1099,4036,28896,28650,25674,25250,31647,17339,505,1316,25263,23843,25848,27695,30812,15703
28354,65535,3987,216,181,175,170,169,2144,14251,339,165,163,164,161,163,4911,26966,647,318,307,303,302,303,2144,8293,751,711,685,688,685,683,466,471,12042,12943,11820,11711,591,477,516,516,12067,9450,13777,10742,627,526,1101,4021,28924,28647,25657,25203,31628,17319,502,1309,25279,23827,25818,27632,30789,15683
28331,65535,4027,211,185,177,173,171,2145,14211,337,164,162,165,161,165,4906,26927,650,317,306,303,304,305,2145,8282,753,709,685,684,685,682,465,469,12041,12933,11809,11701,591,473,519,517,12045,9427,13759,10737,631,529,1098,4012,28939,28655,25647,25187,31618,17313,504,1305,25287,23823,25799,27599,30775,15679
28347,65535,3986,210,180,175,170,166,2149,14214,338,169,166,164,161,161,4911,26959,647,318,304,304,302,302,2139,8271,750,710,683,685,683,682,466,469,12062,12963,11815,11710,591,477,519,519,12092,9479,13810,10785,631,529,1099,4018,28966,28695,25659,25205,31620,17312,507,1307,25305,23847,25801,27609,30772,15674
28345,65535,4025,212,180,176,171,170,2146,14218,338,166,162,162,164,160,4912,26965,651,319,307,305,304,307,2143,8282,754,715,689,689,689,687,467,470,12069,12968,11818,11713,591,475,520,517,12097,9477,13803,10788,631,531,1099,4021,28989,28727,25654,25211,31613,17316,505,1307,25312,23854,25793,27606,30768,15675
28354,65535,3989,210,181,176,172,171,2143,14228,337,170,162,162,165,162,4913,26981,647,319,306,303,302,302,2148,8292,754,716,690,687,689,686,468,471,12081,12988,11819,11726,591,477,517,518,12126,9509,13847,10850,632,530,1101,4024,29023,28773,25665,25232,31621,17324,505,1307,25314,23852,25803,27629,30766,15684
28383,65535,4029,211,180,178,171,169,2149,14247,339,167,151,163,160,160,4919,27022,652,318,309,303,302,302,2148,8302,756,715,688,687,688,686,467,472,12095,13023,11832,11758,592,480,519,520,12171,9564,13912,10930,636,532,1101,4035,29052,28835,25690,25283,31635,17338,505,1311,25317,23874,25823,27676,30774,15691
28411,65535,3993,211,182,177,176,175,2151,14277,337,167,163,163,160,162,4926,27073,647,318,304,304,305,303,2149,8318,755,713,689,688,690,686,469,473,12117,13059,11847,11783,594,478,522,523,12223,9626,13979,11013,640,535,1103,4048,29095,28897,25712,25336,31647,17354,507,1313,25325,23903,25847,27732,30786,15702
28450,65535,4036,209,185,174,171,173,2152,14306,341,165,165,160,159,159,4933,27134,652,318,305,304,303,303,2148,8317,754,712,687,688,688,685,470,473,12147,13105,11863,11819,593,479,522,525,12271,9683,14039,11089,642,536,1105,4061,29129,28965,25748,25390,31665,17372,507,1314,25353,23943,25873,27785,30792,15714
28490,65535,3995,211,183,174,173,174,2155,14331,339,164,162,162,159,166,4941,27194,650,319,306,304,303,301,2150,8328,755,715,689,689,691,689,469,476,12175,13147,11884,11851,596,479,526,527,12322,9738,14098,11160,643,539,1106,4075,29185,29047,25781,25451,31691,17395,509,1318,25389,23992,25910,27853,30813,15735
28534,65535,4043,210,181,176,172,175,2158,14364,339,167,163,162,165,164,4947,27261,658,319,307,305,303,302,2151,8345,758,717,691,691,691,688,470,475,12202,13191,11907,11892,598,482,525,527,12373,9803,14162,11246,646,542,1109,4089,29239,29136,25820,25518,31715,17415,510,1322,25428,24046,25955,27933,30831,15755
28576,65535,4005,210,182,175,172,172,2160,14404,339,168,163,161,164,161,4953,27331,655,318,305,304,303,304,2154,8360,757,718,691,691,691,688,473,477,12230,13235,11925,11918,597,480,529,529,12423,9855,14199,11266,647,542,1110,4104,29303,29221,25851,25565,31752,17431,508,1324,25463,24095,25991,27982,30851,15761
28553,65535,4041,214,180,175,175,170,2158,14358,345,166,166,162,165,159,4949,27261,654,317,303,305,303,303,2158,8360,758,716,688,691,689,687,469,474,12215,13183,11905,11843,593,478,527,525,12274,9647,13942,10915,632,535,1111,4091,29336,29197,25814,25475,31735,17408,506,1322,25508,24122,25969,27871,30825,15727
28491,65535,3996,210,183,175,175,171,2151,14294,338,169,164,162,161,161,4939,27171,651,318,304,303,306,302,2154,8334,754,714,688,688,689,684,469,471,12203,13141,11877,11799,592,477,517,516,12191,9557,13836,10811,633,530,1105,4064,29361,29184,25802,25439,31719,17390,507,1316,25545,24126,25935,27801,30808,15706
28465,65535,4035,209,183,175,175,173,2151,14260,339,167,161,162,165,162,4935,27122,655,319,305,305,301,302,2152,8314,755,714,687,688,687,685,466,470,12203,13127,11869,11781,593,475,515,517,12174,9529,13806,10784,629,527,1108,4059,29376,29185,25791,25415,31709,17386,507,1311,25575,24134,25915,27765,30791,15696
28467,65535,3994,211,182,175,172,170,2153,14257,336,171,164,169,164,161,4937,27125,649,319,303,304,302,303,2150,8310,753,714,688,689,687,687,467,470,12220,13149,11875,11796,593,479,520,517,12221,9582,13863,10856,629,530,1107,4061,29403,29223,25807,25442,31709,17384,509,1314,25590,24156,25921,27787,30785,15693
28477,65535,4035,212,181,175,173,170,2155,14267,339,167,163,165,162,156,4935,27118,653,318,308,302,304,302,2153,8315,756,714,690,688,688,686,467,472,12229,13158,11881,11804,594,479,518,518,12233,9591,13869,10861,635,530,1106,4063,29425,29251,25806,25445,31708,17386,505,1314,25594,24162,25924,27785,30781,15693
28474,65535,3995,209,181,177,172,171,2152,14266,338,167,161,162,161,158,4938,27130,647,319,303,305,303,302,2152,8318,758,715,689,688,688,688,467,471,12240,13179,11883,11814,597,478,521,521,12252,9616,13904,10908,634,531,1108,4067,29444,29279,25814,25468,31712,17395,510,1314,25605,24169,25924,27805,30775,15697
28495,65535,4035,209,181,175,172,171,2156,14283,342,168,163,167,162,159,4939,27159,651,317,305,302,305,304,2155,8315,757,715,690,690,693,687,469,474,12262,13211,11895,11844,596,480,520,520,12303,9675,13968,10993,639,534,1109,4077,29471,29327,25841,25514,31718,17408,505,1314,25611,24191,25947,27851,30777,15704
28521,65535,4000,210,181,175,172,171,2155,14307,338,165,163,163,161,162,4943,27198,650,319,304,302,301,302,2153,8322,755,715,690,691,695,689,470,477,12285,13251,11912,11877,595,480,525,524,12359,9737,14037,11081,640,536,1111,4087,29507,29393,25863,25566,31738,17426,509,1316,25627,24222,25971,27904,30789,15714
28557,65535,4043,208,181,179,172,172,2156,14339,340,168,163,161,162,161,4950,27257,655,318,306,303,303,303,2155,8337,759,718,691,691,691,689,472,475,12303,13288,11932,11909,599,482,524,525,12406,9794,14098,11157,647,539,1112,4099,29542,29456,25891,25619,31752,17445,509,1320,25641,24250,25998,27961,30796,15727
28585,65535,4002,212,182,174,172,171,2158,14362,339,167,164,163,161,163,4955,27308,655,318,306,303,302,303,2157,8345,758,716,693,693,691,692,475,474,12334,13332,11948,11940,598,481,525,529,12455,9852,14159,11233,646,539,1116,4113,29585,29519,25923,25679,31778,17461,508,1323,25671,24296,26032,28020,30817,15744
28624,65535,4048,213,181,175,172,174,2161,14396,342,167,164,167,164,162,4964,27373,656,319,306,303,304,303,2156,8351,758,718,692,694,695,692,474,477,12362,13375,11973,11982,601,483,527,530,12503,9915,14218,11314,649,543,1114,4131,29625,29595,25962,25740,31792,17480,509,1325,25698,24341,26069,28092,30829,15759
28667,65535,4009,211,185,175,171,172,2163,14429,338,165,160,159,155,147,4973,27462,655,320,306,308,304,303,2161,8364,757,721,693,691,695,691,477,479,12387,13423,11991,12018,602,483,530,532,12559,9977,14278,11381,652,543,1119,4141,29674,29673,25993,25802,31822,17500,508,1329,25725,24390,26110,28164,30846,15771
28703,65535,4051,212,182,178,174,171,2165,14430,342,167,151,159,164,161,4982,27510,660,320,306,304,303,303,2163,8382,759,718,695,691,690,690,474,478,12387,13397,11985,11968,600,481,529,531,12475,9841,14093,11090,642,537,1119,4143,29714,29669,25967,25727,31821,17489,509,1329,25757,24407,26111,28093,30833,15743
28680,65535,4009,211,181,178,174,170,2158,14345,338,172,163,162,162,164,4982,27487,655,318,302,303,303,305,2160,8351,757,719,690,690,690,687,472,476,12361,13332,11955,11912,598,483,522,522,12340,9692,13929,10923,637,534,1114,4110,29716,29623,25946,25674,31809,17467,508,1320,25786,24403,26072,28006,30810,15722
28658,65535,4045,210,180,176,172,173,2156,14315,341,169,167,164,161,162,4978,27382,658,319,305,303,303,302,2157,8331,756,716,689,688,688,686,470,475,12357,13318,11952,11898,599,479,521,522,12323,9669,13901,10895,639,534,1117,4099,29713,29604,25937,25647,31794,17457,508,1319,25799,24403,26048,27965,30793,15708
28626,65535,4003,212,182,175,172,171,2157,14312,340,169,162,161,159,164,4965,27305,651,317,304,303,303,307,2153,8321,757,716,690,689,691,685,470,474,12370,13329,11951,11910,597,479,522,521,12358,9710,13956,10968,637,533,1114,4101,29710,29602,25945,25678,31794,17459,509,1318,25804,24404,26054,27987,30791,15713
28629,65535,4042,212,181,177,171,170,2156,14321,340,165,163,162,162,162,4963,27277,654,318,306,303,306,303,2154,8325,756,715,691,688,690,687,474,475,12373,13335,11957,11915,597,480,525,523,12377,9718,13961,10970,637,537,1112,4104,29719,29607,25939,25669,31791,17463,508,1317,25790,24397,26055,27982,30782,15708
28623,65535,4001,212,182,175,173,170,2158,14315,340,167,162,165,161,165,4961,27304,650,316,302,301,302,297,2154,8328,752,712,686,685,685,681,475,474,12380,13345,11961,11928,597,480,522,523,12384,9733,13982,11003,639,535,1116,4105,29727,29615,25943,25686,31790,17459,507,1317,25791,24399,26055,27999,30770,15706
28643,65535,4041,210,180,175,172,170,2159,14328,343,171,167,163,161,164,4962,27383,652,315,302,307,296,298,2151,8333,747,706,679,679,677,676,472,473,12395,13369,11974,11949,601,481,525,525,12432,9791,14043,11086,644,540,1114,4107,29720,29642,25956,25715,31796,17471,508,1318,25792,24414,26070,28037,30773,15713
28623,65535,4003,209,180,176,171,171,2161,14351,338,167,163,161,159,161,4948,27383,648,314,301,297,298,295,2147,8339,742,705,671,669,669,661,472,476,12408,13397,11988,11979,599,483,525,528,12487,9849,14111,11163,644,539,1116,4118,29745,29680,25971,25756,31803,17485,508,1320,25806,24435,26093,28086,30775,15717
28581,65535,4042,207,180,176,172,171,2164,14385,345,167,164,160,161,159,4936,27453,652,312,304,293,297,297,2123,8264,723,677,653,650,648,642,471,480,12414,13420,12006,12012,602,484,527,525,12522,9901,14163,11241,650,540,1116,4123,29748,29711,25986,25794,31816,17500,506,1321,25799,24450,26111,28135,30779,15729
28516,65535,4001,209,179,178,173,171,2167,14413,340,168,163,161,157,160,4923,27506,644,312,299,298,298,296,2063,8070,706,663,635,633,629,621,473,477,12430,13445,12017,12041,602,485,527,529,12565,9949,14223,11311,649,544,1117,4134,29746,29729,26003,25838,31827,17516,509,1325,25801,24461,26137,28186,30787,15741
28457,65535,4043,212,179,173,171,173,2169,14448,342,166,165,166,160,162,4918,27637,653,315,299,296,297,297,1971,7727,673,635,606,606,605,603,473,482,12443,13482,12044,12080,604,486,530,531,12608,10006,14287,11401,654,545,1119,4139,29749,29767,26022,25889,31847,17535,511,1327,25813,24495,26168,28251,30802,15762
28379,65535,4001,210,179,174,171,170,2171,14468,340,170,163,165,160,164,4920,27769,654,310,298,303,297,295,1886,7460,659,627,604,606,603,602,478,480,12458,13506,12060,12100,606,483,533,532,12649,10043,14315,11405,653,543,1122,4143,29762,29803,26039,25911,31873,17547,509,1333,25824,24517,26195,28286,30811,15760
28307,65535,4037,209,180,173,170,168,2167,14412,340,167,161,162,160,159,4925,27779,656,313,299,295,295,297,1875,7435,665,643,633,641,645,645,473,479,12436,13445,12035,12027,600,480,529,529,12499,9839,14069,11081,641,536,1117,4120,29760,29740,25996,25814,31856,17526,513,1327,25850,24527,26172,28178,30785,15726
28218,65535,3991,209,179,173,171,169,2207,14661,342,165,163,162,161,160,4917,27701,652,313,299,298,297,296,1903,7477,693,658,631,629,631,621,472,475,12409,13399,12014,11991,601,483,522,523,12413,9753,13985,10993,640,535,1114,4091,29743,29677,25970,25773,31841,17507,509,1321,25850,24499,26139,28118,30766,15709
28179,65535,4029,207,179,177,171,169,2193,14503,343,166,163,160,160,160,4914,27668,655,313,301,297,295,298,1942,7645,681,644,625,621,621,619,470,476,12413,13391,12010,11988,600,482,521,521,12416,9748,13980,11005,639,537,1113,4081,29741,29655,25968,25767,31835,17510,509,1317,25861,24489,26131,28105,30759,15705
28212,65535,3991,209,179,173,174,173,2181,14447,339,169,163,164,158,155,4922,27701,651,313,302,298,298,296,1956,7697,679,646,622,621,620,619,472,477,12429,13409,12025,12007,598,480,521,525,12463,9803,14037,11068,639,533,1113,4085,29742,29669,25977,25785,31838,17511,508,1318,25856,24490,26138,28127,30759,15706
28207,65535,4030,212,179,173,171,169,2177,14435,344,167,163,161,161,160,4919,27684,654,311,299,297,299,301,1964,7729,681,645,624,623,626,623,471,477,12430,13403,12021,12003,598,481,522,523,12458,9790,14029,11055,640,535,1112,4081,29722,29633,25971,25770,31831,17509,508,1317,25843,24479,26131,28115,30753,15705
28226,65535,3991,209,179,174,172,170,2176,14422,337,170,161,160,161,159,4916,27659,653,313,299,297,297,296,1975,7771,684,649,626,624,622,623,470,474,12431,13413,12027,12018,600,479,522,523,12479,9825,14069,11116,640,534,1112,4077,29735,29651,25970,25796,31824,17513,507,1318,25830,24473,26138,28137,30752,15706
28248,65535,4033,210,183,173,170,169,2175,14424,342,170,159,161,160,160,4914,27673,654,312,299,302,293,296,1981,7783,686,647,626,627,624,623,473,475,12451,13445,12043,12047,603,485,525,529,12531,9882,14135,11199,643,537,1111,4085,29715,29658,25991,25831,31831,17525,507,1317,25831,24483,26150,28175,30757,15714
28285,65535,3996,209,179,177,171,170,2174,14440,339,170,163,161,161,160,4915,27715,653,313,299,299,297,294,1982,7801,684,653,627,624,627,624,473,476,12463,13472,12060,12075,602,482,525,528,12575,9935,14197,11275,649,539,1112,4093,29718,29677,26005,25873,31839,17535,508,1320,25832,24499,26172,28227,30761,15728
28311,65535,4040,208,179,174,171,169,2176,14465,339,167,163,160,157,161,4921,27757,656,315,299,298,302,297,1983,7811,689,650,627,627,625,623,476,477,12471,13501,12069,12103,602,483,529,528,12613,9985,14251,11349,648,543,1113,4098,29735,29715,26020,25902,31852,17549,508,1322,25829,24513,26196,28277,30769,15738
28349,65535,4001,209,179,173,171,170,2179,14492,340,171,161,157,160,160,4928,27882,655,313,300,300,297,291,1974,7764,682,647,622,625,625,621,473,479,12493,13532,12090,12138,603,484,529,530,12657,10038,14310,11426,650,546,1116,4107,29746,29751,26043,25963,31863,17568,509,1323,25833,24534,26219,28333,30790,15758
28395,65535,4046,210,181,172,172,170,2178,14514,343,163,160,161,165,161,4953,28018,661,313,297,301,300,296,1962,7749,680,644,624,622,621,616,475,477,12509,13564,12097,12158,603,482,532,534,12698,10081,14349,11456,651,543,1114,4117,29747,29786,26063,25990,31882,17580,510,1327,25837,24553,26242,28367,30800,15759
28373,65535,4002,210,179,177,174,170,2177,14473,338,170,162,161,159,164,4935,27905,651,313,299,297,297,296,1965,7754,677,641,617,615,617,611,473,477,12497,13504,12073,12082,597,478,528,526,12558,9887,14109,11113,638,533,1113,4101,29743,29709,26017,25885,31862,17549,510,1326,25843,24534,26210,28257,30771,15724
28257,65535,4034,211,180,174,171,171,2169,14396,340,167,162,158,158,163,4909,27731,656,312,297,295,295,297,1954,7695,673,634,612,614,612,611,467,477,12464,13434,12036,12025,596,477,522,518,12440,9761,13985,10989,633,529,1109,4066,29694,29606,25974,25815,31839,17533,507,1317,25837,24486,26155,28156,30741,15704
28179,65535,3991,209,181,173,170,169,2169,14361,339,165,162,161,159,164,4886,27621,648,311,297,295,297,294,1948,7663,669,632,603,608,605,604,467,474,12443,13398,12017,11987,595,473,515,517,12410,9717,13942,10952,630,526,1109,4048,29657,29521,25936,25751,31813,17511,507,1313,25813,24445,26119,28091,30717,15681
28093,65535,4027,209,182,173,170,171,2168,14347,340,165,159,162,161,159,4902,27786,655,315,297,296,300,297,1895,7443,656,626,601,602,603,602,463,468,12439,13389,11997,11990,592,473,516,514,12435,9749,13991,11023,631,525,1106,4043,29609,29485,25906,25735,31807,17514,511,1311,25760,24390,26097,28091,30699,15679
28008,65535,3986,209,180,177,171,169,2170,14355,337,166,162,161,160,164,4967,28194,659,312,298,299,298,297,1856,7293,654,618,595,595,595,590,462,467,12419,13362,11973,11963,590,470,512,514,12434,9738,13981,11013,627,522,1106,4029,29588,29431,25855,25680,31789,17499,508,1313,25699,24308,26066,28045,30659,15660
27881,65535,4019,210,180,177,171,170,2171,14343,340,167,162,163,159,159,5048,28773,673,315,303,300,300,300,1779,6979,639,599,582,573,573,571,460,462,12404,13332,11939,11941,586,468,510,511,12409,9731,13993,11055,626,523,1103,4010,29455,29302,25812,25641,31754,17493,508,1310,25591,24203,26001,28011,30619,15649
27721,65535,3973,210,180,175,171,171,2177,14378,336,164,162,156,160,159,5213,29905,691,321,306,309,305,304,1666,6549,623,596,583,591,595,601,459,462,12392,13302,11899,11921,583,466,509,510,12426,9751,14037,11136,629,522,1101,3988,29299,29151,25759,25621,31721,17492,506,1311,25462,24081,25931,27975,30579,15639
27427,65535,4011,214,181,176,175,171,2190,14335,341,167,163,161,162,161,5330,30667,711,323,310,308,306,308,1769,7111,685,663,667,703,732,764,457,461,12375,13274,11868,11906,584,465,512,513,12439,9782,14094,11243,629,524,1101,3982,29183,29052,25700,25585,31700,17492,509,1339,25341,23976,25876,27954,30522,15628
27370,65535,3981,213,183,176,173,170,2218,14443,339,166,163,162,161,161,5380,31017,711,323,307,307,302,306,2204,8548,943,923,927,948,949,949,456,461,12378,13277,11847,11913,584,469,513,516,12491,9849,14171,11359,633,527,1102,3987,29089,28994,25665,25577,31699,17508,518,1360,25265,23926,25849,27975,30503,15629
27553,65535,4030,214,182,176,173,174,2266,14694,345,166,163,164,165,164,5306,30671,711,322,309,305,304,305,2479,9083,1044,1017,1019,1041,1066,1087,457,459,12386,13297,11845,11929,583,465,514,518,12572,9943,14239,11468,637,527,1101,3978,29074,29014,25639,25579,31711,17521,515,1369,25266,23947,25858,28019,30491,15638
27684,65535,3994,212,183,177,173,172,2299,14837,347,172,165,163,166,164,5252,30442,702,320,307,304,305,309,2733,9715,1272,1265,1283,1324,1376,1429,454,463,12393,13298,11817,11929,579,462,517,517,12658,10037,14309,11587,637,529,1099,3975,29024,28988,25584,25555,31719,17536,516,1377,25267,23951,25835,28039,30458,15635
27437,65535,4026,211,181,175,173,167,2340,14923,352,173,167,169,166,168,5223,30395,706,320,306,304,303,303,3369,11363,1719,1707,1736,1778,1815,1855,451,454,12358,13221,11718,11820,569,449,515,514,12645,9962,14154,11346,620,510,1094,3966,28926,28845,25463,25415,31701,17516,521,1405,25186,23838,25699,27892,30348,15576
26949,65535,3964,212,182,176,172,173,2386,14907,352,173,171,168,168,169,5216,30272,696,315,301,298,297,298,4079,12821,2059,2005,2012,2048,2073,2088,437,437,12295,13053,11537,11612,550,433,495,493,12393,9653,13766,10935,599,493,1089,3913,28763,28589,25320,25224,31634,17477,526,1423,25129,23735,25459,27607,30209,15499
26629,65535,3980,211,179,174,172,171,2423,14991,359,177,173,174,168,170,5240,30274,692,305,293,292,289,289,4505,13832,2199,2094,2052,2048,2041,2032,421,422,12217,12884,11347,11433,533,419,479,478,12309,9542,13539,10744,582,482,1079,3876,28616,28375,25138,25061,31543,17431,529,1422,25023,23597,25167,27331,30037,15426
26547,65535,3938,211,179,173,171,171,2447,15073,357,179,173,169,169,170,5257,30356,686,305,292,292,291,289,4523,14002,2128,2027,1984,1969,1956,1942,410,412,12219,12843,11264,11382,536,421,471,470,12359,9592,13499,10777,587,487,1073,3852,28478,28243,25055,24975,31508,17407,529,1428,25064,23603,25061,27251,30028,15423
26763,65535,3985,210,181,173,172,162,2446,15121,359,173,168,167,166,165,5288,30399,692,309,294,293,293,291,4369,13650,1986,1858,1788,1734,1657,1579,412,417,12295,12938,11332,11452,541,430,476,478,12611,9795,13603,10865,599,495,1075,3855,28499,28269,25128,25015,31496,17399,526,1414,25313,23836,25111,27281,30081,15444
26985,65535,3950,209,179,177,172,170,2436,15131,355,170,167,164,165,166,5194,29780,685,310,299,298,298,297,3786,12377,1528,1398,1334,1312,1279,1230,420,428,12354,13062,11452,11562,550,439,485,487,12855,9986,13710,10943,606,503,1072,3846,28796,28525,25215,25064,31495,17391,521,1390,25782,24238,25255,27373,30167,15475
27058,65535,3989,210,181,175,180,171,2379,14970,351,172,165,166,165,161,5058,29152,680,314,300,299,299,299,3095,10517,1143,1034,971,942,923,905,429,433,12425,13168,11527,11637,556,444,494,494,13059,10154,13809,11039,611,509,1072,3843,29020,28734,25311,25165,31463,17381,515,1363,26259,24641,25336,27467,30231,15505
27155,65535,3956,211,184,175,172,172,2323,14895,345,166,162,159,161,161,4991,28943,676,318,303,306,300,301,2495,9084,979,933,910,919,925,931,437,440,12512,13295,11601,11697,562,446,498,499,13252,10316,13925,11148,618,515,1074,3853,29198,28909,25367,25214,31429,17375,513,1352,26715,25019,25425,27549,30254,15521
27158,65535,3998,209,182,175,174,171,2338,15021,350,167,165,165,158,161,4979,28928,681,319,302,301,299,300,2491,9054,1025,973,946,941,936,923,436,441,12507,13315,11637,11748,569,452,500,505,13356,10422,13996,11233,625,519,1072,3847,29299,29041,25332,25197,31424,17377,515,1356,26907,25170,25510,27647,30264,15531
27183,65535,3959,211,181,178,173,173,2339,15046,348,167,166,162,166,159,4958,28854,675,317,304,303,301,302,2440,8859,956,892,861,853,846,844,444,446,12539,13395,11694,11809,574,457,509,509,13460,10523,14083,11323,632,525,1071,3846,29365,29109,25389,25285,31392,17375,512,1357,27152,25403,25585,27735,30304,15557
27381,65535,4010,214,182,178,170,170,2323,15005,350,167,168,166,161,161,4946,28744,677,316,304,301,303,304,2315,8603,896,840,809,803,797,784,448,455,12616,13502,11749,11871,577,463,515,516,13570,10634,14183,11430,639,532,1071,3855,29429,29217,25449,25352,31395,17388,513,1356,27390,25614,25682,27845,30327,15572
27597,65535,3978,210,182,175,171,169,2313,15033,346,169,162,159,161,159,4920,28613,672,316,302,306,300,303,2227,8378,835,782,755,749,743,735,455,459,12634,13548,11807,11929,586,471,521,522,13642,10679,14201,11373,645,536,1073,3872,29554,29339,25461,25353,31407,17387,509,1354,27540,25759,25777,27937,30354,15575
27622,65535,4014,210,182,170,173,170,2294,14919,349,171,159,162,158,157,4915,28513,674,319,306,306,302,304,2125,8091,787,741,716,716,708,705,459,465,12629,13541,11839,11879,590,471,522,525,13459,10434,13950,11027,636,531,1073,3845,29620,29327,25413,25239,31369,17354,515,1346,27743,25905,25820,27852,30341,15549
27591,65535,3967,212,183,179,169,170,2277,14810,342,164,162,161,163,161,4965,28766,679,321,307,309,306,305,2051,7858,763,717,697,694,691,686,459,464,12618,13489,11816,11834,587,469,517,518,13344,10309,13854,10909,631,529,1070,3817,29463,29138,25395,25183,31343,17324,511,1333,27723,25827,25773,27763,30301,15516
27565,65535,4004,212,177,177,174,171,2271,14747,346,167,166,161,160,161,4975,28750,683,325,311,309,307,309,2055,7941,755,707,685,684,684,683,460,464,12614,13481,11834,11829,589,470,519,517,13325,10277,13842,10890,635,530,1063,3797,29462,29104,25365,25120,31313,17308,509,1327,27727,25812,25774,27726,30282,15503
27541,65535,3965,213,183,175,172,172,2254,14687,344,167,163,162,160,160,4989,28821,681,327,307,307,306,307,2054,7945,745,705,681,679,673,667,457,468,12615,13487,11846,11844,590,474,519,519,13351,10305,13887,10927,635,533,1063,3781,29387,29035,25354,25100,31306,17297,509,1322,27687,25769,25772,27722,30259,15497
27550,65535,4004,210,182,176,173,171,2242,14638,346,167,162,161,160,160,4981,28692,679,325,308,310,306,308,2047,7957,721,676,653,650,647,643,463,470,12615,13484,11854,11828,587,473,517,518,13329,10276,13870,10894,635,534,1061,3769,29362,28977,25341,25067,31282,17280,508,1315,27658,25731,25754,27665,30234,15477
27537,65535,3965,211,182,177,172,173,2230,14574,340,169,163,161,161,160,4969,28629,678,322,309,306,306,308,2022,7917,701,661,636,631,629,623,463,468,12627,13493,11856,11829,593,475,521,521,13327,10275,13889,10912,636,534,1059,3756,29296,28921,25341,25051,31254,17264,510,1309,27619,25691,25732,27636,30214,15467
27554,65535,4003,211,182,174,170,174,2217,14523,342,167,162,162,162,158,4955,28557,679,321,308,304,305,303,1976,7744,676,635,612,608,609,602,465,467,12612,13479,11837,11812,590,477,520,522,13314,10270,13903,10946,639,536,1059,3751,29251,28856,25322,25031,31229,17258,508,1303,27515,25588,25692,27602,30199,15463
27577,65535,3966,212,181,175,175,173,2212,14509,338,166,162,165,157,159,4933,28464,671,320,307,304,306,306,1893,7461,660,619,600,600,602,601,470,473,12610,13495,11843,11835,594,479,525,526,13341,10321,13986,11054,645,542,1057,3750,29191,28821,25309,25043,31221,17259,506,1305,27445,25543,25683,27621,30192,15473
27631,65535,4008,211,181,174,172,169,2209,14512,342,167,161,161,159,161,4916,28419,673,319,305,303,303,304,1870,7422,659,626,607,606,604,603,471,472,12611,13517,11856,11865,599,479,529,531,13386,10391,14079,11171,650,544,1055,3758,29144,28815,25325,25088,31227,17274,505,1309,27351,25484,25697,27666,30199,15483
27624,65535,3971,209,184,176,171,171,2211,14540,340,167,162,158,161,161,4909,28437,670,319,305,302,302,299,1873,7406,657,619,598,599,599,595,470,473,12601,13517,11844,11873,593,477,531,531,13410,10431,14139,11243,649,545,1058,3770,29105,28800,25330,25115,31247,17285,505,1308,27245,25399,25684,27679,30203,15488
27595,65535,4009,211,183,176,172,172,2210,14520,341,163,159,164,160,164,4902,28388,671,316,303,301,301,301,1849,7333,654,617,595,595,593,594,467,470,12575,13475,11826,11817,593,471,531,531,13311,10293,13983,11003,639,533,1055,3769,29089,28751,25287,25024,31226,17260,504,1308,27158,25315,25661,27591,30184,15463
27419,65535,3959,213,180,175,172,172,2202,14412,338,160,166,159,159,159,4876,28245,667,318,303,300,302,299,1835,7277,647,613,594,592,592,589,463,466,12532,13392,11776,11742,585,471,521,522,13149,10128,13838,10847,633,532,1053,3735,29023,28629,25242,24931,31199,17231,505,1303,27076,25204,25594,27471,30165,15437
27301,65535,3993,213,185,174,173,170,2195,14354,343,163,163,160,160,159,4869,28178,666,315,301,300,299,299,1835,7268,645,610,590,592,592,589,462,461,12497,13332,11743,11693,584,467,517,517,13088,10062,13787,10793,628,526,1049,3717,28979,28549,25197,24855,31170,17207,504,1296,26963,25077,25543,27389,30148,15423
27281,65535,3954,212,182,175,169,175,2191,14323,335,166,161,164,163,158,4859,28100,659,316,301,299,298,300,1835,7270,648,611,594,594,595,594,457,464,12487,13325,11721,11689,581,468,513,513,13094,10082,13829,10866,632,526,1049,3713,28938,28507,25191,24850,31146,17200,504,1294,26879,24992,25508,27372,30140,15424
27285,65535,3991,210,183,171,171,169,2189,14309,342,168,165,161,159,158,4848,28029,663,313,300,299,297,296,1869,7414,654,617,597,597,596,595,457,462,12476,13320,11721,11684,584,467,516,517,13101,10090,13841,10870,630,526,1050,3716,28939,28499,25172,24827,31130,17185,503,1295,26833,24957,25493,27356,30138,15423
27341,65535,3953,209,181,173,174,167,2185,14284,335,165,166,160,164,160,4844,27970,657,313,298,297,295,296,1895,7509,657,623,606,605,605,603,458,462,12465,13311,11712,11689,582,467,516,517,13074,10085,13857,10901,631,529,1051,3720,28919,28477,25167,24817,31117,17183,505,1296,26773,24897,25485,27351,30140,15423
27414,65535,3993,209,177,172,170,168,2184,14278,339,166,163,165,161,151,4850,27971,659,313,296,296,299,299,1937,7663,664,629,605,606,606,605,458,462,12459,13323,11721,11707,584,469,519,514,13103,10126,13914,10979,635,531,1050,3736,28927,28501,25172,24837,31109,17187,504,1298,26729,24870,25490,27373,30143,15435
27453,65535,3958,210,182,173,172,165,2184,14281,338,163,161,160,160,161,4847,27944,654,315,298,296,297,294,1947,7714,669,632,610,610,611,609,458,463,12465,13348,11737,11734,586,473,517,518,13139,10181,13979,11062,639,533,1053,3743,28940,28537,25190,24872,31115,17194,506,1301,26711,24881,25507,27414,30158,15443
27471,65535,3999,209,180,174,171,170,2182,14292,338,166,166,164,162,159,4851,28014,658,312,299,297,295,296,1963,7760,670,633,610,612,613,610,459,465,12466,13369,11755,11765,587,474,520,522,13177,10234,14049,11153,643,534,1057,3758,28945,28565,25206,24916,31116,17201,506,1301,26686,24879,25525,27462,30161,15461
27496,65535,3964,213,183,176,171,171,2179,14298,336,166,163,157,161,156,4853,28051,657,313,299,298,296,295,1966,7784,675,635,612,613,614,613,461,467,12474,13398,11769,11797,591,471,523,525,13212,10289,14116,11235,643,538,1059,3771,28946,28599,25235,24963,31122,17217,505,1303,26667,24882,25551,27516,30183,15479
27541,65535,4005,211,180,174,171,169,2178,14299,338,166,163,162,163,157,4850,28033,660,311,298,300,296,295,1988,7865,675,635,614,614,613,608,464,466,12477,13403,11774,11791,586,469,528,528,13189,10248,14064,11111,637,530,1057,3787,28943,28586,25234,24945,31132,17207,503,1304,26649,24870,25560,27495,30186,15465
27476,65535,3960,209,179,174,171,169,2171,14195,336,165,161,158,160,165,4824,27823,650,310,295,295,294,294,1993,7872,674,634,612,613,613,611,458,463,12436,13322,11742,11715,584,469,517,520,12999,10039,13848,10870,628,526,1056,3762,28925,28513,25195,24853,31108,17182,506,1300,26628,24819,25523,27393,30173,15439
27471,65535,3993,209,179,173,170,170,2164,14133,337,167,164,162,159,159,4795,27611,655,309,296,297,293,293,2003,7885,675,638,615,618,616,613,458,461,12414,13284,11724,11681,585,465,512,513,12944,9982,13802,10818,624,524,1056,3752,28914,28471,25173,24809,31080,17164,505,1298,26600,24767,25495,27332,30167,15433
27462,65535,3953,210,180,174,171,169,2159,14095,333,166,161,163,165,173,4790,27565,648,310,298,294,294,294,2008,7899,678,640,617,617,617,614,457,461,12408,13286,11724,11689,582,466,511,514,12949,10007,13849,10893,628,527,1059,3756,28906,28459,25182,24817,31070,17156,504,1296,26577,24747,25485,27336,30163,15440
27507,65535,3997,211,179,173,173,172,2160,14091,335,164,167,169,165,162,4781,27514,651,309,300,294,294,294,2011,7908,679,641,619,619,619,617,458,462,12410,13294,11730,11701,583,468,513,516,12979,10037,13883,10921,628,527,1056,3766,28895,28457,25183,24815,31063,17154,504,1298,26553,24730,25486,27339,30174,15444
27538,65535,3957,209,183,174,172,173,2156,14073,336,170,161,163,159,156,4779,27480,646,310,297,295,294,294,2015,7914,681,645,620,621,621,620,460,462,12403,13293,11726,11700,584,468,514,513,12966,10033,13894,10938,630,527,1058,3771,28883,28445,25183,24823,31057,17155,504,1299,26546,24719,25476,27338,30180,15448
27579,65535,4003,211,180,174,171,170,2155,14071,335,161,159,164,160,156,4780,27481,650,310,298,293,295,292,2017,7920,683,644,623,622,623,621,460,465,12399,13305,11728,11715,587,470,515,517,12994,10073,13951,11016,634,527,1058,3780,28878,28463,25199,24851,31065,17159,504,1299,26517,24703,25492,27367,30187,15457
27627,65535,3965,208,180,174,170,170,2155,14083,333,169,162,162,160,158,4777,27467,645,309,295,294,295,294,2021,7939,689,648,625,625,625,624,461,465,12404,13327,11739,11738,591,471,520,518,13031,10129,14024,11110,641,529,1061,3796,28880,28493,25225,24899,31071,17172,506,1303,26496,24702,25510,27413,30204,15471
27709,65535,4005,214,179,172,172,169,2156,14098,336,171,161,163,157,158,4767,27413,649,309,300,293,293,293,2028,7967,690,650,628,627,627,627,461,469,12419,13355,11755,11773,589,471,522,520,13070,10189,14095,11201,642,536,1064,3815,28896,28537,25260,24958,31093,17191,505,1307,26478,24713,25542,27476,30223,15491
27795,65535,3975,210,182,173,174,172,2156,14123,335,166,161,162,157,160,4768,27435,647,308,296,295,294,294,2034,7983,691,651,627,628,628,627,464,467,12433,13385,11777,11811,591,475,524,523,13117,10251,14173,11295,647,539,1067,3834,28926,28599,25299,25023,31111,17209,505,1308,26482,24737,25579,27544,30255,15509
27875,65535,4021,209,181,174,171,170,2158,14147,336,169,161,164,157,156,4763,27414,650,308,297,295,293,293,2037,7994,692,652,628,627,628,624,466,468,12453,13421,11790,11837,591,475,529,528,13150,10293,14212,11312,647,538,1069,3857,28940,28645,25335,25067,31133,17220,504,1315,26490,24764,25613,27585,30277,15519
27858,65535,3978,209,181,174,175,170,2154,14077,334,167,161,159,157,162,4756,27317,643,305,297,294,294,294,2035,7964,691,654,629,629,633,626,466,470,12437,13371,11775,11763,589,472,525,526,12993,10078,13967,10977,636,531,1067,3849,28955,28601,25298,24971,31123,17192,506,1310,26517,24766,25597,27487,30266,15493
27795,65535,4008,210,180,174,172,168,2147,13998,332,164,162,162,159,162,4735,27141,642,307,294,295,293,293,2030,7937,691,651,627,628,628,623,464,467,12398,13303,11743,11715,591,473,519,520,12871,9959,13859,10873,636,529,1069,3828,28922,28526,25277,24919,31098,17169,505,1306,26486,24709,25567,27412,30255,15477
27760,65535,3967,208,180,173,173,170,2143,13945,333,170,165,162,159,163,4719,27043,639,309,295,295,296,293,2024,7906,691,651,628,627,627,624,462,467,12387,13283,11731,11700,587,471,518,520,12852,9943,13853,10884,636,531,1069,3828,28893,28485,25267,24899,31085,17160,506,1305,26470,24676,25548,27389,30252,15477
27764,65535,4005,208,180,177,171,171,2143,13941,335,166,163,157,161,161,4715,27017,642,307,297,293,295,293,2019,7879,688,650,630,626,627,628,463,468,12391,13294,11737,11711,591,473,519,520,12892,9996,13919,10952,637,534,1070,3838,28882,28495,25278,24916,31077,17159,505,1303,26452,24676,25556,27404,30256,15481
27755,65535,3966,211,180,174,172,169,2142,13929,330,166,159,162,161,152,4707,26959,639,307,299,293,293,294,2019,7879,683,650,625,629,628,623,463,469,12388,13287,11739,11711,589,473,524,524,12882,9987,13916,10950,637,534,1071,3844,28873,28479,25284,24917,31075,17154,508,1305,26439,24661,25556,27405,30267,15479
27757,65535,4005,212,180,177,173,171,2141,13924,337,167,166,154,169,159,4702,26913,640,309,295,293,293,289,2021,7876,691,651,628,629,631,627,464,469,12388,13297,11738,11719,591,475,524,522,12897,10013,13960,11010,641,535,1070,3851,28870,28491,25287,24939,31078,17161,503,1308,26417,24652,25559,27418,30269,15487
27775,65535,3969,209,184,174,171,170,2143,13933,332,165,162,163,160,161,4701,26901,635,310,296,294,292,293,2024,7890,691,654,631,633,632,630,464,470,12393,13313,11743,11743,591,479,524,527,12942,10069,14026,11095,641,538,1074,3865,28886,28530,25314,24982,31094,17172,509,1308,26413,24661,25587,27471,30288,15502
27819,65535,4010,208,180,174,170,170,2156,14110,335,166,166,167,164,160,4696,26874,640,311,294,293,293,298,2036,7869,740,713,684,682,681,674,468,471,12394,13333,11754,11766,593,476,524,525,12975,10118,14095,11181,643,540,1077,3880,28894,28558,25323,25020,31102,17191,506,1311,26405,24673,25600,27515,30299,15518
27849,65535,3971,210,179,175,175,172,2199,14280,338,167,163,161,160,159,4693,26875,635,307,293,293,292,298,2064,7971,716,672,646,643,642,638,469,472,12415,13366,11778,11804,594,475,527,527,13020,10187,14173,11274,648,542,1078,3898,28922,28623,25373,25087,31131,17211,505,1312,26409,24701,25650,27590,30326,15539
27887,65535,4017,210,180,177,171,170,2167,14117,335,170,157,160,160,159,4696,26903,643,308,298,294,302,298,2039,7940,702,662,639,637,637,634,468,472,12429,13401,11791,11833,595,477,529,531,13066,10243,14223,11331,649,546,1081,3918,28939,28671,25407,25145,31157,17227,507,1314,26418,24729,25685,27647,30356,15552
27876,65535,3974,211,183,175,172,170,2156,14049,332,166,161,160,157,163,4689,26811,637,307,296,292,293,289,2041,7935,697,658,633,633,635,631,468,474,12417,13365,11781,11782,591,474,528,532,12951,10077,14027,11037,638,533,1083,3919,28972,28649,25385,25072,31156,17205,507,1313,26439,24727,25685,27574,30345,15525
27782,65535,4006,209,181,177,172,169,2144,13939,333,165,159,163,160,159,4678,26657,637,313,296,289,288,297,2032,7892,697,659,634,633,634,633,466,470,12384,13297,11746,11723,590,475,521,520,12814,9939,13884,10891,634,529,1079,3892,28947,28571,25358,25007,31131,17182,506,1309,26449,24707,25650,27489,30323,15506
27749,65535,3963,207,182,174,173,172,2140,13882,330,166,162,163,156,159,4668,26552,629,308,294,292,292,294,2027,7845,693,657,631,632,634,628,465,469,12367,13266,11733,11699,589,473,519,520,12791,9911,13865,10879,633,530,1079,3886,28930,28530,25348,24984,31122,17171,507,1307,26445,24687,25629,27457,30327,15503
27742,65535,4001,209,180,175,171,169,2139,13861,333,166,161,158,157,159,4663,26515,633,306,293,296,294,293,2018,7819,690,653,633,629,630,627,464,472,12378,13275,11730,11707,591,476,519,519,12827,9962,13932,10961,635,535,1081,3895,28908,28521,25360,25009,31121,17180,507,1308,26427,24682,25636,27481,30334,15507
27733,65535,3961,209,180,175,170,171,2136,13854,330,163,165,164,160,158,4658,26452,629,309,292,293,291,291,2017,7807,692,653,632,630,631,629,468,473,12376,13273,11734,11710,591,473,519,521,12830,9964,13939,10963,637,531,1083,3902,28915,28511,25363,25012,31121,17173,506,1309,26426,24681,25639,27482,30334,15507
27722,65535,4000,209,180,172,172,173,2134,13844,334,171,163,160,160,162,4658,26430,631,306,296,294,291,290,2018,7798,693,655,630,635,632,630,466,471,12373,13272,11733,11718,591,474,521,521,12839,9984,13970,11009,640,533,1082,3905,28911,28521,25368,25026,31125,17178,513,1309,26408,24672,25649,27497,30339,15515
27734,65535,3962,209,181,177,172,170,2135,13846,330,163,166,160,165,161,4655,26427,627,305,295,289,291,292,2015,7801,693,656,633,631,631,630,470,469,12377,13295,11741,11743,590,474,522,522,12883,10039,14035,11098,639,535,1085,3919,28921,28550,25392,25074,31133,17189,506,1311,26417,24691,25668,27547,30357,15527
27761,65535,4005,210,183,174,171,169,2136,13868,331,165,161,159,162,157,4658,26442,632,307,295,292,292,291,2015,7798,693,657,631,632,634,629,466,470,12387,13320,11757,11771,592,476,525,526,12928,10096,14102,11182,643,537,1088,3932,28941,28587,25415,25124,31152,17202,509,1315,26431,24716,25695,27597,30372,15541
27794,65535,3968,209,180,173,173,170,2139,13889,331,169,162,158,159,159,4666,26474,628,308,293,298,292,291,2011,7795,692,657,633,632,635,630,466,471,12402,13346,11771,11807,594,479,526,526,12976,10160,14169,11271,646,541,1089,3947,28961,28635,25445,25182,31179,17229,508,1317,26439,24743,25732,27667,30387,15559
27839,65535,4011,211,181,174,173,173,2141,13914,335,165,160,161,161,163,4674,26520,633,310,295,293,291,291,2015,7795,694,658,633,631,632,629,469,473,12419,13381,11790,11837,595,479,529,528,13018,10217,14232,11346,649,540,1090,3963,28987,28683,25488,25241,31201,17247,508,1322,26461,24783,25769,27728,30407,15576
27855,65535,3968,212,181,175,171,170,2142,13913,334,164,165,160,163,160,4670,26474,628,309,291,292,291,291,2013,7782,692,653,632,628,630,625,471,473,12424,13366,11783,11797,593,480,529,528,12943,10095,14077,11085,639,535,1094,3969,29007,28662,25466,25184,31207,17228,507,1322,26485,24797,25774,27670,30404,15546
27767,65535,3999,210,181,174,172,170,2135,13806,331,166,164,160,163,159,4654,26297,630,307,293,294,292,287,2006,7729,691,652,627,631,628,625,468,472,12377,13275,11748,11725,591,474,520,521,12779,9919,13891,10890,633,531,1089,3940,28972,28558,25437,25108,31182,17205,507,1315,26499,24771,25733,27571,30386,15527
27724,65535,3955,212,179,173,170,171,2128,13747,329,165,158,160,162,160,4644,26167,623,309,295,291,290,291,1999,7689,687,650,627,627,625,624,464,468,12353,13229,11728,11687,589,474,519,519,12738,9870,13845,10838,632,529,1091,3930,28947,28493,25411,25067,31165,17188,507,1312,26493,24749,25709,27513,30373,15518
27710,65535,3992,209,181,174,173,169,2130,13722,329,165,159,159,157,157,4636,26094,625,307,294,293,292,285,1995,7656,686,651,627,627,627,623,465,468,12347,13225,11721,11695,590,473,519,519,12755,9903,13893,10912,633,530,1086,3927,28919,28453,25417,25081,31156,17186,505,1311,26479,24735,25699,27523,30372,15517
27714,65535,3951,209,180,176,170,171,2130,13724,329,162,161,161,159,159,4637,26047,622,307,292,291,291,291,1990,7643,684,649,627,625,625,625,465,470,12346,13222,11725,11695,592,477,521,517,12775,9916,13911,10923,635,531,1089,3935,28913,28438,25415,25083,31164,17184,510,1313,26475,24733,25706,27524,30373,15513
27699,65535,3991,209,183,174,170,170,2128,13710,329,166,160,161,158,158,4628,25995,623,306,292,289,289,291,1989,7628,684,651,626,628,626,625,464,468,12339,13215,11725,11699,590,474,518,519,12778,9925,13927,10954,634,530,1090,3936,28895,28423,25411,25083,31160,17186,508,1312,26467,24717,25700,27529,30369,15518
27696,65535,3953,209,180,174,171,170,2128,13713,328,165,159,165,162,162,4630,25988,620,305,293,291,291,291,1989,7622,686,651,627,628,628,624,465,470,12341,13226,11730,11718,591,477,519,518,12818,9977,13989,11036,636,533,1090,3945,28902,28434,25431,25116,31168,17201,509,1311,26470,24739,25718,27569,30376,15523
27719,65535,3993,211,181,174,173,170,2129,13733,330,163,163,163,161,159,4633,25992,626,307,293,292,286,291,1988,7615,688,650,629,627,626,624,466,470,12343,13246,11740,11749,591,477,520,525,12854,10033,14061,11125,640,535,1093,3956,28901,28452,25450,25165,31186,17218,511,1316,26456,24739,25737,27619,30393,15541
27750,65535,3956,205,183,174,173,174,2135,13764,329,166,161,157,157,157,4639,26017,621,306,295,293,291,291,1984,7610,686,651,626,627,631,627,467,473,12355,13272,11756,11777,592,476,523,526,12899,10090,14127,11209,643,536,1094,3971,28915,28487,25483,25218,31209,17235,512,1317,26460,24759,25767,27675,30405,15557
27785,65535,3998,209,181,175,171,173,2136,13794,330,166,159,160,160,164,4644,26059,626,306,291,296,295,290,1985,7611,687,652,627,629,627,626,469,472,12367,13305,11773,11815,596,477,524,526,12943,10151,14194,11298,647,539,1094,3983,28940,28541,25515,25284,31235,17255,507,1325,26462,24791,25805,27742,30431,15576
27824,65535,3960,209,181,175,170,171,2141,13823,333,169,158,160,160,160,4649,26091,622,306,295,293,291,291,1988,7617,688,651,630,625,627,624,473,474,12383,13327,11788,11829,597,476,527,527,12975,10182,14216,11286,646,537,1099,3998,28958,28581,25539,25307,31265,17267,509,1322,26480,24817,25838,27780,30448,15578
27775,65535,3994,211,179,176,171,169,2136,13761,331,165,163,157,160,160,4642,25950,624,305,292,290,290,290,1985,7593,687,649,624,624,625,622,471,475,12346,13251,11758,11750,591,475,526,523,12799,9953,13956,10948,633,530,1095,3978,28958,28487,25498,25208,31249,17242,509,1319,26503,24807,25811,27661,30426,15544
27688,65535,3946,209,180,173,172,169,2129,13683,327,169,161,160,160,160,4627,25785,618,305,293,291,293,290,1979,7539,681,646,622,623,621,619,465,467,12311,13179,11728,11699,589,475,517,515,12703,9849,13851,10834,630,527,1094,3953,28923,28388,25467,25153,31226,17219,510,1314,26504,24777,25774,27587,30412,15522
27641,65535,3980,210,181,174,170,172,2128,13623,328,163,158,161,159,163,4615,25655,619,306,293,291,290,289,1971,7487,680,645,621,621,622,618,464,467,12291,13137,11711,11669,591,472,514,517,12671,9811,13823,10815,628,526,1092,3944,28871,28289,25450,25116,31206,17207,507,1308,26496,24750,25744,27535,30399,15514
27627,65535,3941,211,181,175,169,172,2129,13621,327,163,161,164,160,159,4611,25599,613,305,291,290,290,293,1967,7469,678,644,619,621,620,617,464,470,12285,13135,11713,11676,591,473,517,516,12707,9858,13879,10886,631,527,1093,3944,28853,28272,25454,25124,31207,17205,511,1309,26485,24746,25745,27545,30397,15516
27622,65535,3977,209,180,175,172,173,2132,13613,327,168,165,161,159,162,4607,25547,620,303,292,291,290,288,1970,7461,678,643,619,621,617,618,466,467,12271,13122,11713,11678,588,473,516,516,12704,9857,13885,10885,630,528,1093,3947,28833,28235,25444,25121,31200,17205,506,1311,26464,24733,25741,27540,30391,15508
27607,65535,3938,209,180,173,171,169,2129,13612,326,173,160,159,159,159,4606,25512,611,307,295,290,291,289,1968,7445,678,645,621,621,624,619,465,468,12269,13118,11712,11686,591,476,515,516,12719,9879,13924,10945,633,531,1094,3948,28812,28211,25454,25139,31207,17208,507,1309,26442,24713,25747,27557,30392,15513
27624,65535,3978,211,180,174,170,170,2131,13623,325,163,161,157,159,159,4606,25515,618,304,292,290,291,290,1966,7443,679,643,623,623,621,617,466,469,12265,13127,11721,11709,593,475,517,517,12760,9934,13989,11031,635,531,1092,3957,28806,28217,25467,25175,31220,17223,507,1309,26433,24713,25752,27594,30394,15526
27640,65535,3939,210,180,173,171,172,2133,13646,330,163,162,161,163,158,4610,25523,612,303,290,290,290,291,1973,7439,680,643,620,623,620,619,468,470,12275,13145,11735,11739,591,474,519,519,12801,9989,14061,11122,639,533,1097,3966,28818,28243,25488,25218,31235,17239,507,1311,26422,24723,25777,27649,30414,15546
27667,65535,3982,212,183,177,171,170,2139,13677,328,168,161,157,158,156,4616,25546,616,303,291,291,290,290,1967,7444,679,643,619,621,621,620,467,473,12279,13172,11751,11769,594,475,524,524,12837,10043,14127,11203,641,535,1094,3978,28824,28269,25510,25268,31258,17259,507,1314,26415,24739,25801,27699,30427,15555
27694,65535,3944,208,179,174,171,173,2142,13707,330,169,162,163,163,157,4623,25582,613,307,292,291,291,291,1969,7447,680,648,622,621,623,623,466,471,12291,13196,11764,11799,593,477,523,523,12877,10095,14185,11285,644,537,1096,3991,28844,28309,25541,25329,31282,17280,510,1316,26412,24751,25836,27765,30450,15573
27731,65535,3986,208,181,174,171,172,2146,13743,330,166,158,159,160,160,4631,25627,618,307,294,294,294,292,1973,7457,682,649,624,624,625,622,467,473,12303,13225,11785,11833,594,477,525,527,12919,10153,14249,11362,648,539,1100,4006,28879,28367,25577,25391,31315,17304,510,1319,26423,24791,25875,27834,30470,15591
27751,65535,3946,207,179,173,171,169,2151,13753,331,165,165,160,152,164,4637,25611,613,305,293,290,290,290,1975,7463,680,643,629,619,619,617,469,472,12300,13211,11784,11804,594,477,527,529,12863,10051,14118,11129,639,531,1101,4013,28895,28349,25561,25338,31327,17291,511,1320,26422,24779,25891,27791,30461,15565
27650,65535,3976,211,181,173,173,165,2143,13647,333,165,162,164,159,156,4618,25413,614,306,295,291,290,289,1973,7415,677,644,622,618,619,619,465,470,12249,13104,11741,11722,589,474,523,519,12673,9840,13896,10893,630,527,1095,3973,28847,28210,25522,25247,31308,17271,507,1314,26418,24740,25840,27678,30442,15540
