 ECG Channel 
8245.759695
8271.084222
8282.349501
8292.765414
8317.44174
8344.017964
8358.300729
8367.107316
8391.046034
8426.250032
8451.507503
8467.757221
8495.920419
8532.152597
8560.025222
8574.755022
8596.682083
8629.807368
8649.365145
8654.126066
8657.747049
8666.710099
8662.955006
8638.211624
8604.862822
8572.698661
8535.103027
8479.0225
8418.493976
8373.857543
8336.887757
8290.954923
8241.557567
8211.315657
8195.758843
8172.557732
8145.065086
8131.13995
8128.70361
8118.064179
8098.394644
8088.761042
8093.834888
8095.108938
8083.441327
8078.456888
8084.625969
8090.839754
8085.676501
8078.881571
8085.050653
8094.281923
8088.962208
8083.664844
8093.231391
8101.702702
8100.00397
8094.036054
8099.199307
8110.352827
8113.102092
8104.027284
8104.586077
8115.583136
8117.371275
8107.804728
8108.408226
8118.511214
8123.495653
8114.622011
8106.888307
8109.23524
8109.726979
8097.947609
8086.794089
8090.124499
8097.008836
8087.5764
8077.093432
8079.708586
8090.39272
8087.777565
8077.339301
8077.048728
8085.162411
8086.481164
8078.412185
8078.412185
8088.917504
8090.571534
8079.418013
8072.265455
8081.116746
8085.542391
8075.66292
8066.789277
8074.098298
8075.484106
8062.408335
8053.981728
8061.201341
8068.219789
8064.040013
8056.172199
8054.585225
8055.322833
8042.783504
8028.25487
8032.144074
8046.337431
8071.170219
8089.63276
8107.804728
8123.316839
8132.54811
8129.530624
8126.244918
8131.050543
8130.737618
8116.097226
8105.547202
8096.762967
8085.542391
0
8428.954593
8409.799148
8419.94684
8444.869035
8437.828235
8419.097474
8419.768026
8443.058544
8446.187788
8424.148968
8412.347247
8430.765084
8440.421038
8421.220889
8409.843851
8422.830215
8432.37441
8419.700971
8410.939087
8414.627125
8421.332648
8413.733055
8389.928447
8396.410453
8426.540604
8437.872939
8435.414247
8441.851549
8460.82818
8466.08084
8451.574558
8449.607605
8463.733907
8469.433602
8448.825294
8426.004163
8429.513386
8434.587232
8411.699046
8395.315217
8412.816633
8423.299601
8407.675732
8394.398796
8402.825404
8418.315162
8413.129558
8400.925505
8408.92743
8423.523119
8409.665037
8396.321046
8404.501784
8439.16934
8467.019614
8480.184791
8513.801815
8577.884266
8661.233921
8714.229907
8767.203542
8909.874727
9049.84135
9088.085185
9092.7567
9052.65767
8975.879428
8809.269525
8634.724752
8482.241152
8386.687444
8428.418151
8499.496698
8538.835769
8556.001908
8539.215748
8489.617227
8495.316922
8510.113777
8514.047684
8490.734814
8479.558942
8505.218745
8513.019504
8498.62498
8495.875716
8523.368361
8537.651126
8514.584126
8505.956352
8533.806626
8553.856141
8550.682193
8526.117626
8547.620004
8580.030034
8580.588827
8569.815286
8579.761813
8598.850202
8593.843412
8584.187458
8610.003723
8645.677107
8665.614863
8656.584758
8660.45161
8699.433052
8726.523367
8742.527216
8758.441658
8808.576621
8837.946813
8850.754362
8870.513305
8917.675485
8961.395497
8985.445975
8990.341007
9022.304001
9057.463295
9059.296138
9051.830656
9056.189246
9065.845199
9055.518693
9014.369132
8984.99894
8959.830875
8910.545279
8836.538653
8772.076222
8739.420323
8695.543849
8636.557595
8599.699569
8581.25938
8572.408089
8540.243928
8509.085597
8501.262486
8505.352855
8489.863096
8471.936997
8482.241152
8486.756204
8471.914646
8450.613433
8456.626052
8469.835933
8470.104154
8458.324785
8445.114904
8461.834009
8464.806791
8447.305375
8451.574558
8467.265483
8475.826201
8465.924378
8461.185808
8476.07207
8482.665835
8469.679471
8459.196503
8472.719308
8487.784384
8481.414137
8468.070146
8472.406384
8495.853364
8489.505469
8472.786364
8474.552152
8488.142012
8491.181849
8476.45205
8467.645462
8476.496753
8478.240189
8461.386974
8455.396707
8486.0633
8499.943733
8477.144954
8458.39184
8460.82818
8471.914646
8461.297567
8447.014802
8450.792247
8460.068221
8454.435581
8445.293718
8456.603701
8479.223666
8472.22757
8452.133352
8442.857378
8457.341308
8467.176076
8445.070201
8430.318049
8461.386974
8475.334463
8459.844704
8449.428791
8468.986567
8479.290721
8451.619262
8433.78257
8444.086724
8448.512369
8439.348154
8433.961384
8466.214951
8500.569582
8507.230402
8488.991378
8499.340236
8517.109873
8512.639524
8488.343178
8481.525896
8500.167251
8491.83005
8451.261634
8429.93807
8451.708669
8456.603701
8428.66402
8414.940049
8433.357886
8440.622203
8425.445369
8422.070256
8440.286927
8446.254843
8439.929299
8429.111055
8436.531834
8452.446276
8448.311204
8440.421038
8474.865076
8525.78235
8552.962071
8578.644225
8653.79079
8756.228835
8806.721426
8887.657093
9014.503242
9080.373833
9084.799479
9026.550833
8941.770666
8850.195569
8714.185204
8560.360498
8434.587232
8464.493867
8557.186551
8570.575246
8554.6161
8557.499475
8551.039821
8529.11276
8505.866945
8508.437396
8534.87951
8537.226443
8520.127358
8522.541347
8544.021373
8547.999984
8532.644335
8528.308097
8546.971804
8554.191417
8543.931966
8542.099123
8567.915388
8580.968807
8569.569417
8558.348841
8580.186496
8601.174784
8596.12329
8587.786089
8602.672351
8628.712133
8631.148473
8623.682991
8634.612994
8671.98511
8687.787794
8686.603151
8703.769291
8748.539835
8774.154934
8777.731213
8793.355083
8838.706772
8878.850505
8898.184764
8924.202195
8974.314806
9010.234059
9022.572222
9030.909423
9055.183417
9076.61874
9068.125077
9045.169836
9035.178606
9026.684943
8990.363358
8931.600622
8893.356787
8857.482238
8802.16167
8737.006335
8687.877201
8663.893779
8638.41279
8592.502307
8553.543216
8548.491722
8541.093295
8511.678399
8485.973893
8493.975817
8498.826146
8473.233399
8453.51916
8468.38307
8482.799945
8468.114849
8451.954538
8459.218855
8475.356814
8464.762087
8444.198483
8446.634823
8464.180942
8457.050736
8437.135331
8431.145064
8453.89914
8462.057526
8446.254843
8443.326765
8466.818448
8477.212009
8456.46959
8449.048811
8471.177038
8485.482155
8475.490925
8461.07405
8476.429698
8485.929189
8473.12164
8457.564826
8465.164419
8483.582256
8478.486059
8459.464724
8464.225646
8485.03512
8481.19062
8461.297567
8460.850532
8478.463707
8482.174096
8470.662948
8462.012823
8478.217838
8485.415099
8465.298529
8453.13918
8469.523009
8484.230457
8467.019614
8449.764067
8459.397669
8472.808715
8460.671718
8441.158645
8447.260672
8463.666852
8454.793209
8435.928337
8439.996355
8458.347137
8458.593006
8438.163512
8429.17811
8447.350079
8450.434619
8431.457988
8425.110093
8440.778666
8443.371468
8412.235488
8388.475584
8401.394892
8424.104264
8434.743695
8443.729096
8472.026404
8492.277085
8486.44328
8469.612416
8475.312111
8494.64637
8490.332483
8464.40446
8466.907855
8473.12164
8454.793209
8420.639744
8415.767064
8436.062448
8445.897215
8427.144102
8418.896308
8438.096456
8447.908872
8428.820482
8412.570764
8423.031381
8438.878767
8431.234471
8420.170357
8437.604718
8462.951596
8469.902989
8480.743585
8520.172062
8575.492629
8643.106656
8717.359152
8773.216161
8877.822325
9005.674303
9022.058132
8989.961027
8952.4548
8887.388872
8796.327865
8660.473962
8547.709411
8473.948654
8479.849515
8540.109818
8573.145696
8562.908597
8530.073885
8495.67455
8500.055492
8518.495681
8513.757111
8491.047739
8493.573486
8515.299382
8515.724065
8501.553059
8505.777539
8525.536481
8536.265318
8522.809568
8516.260507
8537.673478
8549.072868
8535.281841
8534.812455
8557.343013
8571.044632
8564.160295
8557.119496
8577.92897
8606.270982
8607.075644
8600.191307
8618.050351
8645.475941
8652.963776
8653.388459
8674.913189
8710.899497
8729.00441
8728.937355
8751.534969
8797.780728
8831.107179
8840.450208
8867.965206
8920.491805
8959.719117
8967.31871
8985.468326
9030.328277
9065.442868
9070.203789
9068.862685
9085.313569
9099.953961
9083.056043
9045.326298
9022.438112
8998.812318
8944.318765
8869.641586
8819.774845
8787.29776
8736.447541
8672.186276
8629.762665
8609.444929
8585.10388
8544.893091
8516.707542
8520.686152
8515.388789
8490.80187
8468.293663
8474.865076
8482.867
8466.706689
8449.272329
8461.923416
8477.10025
8466.147896
8445.181959
8447.774762
8466.97491
8461.118753
8443.662041
8443.416171
8458.704765
8460.425849
8443.997317
8440.488093
8454.972023
8462.392803
8446.992451
8439.705782
8456.98368
8467.600759
8449.048811
8436.464779
8451.08282
8464.136239
8452.356869
8440.599852
8450.904006
8465.343233
8454.145009
8435.548357
8439.392857
8457.49777
8460.492904
8443.863206
8442.253881
8460.336442
8461.07405
8440.689259
8435.481302
8456.491942
8465.231474
8440.756314
8427.63584
8446.031326
8451.239282
8433.648459
8420.818558
8435.637764
8446.880692
8436.420075
8417.979886
8422.249069
8437.716477
8431.323878
8412.682523
8414.560069
8432.016782
8429.044
8410.268534
8412.682523
8434.207253
8437.023573
8415.007104
8408.011008
8425.780645
8432.262651
8417.935183
8411.989619
8424.81952
8439.459913
8426.697067
8403.786529
8405.149985
8412.77193
8400.389063
8384.2064
8408.525098
8450.680488
8468.852457
8463.622148
8464.851494
8484.476326
8486.130355
8464.292701
8459.263558
8476.653215
8481.145916
8449.205273
8424.104264
8423.657229
8422.718456
8404.032398
8394.018816
8410.559107
8422.159663
8408.592154
8393.68354
8404.635895
8422.450235
8410.201479
8390.934276
8397.14806
8416.482319
8414.805939
8400.72434
8417.465796
8459.107096
8492.142974
8508.169175
8555.152542
8661.323328
8750.260919
8794.897353
8912.959267
9024.785045
9032.02701
8983.702538
8896.217811
8835.73399
8731.68662
8582.086394
8437.202387
8395.762252
8473.591026
8526.519957
8509.934963
8505.732835
8505.218745
8491.137146
8471.624073
8477.189657
8494.758128
8493.193506
8476.58616
8476.161477
8492.388844
8502.402425
8489.684283
8485.415099
8505.2858
8518.719199
8509.666742
8501.083672
8521.244946
8538.388734
8532.912556
8523.703638
8541.249757
8558.751173
8555.51017
8548.84935
8570.128211
8599.766624
8609.623743
8605.958057
8620.553746
8651.287395
8670.018157
8668.408831
8684.770308
8727.59625
8757.547588
8764.588388
8781.575713
8827.642659
8875.631854
8893.535601
8909.114767
8952.678317
8993.805527
9005.026103
9011.865736
9040.543025
9071.835467
9076.171705
9063.67708
9062.470086
9063.341804
9034.84333
8985.244809
8947.872692
8918.837776
8869.596883
8792.68453
8734.100608
8705.311561
8664.340814
8606.136871
8562.886246
8554.392583
8540.623908
8501.463652
8475.245056
8480.743585
8483.202277
8466.572579
8445.919567
8449.652308
8466.192599
8459.844704
8439.772837
8444.377296
8465.075012
8460.805829
8441.896253
8442.946785
8459.352965
8457.587177
8437.11298
8435.101323
8452.848608
8456.246073
8438.364677
8427.300564
8445.003145
8460.783477
8450.389916
8439.54932
8456.33548
8472.249922
8465.477343
8449.339384
8455.374355
8471.825239
8466.013785
8442.946785
8439.862244
8457.341308
8454.301471
8433.02261
8430.429808
8446.21014
8446.903044
8431.905023
8430.832139
8447.148913
8451.619262
8436.822407
8420.751503
8439.102285
8451.73102
8433.223776
8417.756369
8425.512424
8439.929299
8426.22768
8403.831232
8411.207308
8430.183939
8426.965288
8407.966305
8408.100415
8427.278212
8427.948764
8406.915773
8403.831232
8423.389008
8426.942936
8405.73113
8400.701988
8418.069293
8426.562956
8407.407511
8395.963418
8411.319066
8419.097474
8395.337569
8377.143249
8384.295807
8398.399758
8391.046034
8388.699101
8424.372485
8464.426811
8461.901064
8441.359811
8449.339384
8471.914646
8469.008919
8445.427828
8434.587232
8448.981756
8441.449218
8406.312276
8389.637874
8403.630066
8412.011971
8395.024645
8386.12865
8400.053787
8413.017799
8401.841927
8387.201534
8395.628142
8411.050846
8402.154851
8386.218057
8391.202496
8411.564936
8416.035285
8414.962401
8439.571671
8490.645408
8529.470388
8569.591769
8644.961851
8726.746884
8803.972161
8923.24107
9019.197109
9058.603234
9055.697507
8964.36828
8849.480313
8703.188146
8573.659786
8407.429863
8330.808083
8430.832139
8518.942716
8528.285745
8502.938867
8488.566695
8485.817431
8484.945713
8467.757221
8465.656157
8486.331521
8488.030253
8469.902989
8469.947692
8488.030253
8493.282913
8479.737756
8476.988492
8501.083672
8513.578297
8499.89903
8493.461727
8513.243021
8534.164254
8527.771655
8517.087521
8535.617117
8561.925121
8559.242911
8551.643318
8568.250664
8598.760795
8608.126176
8603.186441
8619.212642
8650.885064
8672.074517
8671.962759
8687.340759
8729.719666
8758.575768
8769.796344
8791.969275
8834.795217
8876.682386
8890.629875
8902.677465
8945.190483
8985.468326
8993.023216
8991.257428
9014.659705
9036.944394
9031.870548
9004.266143
8988.351701
8980.841515
8945.235186
8882.695005
8834.214072
8801.982856
8754.261882
8685.932599
8639.262156
8621.425464
8590.736519
8543.931966
8511.588992
8506.425739
8505.486966
8479.670701
8454.346175
8459.598834
8468.472477
8456.067259
8439.482264
8440.219872
8454.279119
8451.686317
8429.155759
8429.714552
8445.472532
8446.143084
8429.647497
8428.909889
8448.601776
8454.569692
8438.990526
8431.48034
8451.552206
8460.984643
8446.120733
8439.437561
8455.128486
8469.880637
8458.145971
8441.650384
8455.463762
8470.528838
8462.728079
8443.460875
8449.205273
8466.751393
8459.28591
8441.717439
8441.896253
8462.23634
8464.583273
8448.311204
8444.086724
8459.844704
8458.928282
8436.531834
8428.060523
8446.456009
8451.172227
8432.575575
8419.142177
8430.273346
8440.599852
8425.065389
8413.80011
8422.919622
8435.101323
8428.14993
8409.374465
8414.001276
8431.681506
8426.853529
8407.89925
8406.356979
8424.730113
8424.461892
8405.619372
8402.221906
8419.008067
8424.126616
8405.865241
8399.763215
8419.142177
8428.775779
8415.655305
8401.774872
8415.945878
8422.852567
8396.343398
8370.482429
8375.578627
8394.845831
8399.271476
8405.686427
8431.905023
8460.939939
8462.281044
8451.59691
8455.799038
8472.786364
8461.610491
8436.598889
8432.240299
8450.70284
8440.5775
8406.558145
8389.369653
8405.08293
8419.209232
8407.966305
8392.431842
8403.138328
8421.332648
8413.487186
8400.657284
8413.621296
8430.765084
8422.271421
8405.664075
8413.017799
8433.559052
8440.286927
8446.72423
8477.34612
8527.905766
8566.574283
8617.804482
8699.634218
8769.885751
8880.683348
8997.784137
9022.974553
9023.466292
8990.631579
8904.376197
8784.928475
8645.230072
8521.468463
8399.606752
8409.776796
8513.690056
8560.315795
8541.920309
8505.934001
8489.058434
8502.603591
8504.838765
8486.264466
8484.677492
8503.989399
8505.486966
8485.705672
8483.537553
8508.169175
8518.74155
8504.704655
8494.981646
8513.310076
8528.665725
8518.898013
8509.018541
8528.621021
8552.917368
8550.190455
8537.204091
8552.984423
8577.504286
8578.376005
8569.144734
8585.081528
8614.630534
8624.800578
8620.956078
8635.864691
8673.415622
8694.359206
8692.951047
8710.988904
8752.093762
8790.583466
8802.809871
8822.457054
8864.031299
8909.941782
8931.57827
8945.816332
8984.328387
9023.399237
9032.652859
9031.490568
9050.310737
9071.589598
9061.017223
9029.59067
9012.670399
9000.399292
8959.294434
8893.312084
8841.277223
8810.87885
8762.688489
8690.93939
8637.965755
8614.630534
8584.7239
8537.964051
8505.978704
8506.291629
8502.290666
8474.552152
8451.798076
8456.782515
8470.618244
8456.491942
8433.670811
8439.884596
8455.486113
8449.205273
8435.280136
8441.60568
8454.793209
8451.798076
8429.222814
8423.545471
8439.705782
8444.55611
8430.608622
8427.568785
8444.04202
8452.49098
8436.598889
8427.926413
8440.689259
8456.156666
8447.305375
8431.592099
8442.902081
8455.977852
8448.601776
8433.156721
8439.616375
8456.447238
8450.434619
8431.905023
8436.911814
8451.887483
8451.775724
8433.894328
8429.714552
8447.640651
8448.199445
8430.742732
8423.612526
8436.710648
8441.516273
8424.864224
8409.307409
8423.701933
8433.78257
8421.399703
8405.351151
8413.844814
8429.379276
8425.423017
8406.759311
8409.8215
8429.93807
8426.160625
8408.770968
8408.256877
8424.059561
8423.567822
8403.495956
8397.90802
8419.477453
8425.557128
8408.838023
8401.998389
8416.638782
8427.479378
8414.738883
8399.919677
8411.631991
8428.038171
8416.035285
8398.109185
8405.909944
8418.426921
8400.746691
8370.169505
8371.085926
8391.716587
8395.650494
8403.652418
8432.441465
8463.398631
8464.583273
8451.574558
8453.295643
8471.378204
8473.658082
8454.614395
8444.422
8452.043945
8447.260672
8419.812729
8400.947857
8411.788453
8428.798131
8415.521194
8400.72434
8409.508575
8423.858395
8418.650439
8401.663113
8403.764177
8418.471625
8416.571726
8397.975075
8402.601886
8427.702895
8439.102285
8441.158645
8466.818448
8517.221632
8566.328414
8634.702401
8717.649724
8790.516411
8914.27802
9017.632487
9015.88905
8995.079576
8936.719172
8855.917615
8738.459198
8610.540165
8498.781442
8422.025552
8448.422962
8528.419856
8557.834751
8536.354725
8497.239172
8486.286817
8501.910687
8504.034102
8487.024425
8479.670701
8501.843631
8513.958277
8501.508355
8497.775614
8514.584126
8529.135111
8517.288687
8510.605515
8530.476216
8550.413972
8548.737591
8538.612251
8548.312908
8573.503324
8574.531504
8561.545141
8568.049499
8590.647112
8602.493537
8590.669464
8598.134947
8632.087246
8651.801485
8642.883139
8645.006555
8676.477811
8706.160928
8710.854794
8725.718704
8765.482457
8804.642714
8823.664048
8839.131455
8875.520095
8921.944669
8946.509236
8960.948463
8996.331274
9037.458484
9053.261167
9051.942414
9066.135772
9088.263999
9080.552647
9045.438057
9021.275821
9008.289457
8970.78323
8901.85045
8839.913766
8806.073225
8761.79442
8692.749881
8632.623688
8607.925011
8586.668502
8541.607385
8498.826146
8489.326655
8487.784384
8467.578407
8445.092552
8444.265538
8462.951596
8460.247035
8433.335535
8428.172282
8442.902081
8442.969137
8421.824386
8415.454139
8433.246128
8443.058544
8424.931279
8418.181052
8436.21891
8445.226663
8432.50852
8421.310296
8431.122712
8445.181959
8437.76118
8426.965288
8433.849625
8454.234416
8451.574558
8433.179073
8438.744657
8455.419058
8453.809733
8438.185863
8435.637764
8452.513331
8453.13918
8431.368581
8427.702895
8446.947747
8452.848608
8433.246128
8426.630011
8442.835026
8448.221797
8427.971116
8414.515366
8424.864224
8437.269442
8434.408418
8417.599907
8422.182014
8439.817541
8432.419113
8414.515366
8418.248107
8435.078971
8430.563918
8409.396816
8405.462909
8420.885613
8421.310296
8401.841927
8392.208325
8413.151909
8422.405532
8406.580497
8397.684502
8408.569802
8423.321953
8408.949782
8391.873049
8404.077101
8418.963363
8407.742787
8392.409491
8400.031435
8412.570764
8404.166508
8379.356072
8367.375537
8374.371633
8373.05288
8358.658357
8372.941121
8417.13052
8449.562901
8444.645517
8436.710648
8458.503599
8471.244093
8450.255805
8431.793264
8445.405477
8453.675622
8426.808825
8390.330778
8388.117956
8402.803052
8392.27538
8373.142287
8381.725357
8397.818613
8388.654398
8368.090793
8370.169505
8391.537773
8393.54943
8372.427031
8372.359976
8396.477508
8401.953686
8384.921656
8389.45906
8432.240299
8470.282968
8491.740643
8526.877585
8620.866671
8725.651649
8771.092745
8872.368499
9012.312771
9044.83456
9000.198126
8903.526831
8830.257813
8737.788646
8592.323493
8435.146026
8353.986842
8429.401628
8517.378094
8514.718236
8492.590009
8496.725082
8495.898067
8479.223666
8467.35489
8480.743585
8490.377187
8474.708614
8464.583273
8483.358739
8495.853364
8484.766899
8473.680433
8491.31596
8513.690056
8510.694922
8498.267352
8510.426701
8530.498568
8533.09137
8516.8193
8526.050571
8556.381888
8563.646205
8550.704545
8556.001908
8582.846353
8599.699569
8595.989179
8604.281676
8634.635345
8662.798543
8663.983186
8667.805334
8705.870355
8749.858588
8760.90035
8771.092745
8809.537746
8853.570682
8878.604636
8890.69693
8924.336305
8972.638425
8998.946428
9001.7851
9020.582917
9055.675156
9069.086202
9056.010432
9046.220368
9047.78499
9031.199995
8977.667567
8927.376142
8898.140061
8857.437534
8790.941094
8726.94805
8690.55941
8658.998747
8609.757854
8560.718126
8538.746362
8530.677382
8503.140033
8465.097364
8457.36366
8468.986567
8457.654233
8432.709686
8426.764122
8442.075067
8442.566805
8422.271421
8418.404569
8435.973041
8439.124637
8422.38318
8413.442482
8430.049828
8440.555148
8427.032343
8414.202441
8426.920584
8443.885558
8437.62707
8419.298639
8428.596965
8450.076991
8446.299547
8428.261689
8432.709686
8450.725192
8449.115866
8424.730113
8422.51729
8442.87973
8443.974965
8425.802997
8419.008067
8435.593061
8439.303451
8420.885613
8410.179127
8428.216985
8438.185863
8421.310296
8406.848718
8418.449273
8432.8885
8421.734979
8402.713645
8411.989619
8428.865186
8422.584346
8402.803052
8406.334627
8421.779683
8417.823424
8400.769043
8400.254953
8415.610601
8420.103302
8406.088758
8402.937162
8420.148006
8426.36179
8409.329761
8398.131537
8409.374465
8418.493976
8404.792357
8391.716587
8404.70295
8419.164529
8407.675732
8387.089775
8398.824441
8410.223831
8391.716587
8364.670976
8360.4912
8377.053842
8378.484354
8375.556275
8405.753482
8452.446276
8458.078916
8436.598889
8438.029401
8460.001166
8462.705727
8443.572634
8433.737866
8444.377296
8439.504616
8409.106244
8387.357996
8392.007159
8406.915773
8400.098491
8387.02272
8389.70493
8404.971171
8400.880802
8381.591246
8382.954703
8398.712683
8398.757386
8379.601941
8373.745784
8397.818613
8414.738883
8415.007104
8441.449218
8494.802832
8541.562681
8599.72192
8680.121145
8757.324071
8871.340319
9005.607248
9054.825789
9053.484685
9016.626658
8926.415017
8803.212202
8656.182427
8523.748341
8384.318159
8369.320139
8468.226608
8529.805664
8528.21869
8498.200297
8474.596855
8487.158535
8498.222649
8475.960311
8465.879675
8482.397614
8495.026349
8487.940846
8475.379166
8488.834916
8504.414082
8494.534611
8477.524934
8491.718291
8518.160405
8517.892184
8504.995227
8516.081693
8544.647222
8549.564606
8535.728876
8541.383867
8566.686042
8575.425574
8566.328414
8575.313816
8605.578078
8624.912336
8624.95704
8627.728656
8659.334023
8691.744052
8701.511765
8708.507861
8741.342573
8780.927513
8797.356045
8811.147071
8848.340374
8891.34513
8915.395607
8929.544262
8957.729811
8995.191335
9015.442016
9013.83269
9022.192242
9043.4264
9047.78499
9017.140748
8987.94937
8974.359509
8942.441218
8880.258665
8817.159691
8781.754527
8747.511655
8686.089061
8627.929822
8600.48188
8582.086394
8536.980574
8496.300399
8490.556001
8491.986512
8474.239227
8446.835988
8439.571671
8450.05464
8443.237358
8419.05277
8411.676694
8429.044
8432.329706
8412.90604
8400.947857
8422.561994
8436.151855
8419.544508
8406.446386
8423.254898
8439.594023
8426.250032
8412.213136
8425.579479
8440.286927
8433.134369
8422.606697
8430.250994
8449.831122
8445.852512
8427.926413
8430.45216
8447.417134
8446.657174
8427.077046
8425.735942
8442.835026
8444.064372
8424.104264
8413.889517
8430.809788
8442.164474
8424.528947
8415.275325
8433.357886
8442.611509
8425.311258
8412.123729
8425.758293
8436.375372
8427.814654
8411.944915
8414.493014
8427.524081
8418.985715
8397.259819
8397.639799
8418.069293
8416.929354
8396.075177
8392.834174
8408.480395
8413.442482
8392.320084
8386.061595
8406.692255
8407.13929
8381.211267
8366.347357
8376.89738
8389.950799
8381.166563
8385.703967
8418.046942
8455.463762
8454.145009
8437.157683
8448.713535
8469.098326
8458.749468
8430.787436
8421.958497
8434.564881
8425.266555
8387.737976
8373.477563
8390.107261
8395.181107
8381.837116
8377.009139
8395.896363
8402.624238
8385.748671
8375.466868
8390.889572
8404.524136
8393.54943
8378.149078
8386.061595
8405.775834
8408.03336
8411.095549
8444.153779
8498.222649
8529.582146
8569.792935
8649.81218
8730.054942
8806.587315
8928.851358
9023.890975
9062.201865
9044.923967
8939.691954
8817.629077
8668.967625
8529.403332
8366.548522
8312.122025
8426.987639
8514.360608
8524.083617
8500.726044
8486.867963
8480.050681
8473.479268
8453.228587
8455.374355
8474.954483
8476.094422
8458.861227
8454.681451
8477.413175
8489.885448
8475.535628
8471.109983
8490.444242
8496.210992
8483.314035
8478.933093
8501.731873
8523.256603
8514.673533
8506.403387
8526.855234
8547.418838
8542.747324
8533.896033
8554.124362
8585.215638
8593.396377
8590.200077
8608.461453
8646.705287
8665.279587
8665.592511
8683.742128
8730.300812
8757.167608
8763.917835
8786.828373
8833.565871
8869.55218
8878.805802
8892.909752
8936.808579
8976.728794
8978.695748
8974.873599
8998.409986
9020.068827
9004.556716
8973.554846
8955.829913
8938.149683
8897.178936
8835.778694
8789.085899
8761.41444
8715.369846
8649.163979
8607.634438
8589.08249
8560.025222
8520.037951
8491.96416
8489.214896
8482.59878
8455.709631
8439.772837
8444.623166
8448.378259
8428.775779
8414.135386
8422.51729
8433.000259
8419.499805
8400.836098
8407.027532
8426.294735
8420.259764
8402.177203
8405.060578
8425.490072
8425.8477
8410.894383
8412.481357
8435.32484
8437.135331
8421.556165
8420.662096
8434.788398
8443.282061
8431.927375
8417.599907
8431.122712
8441.225701
8430.832139
8415.34238
8426.831177
8443.058544
8433.290831
8412.615468
8418.493976
8433.02261
8428.52991
8405.507613
8403.451252
8422.964325
8420.08095
8399.494994
8396.052825
8409.150947
8409.687389
8390.21902
8384.429918
8399.360883
8408.480395
8391.560124
8379.870162
8394.041168
8404.501784
8392.185973
8375.690386
8383.893476
8395.136403
8375.712738
8351.729316
8350.522322
8369.744822
8373.343453
8374.662206
8401.88663
8441.113942
8439.817541
8424.059561
8433.737866
8452.602738
8444.913738
8419.768026
8408.480395
8419.43275
8417.488148
8388.408528
8362.614615
8369.85658
8389.257895
8377.27736
8361.832304
8372.091755
8388.855563
8379.825459
8363.173409
8371.600017
8389.146136
8389.660226
8368.515476
8371.331796
8396.701026
8409.329761
8413.934221
8439.884596
8490.04191
8536.488835
8588.903676
8659.199912
8734.435884
8843.892377
8969.24096
9013.542117
9029.143635
9002.343893
8907.192517
8776.27835
8622.677162
8496.613323
8361.340566
8353.226883
8456.916625
8510.963143
8509.845556
8476.183829
8453.787381
8462.437506
8464.091535
8444.489055
8438.811712
8459.710593
8469.321843
8455.530817
8449.16057
8468.204256
8478.910742
8466.214951
8458.593006
8474.976835
8491.785346
8487.583219
8479.938922
8498.937905
8519.970896
8516.30521
8502.514184
8517.400446
8549.36344
8555.621929
8549.475199
8559.399373
8588.300179
8606.270982
8600.593638
8613.602354
8651.22034
8676.567218
8682.132802
8693.845116
8733.363001
8772.635016
8787.521277
8807.570792
8850.754362
8895.726072
8915.574421
8927.59966
8962.133105
9001.181603
9015.486719
9012.536289
9025.321487
9046.130961
9038.30785
8998.611152
8971.632596
8952.275986
8910.210003
8841.791313
8783.58737
8750.52914
8711.502994
8651.108581
8599.878383
8580.8794
8566.462525
8526.028219
8487.851439
8488.521992
8497.328579
8479.715404
8450.367564
8449.965233
8462.906893
8451.440448
8431.61445
8436.308317
8448.758238
8443.594985
8426.317087
8423.098436
8436.531834
8439.348154
8420.013895
8414.649476
8436.308317
8448.601776
8435.257785
8424.484244
8438.208215
8456.156666
8444.980794
8429.111055
8445.293718
8466.997262
8455.799038
8439.862244
8447.975927
8462.593968
8460.82818
8446.21014
8448.668831
8465.879675
8464.359756
8443.617337
8442.700916
8461.677547
8463.756259
8445.047849
8437.269442
8447.528892
8453.720326
8441.739791
8429.55809
8439.728134
8452.245111
8434.207253
8415.34238
8424.640706
8438.096456
8431.055657
8410.670866
8413.218965
8432.285003
8428.395799
8408.458043
8411.252011
8425.981811
8415.878822
8388.162659
8372.628197
8392.051863
8399.003255
8395.114052
8414.224793
8455.977852
8475.155649
8456.022555
8448.512369
8469.299492
8479.625997
8457.386012
8433.804921
8443.930262
8453.65327
8433.246128
8403.183031
8400.232601
8416.392912
8411.36377
8392.342435
8393.884706
8414.045979
8417.041113
8398.086834
8394.510555
8412.39195
8417.242279
8401.37254
8395.181107
8415.565898
8431.927375
8430.094532
8442.343288
8487.404405
8536.622946
8580.454717
8656.048316
8742.638975
8830.704848
8960.255559
9029.121283
9022.79574
9000.622809
8925.744465
8841.098409
8710.608925
8582.913409
8457.542474
8416.23645
8485.258637
8545.094257
8538.679306
8501.195431
8470.774707
8481.637654
8494.176983
8478.419003
8465.186771
8483.492849
8499.429643
8487.180887
8474.418041
8487.09148
8505.554021
8500.904858
8483.738718
8490.220724
8516.282858
8520.954373
8500.502527
8504.883469
8528.397504
8538.72401
8526.81053
8526.452902
8553.364402
8568.362423
8557.678289
8556.158371
8583.516906
8607.925011
8613.445892
8616.865708
8642.301994
8676.634273
8688.950084
8692.951047
8728.691486
8773.864362
8793.645655
8803.167498
8834.057609
8883.343206
8911.640514
8921.676448
8950.621957
8992.553829
9015.777292
9014.615001
9019.308867
9039.984231
9044.119304
9010.636391
8976.54998
8963.004823
8934.215776
8872.256741
8804.687417
8764.700146
8728.535024
8672.946235
8615.457549
8581.01351
8568.563589
8536.019449
8495.316922
8477.167306
8478.88839
8461.521084
8437.783532
8433.894328
8447.260672
8445.405477
8421.511462
8416.907003
8434.967212
8438.364677
8418.873956
8409.44152
8418.762197
8433.715514
8423.389008
8411.475529
8425.355962
8441.225701
8433.693163
8416.862299
8431.189767
8459.062393
8455.597872
8435.905985
8439.325802
8457.028384
8462.124582
8444.80198
8439.012878
8456.447238
8462.057526
8446.701878
8437.76118
8449.719363
8458.704765
8445.517235
8433.40259
8450.993413
8463.6445
8447.797113
8431.61445
8440.71161
8457.207198
8450.814599
8431.435636
8434.319011
8449.786419
8440.778666
8421.48911
8425.288907
8441.762142
8438.767009
8422.852567
8419.142177
8433.491997
8436.487131
8419.812729
8412.056674
8426.182977
8433.179073
8418.02459
8408.793319
8426.786474
8437.939994
8425.020686
8402.847755
8404.680598
8406.289924
8391.224848
8373.008176
8380.920694
8419.365694
8439.482264
8442.902081
8445.941919
8466.103192
8472.696957
8453.161532
8439.057581
8455.128486
8458.525951
8438.610546
8413.554241
8410.737921
8411.587287
8390.084909
8381.211267
8395.337569
8414.940049
8404.390026
8387.693273
8390.464889
8405.328799
8402.199555
8379.043147
8382.239447
8397.706854
8393.795299
8378.082022
8383.111165
8421.042075
8455.9555
8476.563809
8512.348951
8603.164089
8706.049169
8753.233701
8845.456999
9003.886164
9052.925891
9006.121338
8922.704628
8856.677575
8779.698167
8626.700476
8473.211047
8381.166563
8421.176186
8501.195431
8503.251791
8492.031216
8501.754225
8484.096346
8462.973948
8463.845666
8484.990416
8482.129393
8461.029346
8457.564826
8479.000149
8487.60557
8473.881599
8471.042928
8492.947637
8514.76294
8505.442262
8496.814489
8517.042818
8535.818283
8528.263393
8520.306172
8533.270184
8549.631661
8553.789086
8549.318737
8563.57915
8593.061101
8603.119386
8595.989179
8612.283601
8651.73443
8672.275683
8671.739241
8679.651759
8718.946125
8748.897463
8760.185094
8777.574751
8824.379304
8863.092525
8878.895209
8893.088566
8933.031134
8976.818201
8991.637408
9002.701521
9030.350629
9058.893807
9057.977385
9040.543025
9034.731571
9044.767504
9020.940545
8964.077707
8917.049636
8889.221715
8838.885586
8768.678757
8709.78191
8679.67411
8646.347659
8592.27879
8549.452847
8536.175911
8523.8601
8494.355797
8461.565788
8457.162494
8465.276178
8451.686317
8432.642631
8434.81075
8449.942881
8439.951651
8422.51729
8427.971116
8451.440448
8452.200407
8429.714552
8427.747599
8448.110038
8451.954538
8435.347192
8429.044
8446.411305
8455.799038
8441.650384
8431.122712
8451.440448
8467.310186
8457.028384
8440.219872
8455.731983
8471.601721
8461.968119
8443.125599
8451.887483
8466.661986
8459.621186
8436.665945
8437.671773
8456.357832
8464.605625
8446.612471
8434.989564
8449.831122
8453.742677
8432.843796
8422.360828
8439.437561
8449.831122
8433.223776
8416.75054
8426.518253
8441.024535
8431.770913
8417.532851
8423.612526
8439.705782
8429.781607
8407.809843
8412.280191
8430.116884
8426.09357
8407.295752
8404.837061
8421.936145
8426.36179
8401.730168
8394.778776
8414.068331
8422.182014
8404.725302
8394.398796
8409.195651
8419.589212
8397.52804
8369.990691
8372.896418
8393.638837
8391.090738
8392.744767
8425.043038
8467.377242
8465.410288
8443.796151
8451.574558
8473.367509
8464.851494
8441.248052
8441.404514
8455.888445
8444.958442
8409.150947
8392.185973
8403.563011
8408.703912
8397.237467
8388.252066
8401.506651
8414.582421
8398.667979
8385.279284
8395.248162
8410.447348
8402.735997
8386.352168
8390.442537
8410.08972
8409.329761
8410.000314
8444.533759
8500.234306
8538.72401
8589.015435
8686.692558
8777.217123
8873.061403
9001.539231
9060.234911
9053.752906
8998.745262
8894.563782
8791.991626
8667.11243
8536.488835
8401.037264
8388.766156
8490.42189
8547.172969
8527.414027
8500.100195
8490.488945
8504.816413
8500.54723
8479.223666
8479.335425
8502.603591
8501.977742
8486.867963
8486.286817
8507.006884
8517.065169
8509.487928
8507.677437
8528.576318
8537.673478
8522.206071
8519.322696
8540.534501
8553.409106
8544.155484
8534.253661
8550.861007
8575.470278
8577.057252
8572.273978
8589.261304
8615.681066
8625.515834
8621.604278
8641.60909
8682.736299
8704.953933
8705.8033
8730.881957
8777.373585
8809.068359
8821.719446
8842.752438
8888.327645
8928.761951
8941.547148
8959.875579
8998.611152
9033.010487
9039.313679
9041.481798
9063.587673
9080.105612
9063.54297
9032.138769
9013.944449
8998.611152
8951.314861
8887.143002
8840.070229
8804.575658
8755.312414
8690.626465
8645.788866
8627.751008
8598.269057
8553.699679
8521.580222
8516.8193
8508.347989
8482.442317
8463.420983
8470.238265
8477.48023
8461.07405
8444.913738
8453.608567
8470.350024
8462.571616
8440.555148
8446.388953
8466.214951
8461.006994
8440.175169
8442.902081
8462.303396
8460.045869
8440.488093
8438.498788
8455.977852
8461.409326
8450.56873
8444.04202
8456.581349
8467.623111
8452.178055
8440.376334
8454.569692
8466.930207
8456.760163
8444.578462
8451.954538
8467.265483
8459.66589
8440.555148
8440.823369
8452.982718
8451.261634
8433.670811
8434.073142
8451.775724
8448.892349
8428.932241
8423.612526
8441.404514
8448.557073
8426.473549
8415.543546
8434.967212
8447.193616
8434.341363
8419.05277
8432.307354
8447.640651
8437.694125
8421.623221
8427.747599
8444.019669
8438.074105
8419.320991
8421.600869
8440.555148
8447.841817
8426.585308
8418.113997
8439.281099
8445.919567
8425.959459
8422.606697
8438.878767
8442.946785
8428.395799
8417.957535
8426.339439
8418.471625
8394.130575
8380.965397
8399.852622
8430.720381
8444.980794
8453.250939
8470.573541
8487.337349
8486.420928
8470.081803
8464.315053
8479.536591
8479.357777
8456.290776
8441.449218
8442.164474
8433.134369
8408.011008
8401.037264
8417.912831
8425.579479
8407.116938
8395.0917
8416.281154
8426.74177
8413.688351
8400.165546
8412.324895
8431.815616
8429.669849
8413.710703
8426.540604
8466.97491
8488.834916
8501.4413
8545.831865
8634.724752
8729.049114
8778.737042
8861.416145
9024.807397
9098.992836
9071.522542
9015.933754
8951.136047
8858.868046
8689.888858
8532.152597
8411.140252
8410.313238
8489.438413
8521.088483
8533.270184
8540.847426
8515.209975
8488.164364
8495.965123
8507.230402
8500.971913
8486.040948
8494.13228
8511.521937
8515.545251
8504.749358
8509.689094
8536.198263
8541.54033
8527.749303
8525.558832
8545.943623
8560.405202
8549.408144
8543.574338
8559.22056
8576.118478
8572.43044
8565.099068
8584.835659
8611.702455
8616.105749
8610.383703
8624.95704
8652.717907
8667.224189
8665.927788
8683.920942
8725.718704
8750.998527
8756.899387
8781.709824
8828.693191
8859.449191
8872.480258
8898.095357
8943.089419
8978.941617
8986.876486
8998.789966
9028.517786
9057.083316
9055.071659
9043.493455
9051.495379
9051.204807
9018.325391
8968.324538
8930.863015
8903.795052
8852.833075
8782.805059
8730.189053
8698.896611
8656.025965
8602.940572
8566.797801
8556.605405
8540.199225
8506.291629
8483.76107
8488.454937
8487.337349
8464.359756
8448.534721
8457.810695
8468.584236
8452.736849
8435.526006
8447.819465
8460.224683
8450.613433
8434.117846
8441.069238
8457.251901
8451.999241
8435.70482
8436.375372
8454.346175
8457.542474
8442.164474
8439.728134
8461.163457
8471.914646
8458.660061
8453.697974
8467.600759
8476.876733
8463.353928
8455.754334
8467.891332
8481.972931
8473.12164
8456.33548
8458.995337
8473.926303
8470.551189
8449.80877
8448.333555
8468.092497
8467.600759
8448.065334
8447.953576
8465.902026
8463.845666
8446.299547
8445.092552
8461.230512
8462.48221
8443.237358
8432.463817
8445.651346
8452.982718
8435.436599
8421.109131
8435.503654
8450.836951
8436.911814
8419.097474
8428.440503
8448.601776
8439.728134
8423.858395
8426.317087
8444.578462
8447.215968
8428.596965
8426.138273
8445.025497
8442.49975
8416.661133
8398.198592
8411.408473
8420.036247
8414.69418
8423.970154
8458.682413
8492.120623
8479.558942
8471.959349
8490.667759
8499.295533
8480.788288
8461.968119
8463.398631
8475.647387
8457.87775
8424.238375
8419.388046
8438.767009
8437.872939
8417.64461
8414.247145
8431.122712
8435.369543
8418.426921
8413.464834
8431.837968
8438.208215
8419.924488
8410.134424
8430.96625
8448.110038
8447.327727
8457.698936
8505.978704
8558.97469
8595.22922
8652.516741
8728.736189
8808.129586
8926.124445
9032.071713
9081.334958
9102.703226
9043.649917
8925.588003
8771.495077
8637.362258
8487.002073
8359.641833
8412.011971
8525.223556
8569.256493
8556.627757
8532.934908
8516.729893
8518.965068
8505.978704
8494.422852
8506.090463
8522.429588
8516.327562
8498.714387
8506.828071
8531.392638
8531.638507
8515.679361
8524.37419
8546.323603
8546.79299
8534.186606
8540.087466
8563.847371
8573.145696
8557.767696
8555.13019
8584.120403
8601.219487
8595.855069
8594.156336
8619.70438
8645.364183
8644.894796
8646.526473
8672.253331
8708.284343
8718.029704
8718.633201
8746.371716
8787.096594
8811.147071
8821.428874
8847.64747
8892.283904
8922.011724
8930.952422
8951.56073
8993.939637
9015.866699
9017.856004
9028.651897
9051.093048
9058.871455
9037.100856
9005.517841
8987.837611
8966.670509
8913.428654
8843.355935
8800.23942
8769.595178
8716.509785
8654.617805
8620.531395
8608.014418
8580.8794
8538.545196
8514.919402
8516.8193
8509.1303
8482.241152
8472.361681
8483.828125
8483.068166
8462.817486
8450.233454
8463.555093
8473.233399
8457.765991
8442.320936
8452.669794
8464.516218
8456.916625
8444.354945
8454.167361
8471.422907
8462.258692
8445.137256
8455.419058
8479.223666
8478.687224
8461.386974
8462.683375
8482.799945
8485.929189
8470.059451
8467.310186
8487.98555
8499.295533
8481.548248
8469.433602
8479.849515
8489.885448
8477.99432
8467.891332
8480.788288
8490.623056
8469.455954
8451.440448
8463.733907
8481.123564
8470.372375
8450.836951
8453.787381
8469.679471
8468.785401
8447.148913
8440.488093
8459.487076
8463.845666
8442.387991
8434.453122
8453.65327
8460.69407
8444.80198
8436.174206
8450.881654
8466.147896
8451.283986
8433.804921
8449.652308
8461.610491
8440.890424
8414.135386
8411.095549
8427.568785
8428.418151
8429.155759
8456.804866
8495.29457
8496.680379
8474.038061
8479.514239
8502.938867
8501.30719
8472.920474
8463.063355
8476.608512
8472.026404
8439.616375
8415.901174
8424.372485
8438.610546
8425.132445
8414.850642
8422.629049
8437.202387
8428.686372
8417.443444
8424.216023
8439.817541
8436.755352
8415.834119
8417.823424
8438.543491
8446.388953
8446.634823
8472.585198
8523.636582
8567.580112
8617.938592
8694.962704
8772.791478
8875.989482
8992.531478
9038.397257
9057.575054
9034.32924
8939.334326
8816.422083
8671.292206
8547.776466
8409.553279
8392.521249
8497.038006
8557.298309
8556.605405
8533.136074
8510.91844
8516.975762
8515.478196
8492.232381
8486.376224
8508.660914
8518.965068
8501.329541
8492.366492
8513.86887
8530.476216
8522.384885
8514.360608
8531.124417
8546.189492
8536.220614
8522.518995
8535.214786
8561.187513
8560.114629
8549.855179
8562.863894
8587.562571
8594.044577
8587.987255
8599.386644
8627.974525
8638.189273
8635.417656
8649.476904
8685.753785
8712.933506
8716.599192
8726.925698
8767.114135
8804.933286
8818.344333
8834.728162
8876.458869
8921.31882
8938.574366
8950.66666
8987.43528
9025.567356
9030.931774
9023.890975
9036.922042
9056.949205
9044.722801
9011.239888
8986.228286
8967.274006
8922.503462
8853.347165
8800.686455
8765.951844
8725.808111
8666.866561
8618.743255
8598.112595
8579.918275
8537.673478
8506.246925
8508.057416
8508.459748
8482.196448
8458.749468
8467.645462
8480.721233
8469.813582
8449.629956
8452.893311
8471.892294
8466.483172
8442.924433
8440.264576
8457.140143
8462.817486
8446.992451
8440.95748
8460.381146
8471.71348
8457.430715
8447.260672
8461.945768
8477.167306
8464.650329
8453.161532
8469.232436
8484.543381
8475.088593
8462.795134
8475.155649
8493.126451
8488.544344
8470.6853
8472.160515
8492.187678
8492.254733
8476.720271
8475.133297
8490.913628
8495.138108
8478.419003
8467.891332
8483.179925
8491.137146
8472.294625
8457.274253
8468.561884
8478.821335
8465.05266
8450.278157
8461.498733
8475.535628
8463.309224
8446.701878
8452.245111
8470.059451
8464.225646
8444.354945
8451.418096
8467.444297
8463.689204
8444.779628
8438.65525
8455.57552
8458.324785
8444.019669
8434.319011
8439.728134
8438.051753
8409.57563
8397.617447
8419.656267
8448.490017
8459.956462
8465.499695
8483.76107
8501.418948
8493.819355
8477.591989
8480.832992
8491.025387
8487.717329
8471.936997
8459.710593
8461.923416
8448.378259
8422.472587
8422.606697
8444.913738
8448.087686
8426.026514
8419.544508
8436.665945
8444.869035
8430.876843
8418.1587
8430.943898
8443.684392
8428.842834
8415.409436
8435.011916
8468.427774
8487.762032
8509.331466
8552.380926
8630.58968
8719.057884
8761.660309
8853.056592
9009.272934
9060.480781
9029.300097
8981.981454
8925.520948
8837.924461
8665.905436
8517.780425
8427.099398
8453.586215
8525.938812
8541.070943
8546.100086
8549.899882
8517.243983
8494.668722
8507.20805
8524.173024
8512.952448
8491.360663
8500.949562
8525.715295
8526.944641
8512.46071
8516.618135
8536.600594
8543.261414
8530.878548
8534.87951
8557.007737
8568.138906
8555.264301
8553.58792
8574.106821
8590.043615
8579.314778
8569.85999
8595.989179
8620.978429
8622.073665
8613.736464
8631.684915
8659.982224
8668.6547
8670.599302
8697.019064
8741.096704
8763.694318
8768.835219
8793.310379
8842.618327
8873.575494
8886.159526
8912.333418
8961.127277
9001.628638
9011.150481
9025.88028
9060.413725
9086.22999
9083.27956
9074.092993
9077.691624
9072.282502
9035.402123
8983.680187
8951.068992
8920.871785
8862.556084
8796.059644
8749.679774
8721.1813
8678.534171
8626.588717
8591.809403
8581.952284
8564.786144
8529.135111
8507.677437
8513.757111
8513.287725
8490.891277
8475.714442
8484.744547
8491.651236
8476.809678
8463.577445
8473.523971
8487.247942
8476.899085
8455.06143
8459.621186
8476.742622
8467.86898
8450.948709
8460.269387
8477.033195
8472.562846
8448.825294
8451.507503
8475.982663
8480.140088
8465.454992
8465.544398
8481.145916
8487.60557
8471.914646
8461.386974
8478.106079
8488.969027
8472.764012
8459.174151
8469.120678
8483.090518
8472.22757
8457.788343
8462.705727
8475.602683
8473.278102
8455.217893
8455.083782
8468.047794
8467.86898
8444.131427
8433.693163
8453.38505
8460.604663
8440.152817
8428.485206
8444.444352
8455.910797
8436.777703
8422.271421
8439.951651
8450.792247
8437.470607
8427.412322
8440.488093
8456.536645
8447.908872
8428.552261
8429.222814
8446.746581
8440.152817
8420.684447
8423.567822
8438.297622
8438.163512
8421.667924
8415.811767
8422.427883
8413.062503
8386.307464
8381.993578
8408.636857
8435.369543
8447.081858
8458.883579
8473.591026
8488.924323
8484.297512
8464.53857
8462.48221
8470.573541
8464.963253
8451.619262
8441.739791
8442.052715
8427.25586
8400.657284
8399.047959
8418.829253
8419.05277
8396.589267
8392.051863
8412.950744
8420.215061
8403.29479
8393.281209
8409.687389
8418.941011
8404.390026
8393.057691
8414.448311
8451.373393
8468.494829
8485.146878
8534.36542
8626.253441
8718.052056
8761.41444
8862.533732
9019.264164
9061.441906
9015.643181
8953.438276
8893.468546
8806.877888
8645.364183
8506.492794
8424.841872
8448.959404
8514.00298
8529.716257
8530.699734
8528.397504
8499.921381
8485.638617
8501.776576
8514.24885
8502.000094
8486.845611
8497.21682
8517.132225
8509.756149
8497.038006
8509.1303
8533.650164
8533.203129
8517.668667
8522.83192
8549.206978
8555.599577
8540.64626
8537.002926
8557.94651
8568.697699
8558.505304
8555.823094
8580.186496
8599.632513
8597.509098
8596.905601
8621.559575
8654.997784
8661.904474
8664.653738
8694.873297
8737.766294
8754.88773
8760.162742
8792.662179
8845.836979
8874.514267
8882.315026
8911.260535
8962.356623
8995.750129
9003.752053
9017.051341
9053.663499
9076.439926
9069.868513
9061.888941
9068.080374
9064.347632
9026.014391
8974.650082
8941.122465
8910.992314
8847.714525
8775.965425
8730.725495
8706.071521
8662.575026
8607.477976
8580.36531
8571.849295
8550.503379
8513.444187
8496.389806
8501.910687
8492.925285
8467.153724
8456.804866
8465.253826
8469.835933
8448.64648
8436.375372
8452.133352
8459.040041
8446.746581
8432.106189
8441.583328
8458.995337
8450.524026
8433.737866
8442.857378
8462.504561
8457.87775
8441.248052
8447.014802
8467.444297
8467.980739
8449.540549
8449.697012
8471.735832
8476.161477
8457.944805
8450.613433
8464.53857
8470.864114
8453.89914
8442.231529
8457.922454
8468.494829
8455.888445
8440.979831
8451.395744
8465.745564
8454.882616
8439.772837
8450.836951
8464.02448
8457.453067
8434.698991
8435.45895
8454.882616
8453.273291
8431.636802
8423.903099
8437.984698
8442.455046
8426.428846
8420.59504
8439.817541
8450.524026
8434.408418
8418.762197
8430.563918
8441.09159
8426.74177
8413.28602
8422.182014
8436.531834
8431.703857
8411.542584
8413.956572
8432.8885
8426.22768
8397.237467
8386.799203
8398.533869
8397.170412
8380.428956
8395.918715
8438.65525
8467.824276
8458.145971
8448.869997
8472.920474
8486.644445
8463.018651
8440.733962
8452.803904
8465.969082
8443.125599
8409.419168
8407.13929
8419.164529
8409.039189
8394.421148
8399.96438
8418.91866
8414.649476
8395.315217
8399.025607
8417.756369
8416.75054
8397.460985
8395.404624
8412.168433
8423.746636
8414.269497
8422.293773
8465.253826
8508.146823
8530.587975
8583.941589
8682.803355
8761.056812
8831.285993
8955.829913
9048.790818
9072.215446
9039.805417
8944.676393
8852.38604
8721.494224
8574.375042
8408.54745
8370.773002
8479.827163
8535.617117
8526.229385
8513.108911
8508.459748
8501.038969
8482.889352
8473.479268
8488.723157
8498.960256
8485.973893
8477.770803
8496.032178
8510.963143
8501.843631
8492.925285
8509.51028
8531.571452
8530.297402
8513.935925
8524.128321
8548.71524
8549.542254
8539.036934
8548.357612
8575.380871
8585.796784
8573.950359
8577.951321
8606.136871
8624.06297
8621.201947
8627.303973
8656.942386
8687.541924
8691.676997
8700.058901
8730.144349
8766.510638
8787.163649
8798.361873
8834.147016
8880.213962
8901.001084
8910.120596
8941.681259
8990.877448
9014.816167
9014.749112
9028.026048
9053.55174
9059.385545
9040.475969
9023.220423
9016.559603
8990.296303
8931.488863
8870.669767
8834.32583
8794.427966
8730.457274
8672.767421
8643.799561
8615.904583
8572.832772
8533.381943
8519.970896
8518.383922
8499.38494
8469.098326
8461.386974
8472.495791
8467.444297
8442.63386
8438.364677
8454.793209
8455.486113
8435.682468
8424.193671
8436.956517
8448.221797
8432.463817
8417.421093
8431.234471
8445.047849
8438.498788
8429.915718
8441.404514
8456.022555
8452.736849
8439.750485
8444.131427
8462.124582
8463.577445
8448.154741
8447.506541
8470.350024
8469.210085
8446.746581
8444.958442
8467.086669
8475.42387
8454.122657
8444.891387
8462.459858
8470.774707
8451.887483
8435.973041
8448.422962
8463.331576
8450.345212
8432.664982
8443.90791
8461.856361
8449.920529
8431.390933
8432.933203
8452.960366
8451.686317
8430.429808
8429.111055
8448.758238
8447.88652
8426.36179
8422.986677
8442.991488
8450.278157
8433.40259
8425.668886
8443.058544
8451.663965
8429.133407
8406.066406
8413.129558
8420.751503
8410.916735
8400.880802
8428.641668
8465.05266
8465.879675
8445.293718
8454.256768
8483.381091
8471.624073
8441.784494
8435.32484
8456.536645
8453.854436
8418.762197
8400.903154
8412.682523
8416.974058
8398.131537
8390.509592
8407.251049
8419.611564
8405.574668
8391.046034
8404.166508
8414.269497
8404.948819
8391.649531
8403.563011
8427.434674
8424.551299
8419.56686
8449.585253
8502.067149
8533.538405
8562.640376
8638.859825
8727.640954
8788.080071
8891.456889
9013.095082
9064.772316
9071.030804
9000.309885
8894.966113
8768.499943
8632.757799
8473.814544
8361.608787
8422.629049
8526.698771
8546.904748
8526.475254
8518.428626
8506.068111
8488.387881
8470.350024
8474.373338
8491.360663
8490.108966
8476.273236
8475.535628
8500.815451
8510.113777
8488.566695
8483.492849
8500.524879
8512.684228
8499.831974
8494.489908
8515.880527
8534.655992
8526.721123
8516.975762
8532.979612
8555.778391
8555.264301
8546.658879
8561.254568
8591.787051
8600.48188
8595.74331
8613.848223
8650.125104
8667.939445
8668.833514
8685.910247
8726.411608
8756.050021
8763.873132
8784.99553
8834.035258
8873.508438
8881.130383
8897.380101
8937.389724
8972.951349
8982.741413
8983.411966
9003.819108
9024.33801
9013.989152
8983.099041
8972.973701
8960.948463
8912.579288
8846.060496
8801.312304
8771.584484
8723.081198
8660.004575
8615.323438
8598.738444
8570.485839
8525.827053
8500.524879
8498.580277
8493.774652
8471.087631
8453.541512
8459.934111
8465.030308
8446.232491
8427.546433
8434.140198
8450.70284
8442.566805
8421.86909
8427.211157
8444.93609
8442.209177
8421.533814
8425.244203
8446.098381
8445.696049
8431.167416
8431.681506
8447.595948
8451.887483
8437.448256
8432.8885
8453.89914
8467.041965
8451.954538
8442.49975
8457.833047
8473.747489
8458.704765
8438.878767
8452.826256
8467.734869
8455.933148
8433.737866
8438.65525
8456.98368
8454.681451
8433.737866
8431.457988
8449.942881
8449.764067
8427.099398
8419.969192
8436.733
8443.594985
8427.524081
8422.204366
8437.001221
8440.5775
8426.428846
8416.839947
8433.044962
8447.551244
8435.078971
8421.556165
8427.591136
8441.516273
8434.475474
8417.577555
8421.824386
8442.969137
8442.298584
8422.338476
8412.749578
8420.170357
8416.437616
8395.672845
8392.074214
8422.561994
8454.212064
8457.475419
8454.882616
8471.668776
8486.845611
8471.936997
8452.088648
8457.184846
8471.288797
8461.856361
8441.158645
8435.905985
8439.839892
8428.14993
8407.251049
8412.101377
8432.50852
8432.441465
8413.911869
8410.559107
8427.971116
8434.587232
8415.700008
8406.804014
8425.132445
8432.240299
8417.555203
8410.380293
8447.126561
8487.292646
8505.866945
8528.464559
8606.136871
8709.670151
8763.962539
8830.369571
8968.995091
9043.851083
9033.457522
8982.249675
8911.953439
8844.205301
8696.70614
8545.206016
8418.404569
8429.468683
8525.223556
8538.85812
8522.45194
8527.011696
8514.070036
8491.718291
8485.012768
8498.312056
8510.359646
8497.105062
8486.555038
8503.564716
8523.614231
8518.920364
8505.330504
8518.942716
8539.908652
8537.002926
8521.401408
8530.722085
8557.365365
8559.399373
8542.367344
8547.195321
8574.397394
8584.478031
8574.665615
8574.531504
8595.899772
8612.618877
8608.349694
8611.948325
8639.910357
8668.989977
8676.455459
8679.54
8708.217288
8742.750733
8760.229797
8767.739984
8800.261772
8845.613461
8873.977825
8885.019587
8919.553032
8968.145724
8996.554792
9003.573239
9023.689809
9058.983214
9071.611949
9056.077487
9043.4264
9043.538158
9023.354533
8972.19139
8916.021456
8881.890342
8841.836016
8775.049004
8712.799396
8677.058956
8652.337927
8612.104787
8564.204999
8543.753152
8540.176873
8516.126396
8483.023463
8477.636692
8488.812564
8479.849515
8455.217893
8450.211102
8468.785401
8473.591026
8453.966195
8442.790323
8455.150837
8461.789305
8439.146988
8425.132445
8440.845721
8453.51916
8439.974003
8427.591136
8440.488093
8456.581349
8448.981756
8434.676639
8443.974965
8463.912721
8463.979776
8446.098381
8445.919567
8463.264521
8463.599797
8444.511407
8442.298584
8464.180942
8472.652253
8453.586215
8445.494884
8464.985605
8474.641558
8463.532741
8451.149875
8462.638672
8473.993358
8460.984643
8444.354945
8453.116829
8468.137201
8458.39184
8438.65525
8440.778666
8456.961329
8453.116829
8432.732038
8430.720381
8446.34425
8443.39382
8425.311258
8419.544508
8438.208215
8446.411305
8432.553224
8422.606697
8437.738828
8448.668831
8434.81075
8421.734979
8435.011916
8451.865131
8438.051753
8417.242279
8426.652363
8437.314145
8420.483282
8389.146136
8385.234581
8406.289924
8408.748616
8406.088758
8433.514349
8478.597817
8485.236285
8464.762087
8459.28591
8475.401518
8477.122602
8458.548302
8446.366602
8457.408364
8457.453067
8426.987639
8399.137366
8408.435691
8419.991543
8411.229659
8400.187898
8405.239392
8423.299601
8413.777758
8394.667017
8397.081005
8416.23645
8415.744712
8396.790433
8397.416281
8420.148006
8434.587232
8434.631936
8458.548302
8510.247887
8556.53835
8616.776301
8703.210497
8774.579617
8889.132308
9000.734568
9013.542117
8993.939637
8939.26727
8863.003118
8759.782763
8629.159168
8514.606478
8430.496863
8447.88652
8522.988382
8552.939719
8531.794969
8490.690111
8472.920474
8491.114794
8497.887373
8478.217838
8472.272274
8489.952503
8502.357722
8493.61819
8486.19741
8503.74353
8519.546213
8509.465576
8498.982608
8515.768768
8537.628774
8532.107893
8520.462635
8530.856196
8549.855179
8556.873626
8546.278899
8556.158371
8582.332263
8592.144679
8585.349749
8592.815231
8622.431293
8641.989069
8643.643098
8654.662508
8690.894686
8719.862547
8722.343591
8730.859605
8770.377489
8809.85067
8826.189795
8841.679554
8883.834944
8928.381971
8948.945576
8960.814352
8990.184544
9028.003696
9044.96867
9039.492493
9049.573129
9070.919045
9068.125077
9030.283574
8997.605324
8979.276893
8941.189521
8874.536619
8817.91965
8785.129641
8742.348402
8674.689671
8618.855014
8595.005702
8575.604388
8537.919347
8503.318847
8495.048701
8498.066187
8479.603646
8450.56873
8447.148913
8462.61632
8458.347137
8436.710648
8434.475474
8453.697974
8454.614395
8432.419113
8427.63584
8447.774762
8451.283986
8434.676639
8428.172282
8442.052715
8456.46959
8444.80198
8429.155759
8440.398686
8455.731983
8444.980794
8427.926413
8435.816578
8453.787381
8453.407401
8437.560014
8441.851549
8461.811657
8461.386974
8444.578462
8444.243186
8463.733907
8462.906893
8445.204311
8437.649421
8449.853474
8453.116829
8435.347192
8424.797168
8437.314145
8444.28789
8428.842834
8415.677657
8429.781607
8443.170302
8432.016782
8415.968229
8427.144102
8442.902081
8436.21891
8418.605735
8419.276287
8437.001221
8435.637764
8414.761235
8407.809843
8427.300564
8432.195596
8411.117901
8402.914811
8420.639744
8430.653325
8416.817596
8402.378369
8418.493976
8431.301526
8417.488148
8401.260781
8411.252011
8421.846738
8404.635895
8374.952778
8378.260836
8396.678674
8399.427938
8405.060578
8436.040096
8474.865076
8476.206181
8457.050736
8456.044907
8471.758183
8465.969082
8444.422
8439.504616
8450.322861
8442.097419
8407.832194
8388.140307
8400.545526
8410.804976
8400.34436
8388.095604
8401.841927
8418.382218
8410.112072
8394.331741
8404.367674
8421.042075
8416.169395
8399.271476
8404.390026
8431.61445
8445.83016
8445.360773
8472.048756
8523.971858
8573.637435
8642.570215
8724.265841
8800.328827
8928.314916
9028.853062
9024.293306
9004.668475
8939.289622
8850.933176
8723.908213
8590.915333
8479.335425
8414.068331
8455.44141
8534.477178
8554.23612
8532.242004
8494.087576
8479.134259
8498.647332
8505.866945
8485.929189
8478.709576
8496.121585
8504.548193
8489.349006
8487.046777
8510.247887
8525.40237
8514.38296
8505.397559
8521.647277
8537.382905
8527.592841
8515.165271
8531.437341
8554.258472
8551.017469
8538.969879
8549.139923
8577.727804
8588.076662
8581.169973
8591.742348
8620.285525
8638.077514
8636.669354
8649.588662
8688.368939
8710.385407
8719.326105
8738.526254
8777.954731
8814.58924
8829.363743
8847.088676
8892.462718
8938.037925
8960.322614
8970.827934
9006.680132
9046.332126
9054.378754
9047.986156
9061.866589
9078.630397
9064.817019
9025.120321
8997.739434
8973.97953
8924.001029
8855.269415
8799.054778
8765.77303
8727.037457
8661.055107
8613.155319
8595.452737
8573.592731
8536.220614
8503.296495
8500.301361
8503.117681
8483.828125
8460.358794
8461.275215
8475.155649
8462.325747
8440.622203
8446.187788
8465.075012
8462.057526
8441.650384
8441.203349
8458.727116
8461.565788
8442.276233
8437.157683
8455.597872
8463.242169
8448.534721
8437.045924
8453.362698
8467.444297
8456.737811
8446.277195
8462.48221
8479.536591
8472.853419
8460.783477
8470.886465
8490.108966
8484.096346
8466.751393
8467.265483
8484.968064
8483.023463
8463.957425
8460.112925
8476.049718
8482.621131
8462.884541
8455.731983
8468.785401
8474.239227
8456.514294
8442.924433
8459.509427
8471.512314
8456.938977
8442.008012
8455.910797
8470.797058
8459.196503
8442.387991
8453.250939
8469.992396
8465.43264
8446.746581
8447.707706
8468.159553
8471.557018
8450.456971
8445.31607
8466.639634
8469.992396
8451.552206
8446.657174
8461.476381
8466.058489
8449.831122
8437.023573
8446.366602
8450.792247
8429.334572
8409.866203
8419.678619
8448.065334
8463.622148
8467.734869
8492.791175
8511.834861
8510.829033
8495.16046
8495.093405
8507.453919
8500.569582
8478.776631
8469.299492
8469.79123
8461.096401
8436.107151
8428.999296
8446.992451
8460.135276
8443.594985
8432.441465
8449.831122
8467.332538
8453.072125
8435.883634
8448.177093
8468.450125
8459.107096
8441.315108
8454.614395
8488.454937
8510.560812
8522.362533
8554.929025
8624.778226
8707.434977
8761.839123
8819.596031
8964.412983
9091.952037
9103.77611
9085.760604
9039.648955
8962.513085
8809.984781
8653.097886
8511.253716
8430.988602
8484.856306
8549.87753
8582.80165
8596.749138
8572.989234
8534.566585
8536.041801
8553.096182
8549.966937
8533.627812
8531.638507
8552.246815
8556.158371
8542.412048
8543.574338
8564.652033
8572.653958
8559.645243
8554.437286
8577.526638
8592.837583
8580.432365
8572.005757
8592.345845
8609.847261
8604.885173
8595.922124
8613.55765
8639.865653
8643.777209
8637.697534
8654.841322
8686.491392
8701.131785
8701.109433
8716.420378
8754.686565
8780.703995
8785.062585
8805.067397
8844.384115
8880.258665
8892.797994
8914.635648
8957.126314
8994.811355
9006.79189
9018.526556
9052.925891
9082.38549
9082.340787
9067.968615
9077.244589
9079.546819
9052.031821
9010.815204
8974.940655
8945.436352
8895.413148
8828.179101
8780.301664
8752.31728
8710.743035
8653.634328
8613.959982
8606.226278
8590.021263
8553.498513
8529.179815
8532.733742
8533.717219
8511.901916
8489.281951
8495.16046
8506.671608
8494.288742
8477.279064
8484.409271
8498.759091
8494.311094
8475.468573
8475.245056
8493.7523
8495.451033
8479.648349
8480.29655
8498.267352
8502.98357
8484.856306
8476.407346
8493.014692
8506.984533
8497.194469
8489.438413
8506.448091
8516.953411
8499.183774
8488.209067
8498.49087
8517.400446
8510.53846
8493.797003
8500.189602
8519.076826
8514.271201
8494.13228
8497.641504
8516.662838
8512.907745
8490.846573
8483.62696
8500.524879
8507.498623
8485.929189
8482.196448
8497.194469
8504.324675
8487.60557
8471.624073
8485.258637
8498.915553
8489.39371
8478.843686
8491.785346
8504.324675
8492.880582
8478.016672
8483.671663
8502.111852
8504.525841
8473.143992
8463.868018
8477.591989
8475.781497
8461.856361
8470.662948
8506.738664
8532.219652
8527.458731
8523.658934
8541.808551
8554.034955
8534.901862
8510.806681
8515.768768
8526.519957
8512.438358
8480.721233
8475.848553
8488.544344
8483.425794
8468.494829
8472.60755
8488.87962
8488.812564
8472.361681
8474.261579
8493.148803
8492.925285
8469.92534
8467.936035
8490.399538
8495.741605
8482.062338
8491.248905
8535.952394
8573.480972
8588.233124
8624.487653
8710.072483
8785.241399
8830.593089
8933.858148
9065.912255
9136.253194
9146.646756
9078.54099
8983.769594
8856.766982
8705.244506
8530.811492
8417.26463
8473.63573
8567.736574
8591.250609
8592.055272
8596.011531
8576.163182
8551.531559
8541.093295
8556.381888
8566.127249
8553.140885
8541.54033
8560.628719
8576.386699
8563.936778
8549.519902
8561.992176
8583.203981
8580.588827
8564.204999
8573.883304
8597.598505
8602.381778
8590.825926
8595.430386
8623.906508
8636.781113
8625.672296
8628.42156
8651.265043
8667.984148
8666.307767
8670.152267
8697.801375
8729.227928
8732.826559
8741.543739
8774.3561
8810.253001
8826.167444
8833.096484
8867.317005
8911.796977
8932.137064
8940.742486
8969.397422
9014.525594
9035.893862
9030.037705
9048.008507
9076.663444
9081.558476
9059.027917
9042.040591
9034.932737
9011.150481
8955.695803
8900.263476
8869.485124
8832.828263
8767.628225
8708.75373
8680.121145
8662.977357
8627.080456
8588.367234
8573.212752
8568.83181
8552.716202
8523.435417
8516.707542
8530.230347
8522.809568
8501.195431
8497.21682
8512.9748
8511.007847
8488.074957
8481.414137
8494.758128
8503.698826
8485.415099
8471.668776
8486.465631
8499.89903
8488.030253
8475.803849
8491.584181
8511.141957
8503.989399
8487.650274
8495.026349
8515.79112
8511.231364
8491.539477
8495.607495
8516.506376
8519.702675
8503.140033
8497.46269
8514.919402
8517.065169
8502.000094
8492.679416
8504.972876
8515.366437
8497.239172
8483.090518
8498.826146
8510.225536
8494.914591
8478.620169
8491.137146
8503.520012
8490.779518
8470.841762
8472.764012
8485.906838
8481.056509
8458.414192
8458.972986
8479.625997
8480.855343
8458.816523
8445.31607
8454.524988
8450.56873
8434.453122
8433.871977
8468.695994
8502.134204
8508.884431
8499.295533
8511.141957
8531.012658
8523.189547
8502.424777
8507.565678
8519.099178
8506.828071
8481.145916
8472.473439
8477.033195
8466.997262
8446.321898
8443.572634
8464.292701
8469.545361
8449.853474
8444.958442
8460.850532
8467.891332
8451.440448
8446.143084
8460.69407
8473.926303
8467.489
8464.002128
8494.422852
8538.299327
8557.745344
8575.894961
8649.119276
8748.137504
8804.665065
8872.837886
9014.838518
9104.893697
9111.710979
9068.639167
8994.0961
8914.345075
8759.760411
8602.068854
8461.409326
8463.420983
8559.287615
8580.164144
8573.726842
8577.884266
8563.825019
8541.517978
8523.725989
8534.700696
8555.286652
8549.922234
8536.600594
8543.708449
8561.433382
8559.466429
8546.703583
8554.325527
8575.11265
8576.945493
8560.963996
8563.556798
8586.690853
8592.882287
8576.118478
8574.263284
8598.425519
8617.625668
8613.222374
8609.914316
8632.310764
8653.522569
8651.332098
8652.941424
8680.210552
8708.641971
8716.82271
8716.219213
8743.465989
8784.369681
8803.279257
8808.464862
8837.343316
8887.031244
8911.886384
8919.843605
8947.71623
8991.548001
9018.012466
9021.968725
9029.59067
9061.24074
9073.534199
9053.775257
9032.205824
9025.612059
9005.76371
8951.516026
8893.066215
8856.476409
8819.819548
8763.247283
8699.254239
8664.229055
8647.599357
8616.865708
8579.806516
8560.025222
8559.175856
8545.675402
8515.746417
8508.079768
8520.239117
8520.619097
8497.038006
8481.972931
8492.969989
8499.116719
8479.938922
8474.127468
8491.718291
8503.072977
8489.751338
8470.998224
8480.832992
8497.46269
8488.074957
8473.926303
8482.710538
8500.92721
8495.786309
8480.967102
8482.688186
8506.090463
8511.253716
8492.366492
8489.237248
8511.320771
8521.960201
8499.675512
8494.579315
8511.678399
8521.133187
8506.045759
8497.708559
8507.655085
8519.322696
8509.979666
8492.522954
8493.797003
8508.549155
8500.41312
8485.705672
8489.728986
8503.944695
8496.166288
8473.479268
8474.082765
8492.366492
8493.953466
8472.004053
8469.053622
8486.44328
8492.232381
8473.814544
8461.565788
8480.698881
8495.093405
8483.76107
8464.493867
8467.35489
8467.86898
8441.136294
8423.590174
8437.984698
8471.668776
8486.7115
8490.310131
8505.15169
8523.547175
8527.011696
8513.019504
8508.280934
8523.949507
8513.287725
8491.919457
8479.715404
8480.140088
8470.908817
8445.092552
8433.246128
8445.628994
8457.542474
8445.472532
8432.106189
8445.874863
8459.308262
8444.623166
8431.010953
8439.16934
8457.251901
8455.240244
8436.86711
8445.807808
8481.347082
8504.659951
8513.712408
8542.501455
8613.647057
8699.79068
8747.891634
8825.407484
8971.185562
9033.613984
9016.179623
8982.383786
8933.411113
8883.186744
8740.806131
8591.407072
8487.314998
8496.859192
8566.440173
8578.107784
8561.992176
8557.05244
8525.603536
8496.993303
8504.034102
8526.475254
8522.250774
8493.126451
8496.434509
8517.623963
8522.675457
8509.845556
8510.784329
8534.253661
8549.855179
8539.931004
8523.8601
8540.243928
8550.481027
8537.740533
8541.54033
8566.618987
8578.800688
8574.129173
8561.679251
8588.478993
8622.096017
8622.118368
8617.089226
8636.177616
8659.55754
8671.202799
8674.756727
8697.935486
8741.476684
8777.150068
8783.721481
8790.963446
8839.712601
8880.616293
8886.517154
8897.625971
8949.459666
8978.561637
8978.941617
8980.461536
9001.40512
9025.23208
9028.830711
9015.665533
8990.072786
8967.542227
8948.252672
8901.269305
8852.788371
8823.284068
8757.324071
8699.120128
8639.597433
8605.823947
8568.675347
8516.1711
8481.592951
8466.036137
8453.966195
8425.400665
8431.636802
8456.536645
8452.289814
8435.302488
8410.223831
8417.085817
8427.524081
8421.064427
8415.409436
8411.117901
8390.151964
8363.039298
8343.392115
8373.455211
8396.857488
8408.770968
8390.889572
8392.878877
8420.773854
8434.006087
8430.273346
8408.793319
8416.482319
8434.967212
8434.855453
8436.665945
8451.395744
8464.471515
8454.234416
8437.694125
8460.31409
8510.963143
8531.079713
8524.016562
8517.981591
8546.457713
8564.875551
8547.999984
8551.531559
8567.401298
8574.553856
8553.833789
8558.482952
8592.189383
8590.200077
8542.18853
8516.1711
8527.257565
8533.203129
8511.521937
8488.142012
8495.942771
8510.381998
8496.635675
8474.440393
8463.689204
8474.999186
8456.33548
8427.054695
8425.065389
8447.998279
8455.128486
8459.084744
8487.829088
8524.284783
8523.770693
8499.407291
8493.193506
8517.892184
8523.256603
8501.865983
8494.713425
8517.132225
8514.919402
8494.64637
8473.389861
8488.611399
8495.786309
8487.136184
8483.023463
8504.6376
8517.400446
8484.856306
8447.104209
8449.048811
8473.591026
8478.664872
8461.141105
8463.957425
8478.88839
8489.103137
8504.414082
8533.270184
8579.448888
8637.205796
8688.838326
8734.212367
8827.374438
8975.566503
9030.820016
9016.291382
8997.381806
8974.694785
8919.173052
8778.401766
8659.825761
8582.376967
8583.159278
8622.721866
8637.876348
8623.772397
8591.496478
8539.908652
8536.28767
8559.578187
8563.825019
8533.717219
8511.678399
8526.274088
8540.042763
8530.029181
8524.75417
8540.78037
8552.403277
8540.355687
8537.718181
8554.549045
8579.426536
8575.716147
8561.075754
8573.033938
8598.917258
8600.861859
8590.244781
8606.472147
8639.82095
8648.828703
8642.100828
8658.305843
8693.956875
8718.946125
8719.214346
8740.02382
8785.599027
8817.003228
8817.852595
8830.704848
8870.043918
8908.89125
8925.610355
8943.35764
8981.579123
9023.108664
9035.625641
9043.292289
9075.344691
9114.124967
9121.009305
9103.731406
9097.718787
9094.43308
9066.001662
9006.009579
8955.606396
8919.038942
8866.981729
8788.32594
8722.432998
8687.251352
8652.963776
8601.845336
8560.539312
8545.563644
8539.729838
8516.707542
8494.78048
8503.654123
8515.478196
8505.956352
8493.640541
8503.318847
8518.74155
8519.456806
8501.575411
8500.971913
8525.245908
8528.173986
8515.858175
8505.956352
8525.558832
8531.951431
8515.27703
8504.592896
8517.936887
8527.771655
8517.556908
8504.972876
8525.514129
8545.965975
8525.78235
8505.330504
8505.688132
8519.859138
8510.225536
8497.932076
8502.536536
8520.864966
8519.054475
8501.30719
8499.988437
8524.485949
8530.900899
8513.265373
8513.533594
8538.835769
8545.608347
8527.659896
8515.701713
8525.715295
8523.725989
8497.529745
8469.567712
8479.894218
8490.377187
8485.303341
8483.291684
8511.521937
8556.046612
8551.822132
8523.256603
8529.291574
8549.385792
8540.690963
8512.304248
8497.619152
8514.695885
8506.805719
8469.79123
8451.283986
8463.309224
8472.473439
8455.329651
8447.663003
8462.281044
8466.8408
8447.88652
8432.217948
8443.863206
8448.78059
8434.453122
8419.589212
8429.6922
8455.553169
8467.600759
8469.232436
8496.546268
8544.222539
8593.552839
8655.847151
8734.949974
8816.422083
8943.849378
9021.588745
9009.071768
8992.039739
8930.952422
8876.637683
8766.398879
8654.416639
8562.014528
8512.259544
8534.276013
8575.447926
8567.691871
8529.470388
8495.138108
8501.642466
8522.317829
8516.215803
8498.200297
8500.010788
8521.468463
8521.312001
8503.341198
8504.570544
8526.162329
8530.699734
8519.099178
8509.107948
8528.665725
8538.366382
8526.408199
8523.815396
8547.508245
8566.283711
8562.036879
8550.7716
8572.721013
8596.704435
8596.413862
8587.249647
8606.405092
8638.323383
8647.755819
8647.152322
8666.933616
8707.591439
8734.413533
8744.807094
8767.360004
8811.527051
8849.592072
8860.700889
8888.215886
8931.846491
8972.660777
8985.714195
9000.555754
9038.866644
9066.247531
9063.006528
9049.818999
9056.010432
9060.301967
9031.915251
8981.623826
8946.464532
8912.802805
8854.844732
8784.436737
8733.474759
8702.897573
8659.892817
8599.051368
8558.505304
8556.314833
8538.299327
8498.759091
8476.094422
8483.805774
8485.303341
8466.125544
8450.501674
8464.02448
8473.568675
8461.275215
8445.405477
8453.966195
8467.086669
8458.972986
8443.349116
8444.04202
8462.526913
8463.085707
8444.869035
8446.165436
8464.247997
8468.964215
8454.748506
8452.781552
8468.427774
8477.770803
8463.577445
8452.178055
8471.445259
8481.414137
8461.230512
8448.557073
8464.91855
8482.263503
8468.718346
8452.602738
8460.001166
8476.429698
8466.259654
8446.456009
8451.507503
8469.433602
8468.271311
8449.384087
8447.148913
8454.904968
8441.762142
8417.912831
8416.571726
8440.599852
8467.265483
8474.038061
8486.890314
8495.473384
8502.514184
8494.489908
8477.48023
8480.229495
8490.80187
8472.696957
8446.053677
8438.163512
8440.19752
8423.724285
8401.841927
8405.462909
8427.702895
8428.462854
8409.665037
8406.24522
8425.065389
8429.781607
8412.950744
8409.240354
8427.457026
8439.012878
8422.182014
8414.090683
8442.946785
8481.011806
8501.06132
8519.613268
8577.54899
8677.953026
8757.301719
8811.616458
8957.662756
9116.158976
9149.776
9110.012246
9046.846217
8980.372129
8845.032316
8668.833514
8483.559905
8381.166563
8444.913738
8515.053512
8529.24687
8543.999022
8538.679306
8505.621076
8497.619152
8511.81251
8522.742513
8507.498623
8491.003035
8505.621076
8523.413065
8518.518033
8501.240134
8508.169175
8532.867853
8534.186606
8519.50151
8524.463597
8547.44119
8549.519902
8534.566585
8535.438303
8557.633586
8566.775449
8555.286652
8560.919292
8586.467336
8605.86865
8605.399264
8605.35456
8638.524549
8673.192104
8685.68673
8697.823727
8735.732285
8772.165629
8792.639827
8806.564964
8837.52213
8885.354863
8910.902907
8919.843605
8948.699707
8996.040701
9021.029952
9018.973591
9031.602327
9059.676118
9067.52158
9047.02503
9028.294269
9029.143635
9011.195184
8957.774515
8904.733825
8871.139153
8835.756342
8777.753565
8719.929602
8687.09489
8663.446744
8624.308839
8581.415842
8562.618025
8564.160295
8552.202112
8530.185643
8522.809568
8530.699734
8527.905766
8507.006884
8500.41312
8515.209975
8522.653106
8504.659951
8497.105062
8512.013675
8527.123454
8514.941754
8504.101158
8519.300344
8535.818283
8523.882452
8507.833899
8518.22746
8541.137998
8535.997097
8513.846518
8517.847481
8536.220614
8540.601556
8523.971858
8523.256603
8542.881434
8543.417876
8521.759036
8516.416969
8535.505359
8540.690963
8523.48012
8516.774597
8530.923251
8542.032068
8527.771655
8509.778501
8520.216765
8533.694867
8518.115701
8499.183774
8503.36355
8511.119605
8489.170192
8460.269387
8464.247997
8495.763957
8515.724065
8519.836786
8540.422742
8554.593748
8555.577225
8540.445094
8533.314888
8542.412048
8545.831865
8524.37419
8509.733797
8510.002018
8506.783367
8487.627922
8472.451088
8484.65514
8501.30719
8491.472422
8474.395689
8483.895181
8500.591934
8493.215858
8474.350986
8479.335425
8499.675512
8495.339274
8472.853419
8474.082765
8507.990361
8536.444132
8547.642356
8576.453754
8648.202854
8739.487379
8791.097556
8852.363688
9017.252507
9151.877064
9172.239503
9152.949947
9112.180366
9055.965728
8901.179898
8723.908213
8558.952339
8494.355797
8557.834751
8597.062063
8609.400226
8617.737426
8594.983351
8563.087411
8564.897903
8581.415842
8582.28756
8565.881379
8562.550969
8580.164144
8591.116499
8576.409051
8567.803629
8585.707377
8604.684008
8599.386644
8588.367234
8603.991104
8623.03479
8616.798653
8608.416749
8622.453645
8646.571177
8644.403058
8630.679087
8641.340869
8667.671224
8680.367014
8673.840305
8683.809183
8717.202689
8740.292041
8747.399896
8763.180228
8802.184022
8833.096484
8841.232519
8857.102258
8896.97777
8936.495654
8951.650137
8962.401326
8995.906591
9032.451693
9043.024068
9043.895786
9063.878246
9085.090051
9082.161973
9057.642109
9045.505112
9047.606176
9018.258335
8959.160323
8911.796977
8881.644473
8843.512397
8781.039271
8728.579727
8705.378616
8681.551657
8643.017249
8609.19906
8600.057197
8595.385682
8575.11265
8551.129228
8552.31387
8563.087411
8553.789086
8533.113722
8535.594766
8549.564606
8546.323603
8521.982553
8521.334353
8540.579205
8541.093295
8525.134149
8521.960201
8538.411085
8547.30708
8529.783312
8522.809568
8541.67444
8553.811437
8542.344992
8531.593803
8549.855179
8569.569417
8557.924158
8543.842559
8553.9679
8573.257455
8569.748231
8548.447019
8549.788123
8568.183609
8565.546103
8545.13896
8544.691926
8562.081583
8562.238045
8543.261414
8535.3936
8543.037897
8539.193396
8511.320771
8492.500602
8506.269277
8525.759998
8525.558832
8532.376114
8566.998967
8587.294351
8575.000891
8561.522789
8565.657862
8573.995063
8560.002871
8535.862987
8535.326545
8540.422742
8528.106931
8503.564716
8501.798928
8519.277992
8519.456806
8500.971913
8495.562791
8512.527765
8520.417931
8500.904858
8490.28778
8508.012713
8523.390713
8505.598725
8492.545306
8510.672571
8542.501455
8560.181685
8577.213714
8620.330229
8689.397119
8757.502885
8800.485289
8867.115839
9017.788949
9141.528206
9171.05486
9179.839096
9145.03743
9064.548798
8895.368444
8733.161835
8590.691816
8513.645353
8567.088374
8625.560537
8650.929767
8649.521607
8610.629572
8573.100993
8582.376967
8597.374987
8586.243819
8569.3459
8578.018377
8598.403168
8597.374987
8581.549952
8588.791917
8610.875441
8615.971639
8602.001798
8602.113557
8623.593584
8632.109598
8618.206813
8616.016342
8636.647002
8652.069706
8641.7432
8633.495406
8652.159113
8672.566256
8674.980244
8673.594436
8697.533154
8726.009277
8732.357172
8728.333858
8753.703088
8792.729234
8811.035313
8816.936173
8845.836979
8896.038997
8925.990334
8932.673506
8952.812428
8994.699597
9024.002734
9025.209728
9031.982306
9057.262129
9074.04829
9060.592539
9042.979365
9042.644089
9034.485702
8987.167059
8934.26048
8898.318875
8870.334491
8811.996438
8750.082105
8722.924736
8708.731378
8671.33691
8625.381723
8603.208793
8602.515889
8589.104842
8559.175856
8547.664708
8560.539312
8559.958167
8537.069981
8524.620059
8536.93587
8544.602519
8527.794007
8512.773635
8523.144844
8532.867853
8522.429588
8506.649257
8515.41114
8533.381943
8528.73278
8513.153614
8520.239117
8543.239062
8547.016507
8532.599632
8538.835769
8559.533484
8568.429478
8553.386754
8548.312908
8567.311891
8575.045595
8556.717164
8548.670536
8564.361461
8572.095164
8557.700641
8543.686097
8555.152542
8566.328414
8552.492684
8532.823149
8538.053458
8553.610272
8536.265318
8503.654123
8491.83005
8508.795024
8510.359646
8491.025387
8506.649257
8552.470333
8577.727804
8560.785182
8555.51017
8580.275903
8586.735557
8561.433382
8546.837693
8561.478086
8571.156391
8539.327507
8513.466539
8522.541347
8533.583109
8517.825129
8499.563754
8508.23623
8524.664763
8515.27703
8496.501565
8500.860155
8519.300344
8517.556908
8497.08271
8495.026349
8517.132225
8532.018487
8531.973783
8554.370231
8606.606258
8651.488561
8687.027834
8755.714745
8836.404542
8918.413093
9038.911347
9124.563232
9156.973261
9167.59034
9104.401959
9021.678152
8889.780508
8762.464972
8619.123235
8552.805609
8626.186386
8685.44086
8677.215418
8637.630479
8611.903621
8620.397284
8623.213604
8600.48188
8591.38472
8611.434235
8625.448778
8613.378836
8605.22045
8623.995915
8641.005592
8632.13195
8623.347714
8637.295203
8653.947253
8649.745125
8638.41279
8651.22034
8675.360224
8676.187238
8662.709136
8671.158096
8694.895648
8704.596305
8694.761538
8701.288247
8728.49032
8744.583576
8738.928585
8746.662289
8780.145202
8809.358932
8811.25883
8818.031409
8856.699926
8895.703721
8910.120596
8922.570517
8960.680242
9005.271972
9021.186414
9027.891937
9055.429286
9089.091014
9094.857764
9082.541952
9084.978293
9095.617723
9083.771298
9041.526501
9005.473138
8979.992149
8942.485922
8878.828153
8825.631002
8799.434757
8769.952806
8719.549622
8673.415622
8660.183389
8652.539093
8627.974525
8602.582944
8599.811327
8606.561554
8590.49065
8565.881379
8568.384775
8584.992121
8578.465411
8556.739516
8554.504341
8570.50819
8571.156391
8549.944586
8543.529635
8563.06506
8569.3459
8549.899882
8542.70262
8557.141847
8566.395469
8558.170028
8550.704545
8563.132115
8577.839563
8566.417821
8553.140885
8568.474182
8589.663635
8583.494554
8568.07185
8576.185534
8596.63738
8589.775394
8568.563589
8568.720051
8591.138851
8592.234086
8570.150563
8564.830847
8576.14083
8579.962978
8557.8124
8547.798818
8560.226388
8569.032975
8553.654975
8536.28767
8547.552949
8557.298309
8537.405257
8507.07394
8500.457823
8522.653106
8523.882452
8517.57926
8547.687059
8599.319589
8604.572249
8584.276865
8584.567438
8609.243764
8611.12131
8581.460545
8568.407126
8584.388624
8582.153449
8550.346917
8529.11276
8537.941699
8545.764809
8530.967955
8517.042818
8530.945603
8547.888225
8537.44996
8520.797911
8529.001001
8547.128266
8542.05442
8526.363495
8536.153559
8558.684118
8561.165161
8564.339109
8595.855069
8648.359316
8690.04532
8749.836236
8829.766074
8902.185726
9012.983324
9115.868403
9126.373723
9125.613764
9080.172668
9009.161175
8916.088511
8794.338559
8693.621599
8620.978429
8646.012383
8707.054997
8710.743035
8671.672186
8626.991049
8618.29622
8637.496369
8636.736409
8615.301086
8607.522679
8625.98522
8633.517758
8620.777264
8620.576098
8639.418619
8650.594491
8636.915223
8629.740313
8649.700421
8665.905436
8656.696517
8645.542997
8659.870465
8681.797526
8681.618712
8670.666357
8683.295093
8709.223117
8711.301829
8696.32616
8707.949067
8737.743942
8751.378507
8746.841102
8760.52037
8797.400748
8821.138301
8825.787464
8839.019697
8879.208133
8915.373256
8927.711419
8943.87173
8985.244809
9027.333144
9039.961879
9045.169836
9074.271807
9107.732368
9111.845089
9098.054063
9101.943267
9114.147319
9093.851935
9042.509978
9005.942524
8982.18262
8937.836759
8870.490953
8819.238403
8795.098519
8761.481495
8712.531175
8675.606093
8667.604168
8656.696517
8620.374932
8591.585885
8592.211734
8597.866726
8578.912446
8558.505304
8563.646205
8578.174839
8572.095164
8552.492684
8555.398411
8574.21858
8569.3459
8552.000946
8549.542254
8569.770583
8570.977577
8550.525731
8549.452847
8573.682138
8582.242856
8564.22735
8553.319699
8570.485839
8584.947417
8576.52081
8562.215693
8577.124307
8596.570324
8587.562571
8572.497496
8580.678234
8598.872554
8591.183554
8569.368251
8573.078641
8593.061101
8586.981426
8567.267188
8565.367289
8583.874534
8581.572304
8560.740478
8554.146714
8568.898865
8570.284673
8551.15158
8544.535463
8561.098106
8575.425574
8552.984423
8538.612251
8549.788123
8566.820153
8560.494609
8546.167141
8552.425629
8564.450868
8558.170028
8539.148693
8542.546158
8560.047574
8554.660804
8526.877585
8512.773635
8513.35478
8515.098216
8501.687169
8502.357722
8543.417876
8582.220505
8579.784164
8566.171952
8583.203981
8597.464394
8575.380871
8555.219597
8562.215693
8575.269112
8559.086449
8526.341143
8521.021428
8533.136074
8529.157463
8513.175966
8517.668667
8537.718181
8534.097199
8513.131262
8514.159443
8535.058324
8538.008754
8521.982553
8514.829995
8529.62685
8540.13217
8532.465521
8537.964051
8580.678234
8627.25927
8652.114409
8704.685712
8807.302571
8885.533677
8957.908625
9072.237798
9128.474787
9128.474787
9075.948188
8980.930922
8909.897078
8793.310379
8672.275683
8560.069926
8571.804592
8670.06286
8698.159003
8654.282529
8622.051313
8625.269964
8632.400171
8611.881269
8596.413862
8612.373008
8629.270927
8618.407979
8608.282639
8621.157243
8640.647965
8638.815122
8629.807368
8640.782075
8660.563369
8658.708174
8642.905491
8649.275738
8671.783945
8676.3437
8662.910302
8666.061898
8690.715872
8706.742073
8698.740148
8703.031683
8730.300812
8753.21135
8750.104457
8753.948957
8787.096594
8818.612554
8825.720409
8830.324868
8865.014775
8907.885421
8925.096264
8934.729866
8968.905684
9018.168928
9043.761676
9052.389449
9078.54099
9118.192985
9139.449494
9137.057857
9142.109351
9161.421259
9161.398907
9129.882947
9100.915086
9088.085185
9058.558531
8997.56062
8934.014611
8895.234334
8864.500685
8808.263696
8751.244396
8726.255146
8713.045265
8679.54
8641.206758
8629.628555
8635.305898
8622.163072
8596.63738
8591.854106
8604.594601
8608.394397
8589.037787
8582.399319
8599.856031
8604.32638
8584.120403
8572.721013
8588.344883
8595.810365
8580.968807
8568.474182
8582.511077
8599.230182
8593.776356
8579.694757
8593.016397
8612.596525
8606.025112
8586.713205
8594.357502
8616.798653
8616.016342
8601.152432
8601.331246
8619.212642
8620.956078
8601.64417
8595.497441
8612.261249
8623.772397
8604.102862
8590.244781
8603.9464
8614.786996
8600.861859
8584.880362
8592.882287
8611.166014
8598.961961
8578.174839
8585.170935
8604.594601
8597.933781
8577.280769
8583.44985
8604.728711
8604.348732
8583.852182
8581.549952
8600.951266
8603.342903
8580.812345
8571.201095
8591.272961
8598.917258
8578.241894
8566.037842
8576.610217
8586.243819
8574.978539
8566.216656
8574.822077
8580.745289
8571.938702
8554.99608
8552.425629
8555.241949
8540.802722
8523.748341
8530.00683
8569.636472
8596.927952
8603.454662
8606.293333
8623.057142
8632.221357
8610.204889
8593.977522
8608.55086
8616.195156
8600.772452
8577.6831
8575.157353
8574.710318
8558.773525
8544.401353
8559.578187
8578.353653
8573.905656
8553.476161
8557.030089
8577.906618
8571.379908
8550.861007
8550.793952
8569.748231
8572.452792
8561.209865
8577.057252
8622.811272
8659.781058
8672.812125
8712.21825
8815.282144
8904.912639
8947.984451
9068.147429
9192.691349
9215.423073
9182.096622
9097.651732
9038.106684
8928.985468
8771.673891
8613.848223
8543.842559
8621.157243
8686.759613
8677.707157
8669.995805
8672.119221
8660.786886
8642.838436
8637.921052
8652.136761
8659.93752
8648.247558
8644.425409
8662.016232
8674.555561
8665.70427
8654.863674
8673.147401
8691.609942
8686.379634
8675.024948
8688.25718
8710.452462
8709.603096
8693.845116
8703.791643
8731.239585
8737.498073
8722.410646
8732.245413
8760.989757
8773.573789
8768.544646
8781.352196
8817.249097
8839.042048
8835.801045
8846.731048
8885.645436
8923.285773
8933.120541
8949.593776
8993.380844
9034.798626
9053.887016
9064.638205
9099.03754
9140.790598
9153.285224
9153.732259
9173.401794
9196.848774
9195.2618
9169.825515
9153.6205
9150.133628
9117.723598
9053.372926
9004.042626
8974.359509
8933.791093
8869.596883
8817.159691
8797.177231
8771.360966
8726.143387
8690.402948
8680.769346
8678.847096
8653.857846
8626.320496
8626.566366
8639.016287
8628.175691
8608.953191
8612.328304
8627.795711
8623.012438
8597.844374
8595.497441
8618.475034
8621.090188
8604.147566
8601.532412
8616.88806
8621.514871
8605.443967
8596.190345
8613.445892
8628.958002
8618.81031
8609.377874
8624.510005
8639.709191
8630.947307
8615.971639
8623.995915
8639.351563
8635.238842
8616.038694
8619.167938
8636.691706
8630.701438
8607.030941
8603.767586
8620.710209
8620.933726
8597.911429
8590.736519
8607.925011
8617.759778
8598.961961
8586.13206
8598.470223
8611.545993
8596.458566
8582.220505
8593.172859
8607.254458
8599.341941
8582.868705
8592.479955
8612.082435
8604.639304
8583.382795
8590.133022
8611.098958
8601.755929
8572.29633
8558.728821
8568.205961
8573.033938
8562.416859
8573.950359
8611.166014
8641.497331
8631.193177
8620.821967
8640.33504
8651.041526
8629.785017
8605.935705
8612.216546
8626.968697
8606.449796
8576.565513
8577.6831
8594.737481
8591.719996
8569.837638
8570.485839
8591.652941
8593.128156
8571.044632
8566.462525
8584.679196
8590.378891
8572.117516
8562.3051
8582.622836
8603.901697
8608.17088
8624.889985
8670.711061
8720.466044
8762.755545
8818.299629
8889.869915
8972.996053
9096.623551
9193.138384
9235.897271
9249.777704
9168.350299
9035.424475
8875.140116
8746.774047
8596.726787
8502.558887
8575.269112
8678.444764
8720.197823
8701.288247
8669.481715
8663.223226
8670.57695
8654.193122
8643.218415
8659.758706
8674.779078
8667.291244
8658.954043
8672.163924
8692.414605
8693.152212
8675.471982
8677.885971
8701.176489
8703.344608
8692.079329
8698.226058
8723.036495
8728.110341
8707.434977
8708.507861
8733.877091
8749.255091
8740.78378
8740.739076
8768.790516
8795.612609
8795.545554
8799.591219
8830.011944
8864.411278
8871.809706
8873.53079
8906.879593
8952.387744
8970.827934
8977.175829
9007.730664
9054.19994
9074.56238
9072.483667
9087.749909
9125.792578
9149.619538
9142.511683
9141.729372
9162.85177
9158.560235
9121.21047
9084.844182
9064.280577
9031.311754
8971.252617
8912.847509
8881.175087
8855.559987
8803.70394
8753.457219
8736.04521
8727.775064
8702.785814
8669.16879
8661.435087
8674.309692
8660.406907
8631.10377
8621.291354
8634.702401
8635.887043
8614.250554
8608.014418
8622.945383
8628.93565
8615.681066
8604.84047
8618.6762
8635.864691
8625.739351
8610.629572
8623.191252
8644.112485
8637.094037
8625.761703
8636.11056
8655.243654
8651.443857
8633.853034
8637.183444
8659.356375
8656.584758
8634.612994
8629.606203
8648.091095
8651.376802
8633.16013
8630.969659
8650.348622
8655.288357
8634.769456
8617.022171
8631.439046
8642.458456
8627.683953
8610.674275
8620.889022
8633.383648
8624.44295
8606.360389
8614.742293
8627.929822
8620.419636
8603.566421
8609.333171
8630.2097
8624.778226
8593.284618
8582.533429
8593.463432
8593.552839
8581.549952
8587.607275
8625.180557
8653.120238
8648.560482
8641.251462
8659.870465
8671.359261
8651.265043
8625.962868
8630.880252
8642.100828
8631.796674
8603.879345
8594.156336
8607.634438
8602.448833
8586.310874
8591.138851
8609.109653
8610.026075
8587.763737
8582.242856
8600.593638
8608.975543
8591.809403
8582.779298
8602.270019
8618.251517
8613.915278
8623.92886
8666.933616
8716.867413
8754.597158
8802.876926
8873.687252
8947.448009
9048.366135
9160.571892
9223.223832
9254.382164
9209.768082
9091.594409
8958.109791
8833.610574
8695.856773
8556.02426
8565.680214
8677.483639
8732.156006
8724.265841
8706.138576
8693.308674
8688.748919
8670.934578
8659.132857
8673.303863
8691.945218
8684.256218
8672.163924
8681.797526
8700.461233
8698.829555
8687.340759
8692.392253
8710.340704
8711.167718
8698.986018
8703.098739
8726.165739
8732.692448
8716.934468
8717.180338
8743.242472
8758.687527
8750.149161
8750.596196
8774.378452
8794.98676
8792.192792
8791.254019
8819.596031
8854.4424
8863.047822
8866.244121
8898.452985
8940.384858
8958.22155
8968.883332
9003.483832
9048.410839
9071.723708
9078.138659
9099.17165
9134.979145
9153.866369
9143.428104
9140.790598
9158.515532
9159.878988
9126.083151
9090.141546
9069.980272
9039.291327
8980.77446
8923.531642
8891.814517
8865.148886
8813.449301
8765.482457
8749.143332
8744.449466
8718.119111
8682.803355
8672.856828
8678.824744
8668.252369
8643.643098
8639.373915
8651.577968
8650.70625
8628.80154
8621.023133
8637.496369
8644.581872
8628.332153
8620.933726
8633.629517
8645.051258
8631.059066
8621.827796
8639.508026
8657.63529
8644.112485
8627.639249
8638.725715
8663.223226
8659.155209
8642.078476
8646.839398
8667.850038
8667.537113
8648.91811
8648.225206
8665.078421
8668.498238
8652.159113
8642.525511
8653.053183
8659.155209
8643.084305
8629.852072
8641.497331
8651.890892
8638.971584
8621.805444
8629.82972
8646.973508
8635.842339
8617.312743
8625.024095
8642.078476
8634.858863
8616.597488
8619.592621
8638.859825
8638.435142
8613.781168
8600.213659
8605.019284
8598.69374
8581.617007
8579.962978
8613.378836
8654.461343
8663.692613
8652.427334
8666.464229
8684.032701
8673.013291
8649.387497
8652.404982
8662.686785
8651.957947
8624.018267
8611.613049
8619.883194
8610.74133
8587.227295
8590.065967
8611.076607
8611.881269
8591.831755
8590.267133
8608.148528
8610.964848
8593.932819
8588.389586
8606.002761
8618.519738
8612.596525
8618.363275
8662.843247
8711.905326
8733.586518
8781.15103
8865.215941
8938.440256
9020.247641
9129.838244
9190.500878
9211.288
9171.412488
9077.781031
8992.598533
8865.953549
8748.293966
8629.382685
8638.546901
8738.280384
8761.749716
8724.087027
8694.202744
8691.900515
8698.829555
8685.30675
8670.107564
8680.702291
8698.002541
8690.447651
8679.070613
8694.470965
8715.861585
8712.777044
8698.404872
8709.066654
8733.385352
8738.146274
8722.969439
8726.076332
8752.384335
8757.726402
8739.353268
8739.912062
8764.029594
8773.909065
8760.542722
8758.21814
8780.703995
8802.809871
8799.85944
8798.630094
8827.888528
8860.790296
8865.931197
8869.239255
8897.022473
8936.003916
8955.293471
8966.312881
8996.979475
9043.113475
9065.018185
9071.164915
9096.847069
9136.543767
9155.296881
9149.552482
9153.061706
9175.256988
9176.575741
9145.506817
9114.862575
9096.645903
9070.963749
9013.989152
8954.198236
8918.994238
8890.205191
8838.885586
8787.118946
8761.347385
8755.759448
8732.223062
8693.50984
8682.624541
8691.498183
8681.797526
8653.231997
8645.118313
8657.143552
8657.814104
8637.675183
8624.398246
8637.719886
8647.286433
8629.762665
8617.469206
8631.997839
8645.364183
8628.466264
8611.166014
8623.347714
8639.485674
8632.601337
8618.922069
8627.572194
8647.040563
8644.69363
8627.169863
8633.875386
8654.014308
8655.176598
8640.491502
8639.284508
8657.970567
8663.469096
8645.744162
8640.156226
8655.802447
8663.133819
8643.687802
8628.913299
8640.960889
8650.818008
8634.009496
8615.524604
8626.253441
8640.513854
8627.974525
8610.830737
8617.804482
8637.049334
8633.048371
8612.976505
8615.412845
8633.584813
8634.769456
8615.546956
8608.863784
8617.245688
8612.216546
8581.348787
8565.054365
8584.455679
8597.486746
8600.414825
8619.369104
8650.058049
8659.714003
8647.37584
8635.08238
8644.827741
8655.243654
8636.959927
8614.45172
8622.096017
8627.862767
8608.752025
8584.925066
8585.170935
8604.125214
8605.198098
8585.148583
8579.784164
8598.805499
8603.566421
8582.645188
8572.67631
8590.915333
8600.48188
8580.991159
8571.715185
8593.888115
8627.795711
8647.465247
8664.29611
8716.532137
8811.884679
8887.813555
8919.843605
9026.126149
9149.351317
9153.352279
9116.516604
9060.34667
9026.483777
8944.207006
8798.83126
8697.779023
8675.673148
8729.831425
8752.876073
8726.94805
8711.681808
8694.02393
8668.386479
8655.131895
8669.705232
8679.450593
8667.984148
8656.383593
8667.000671
8685.954951
8683.853887
8671.605131
8680.322311
8700.371826
8701.802337
8687.586628
8691.118204
8713.782872
8718.856718
8705.132747
8707.010294
8728.065637
8739.621489
8728.110341
8727.216271
8749.612719
8771.070393
8767.963501
8767.762335
8794.495022
8821.562984
8822.926441
8822.457054
8850.128514
8889.199363
8903.504479
8908.041883
8937.255613
8983.72489
9010.748149
9020.739379
9046.399182
9090.812098
9114.236726
9116.740121
9133.191005
9163.030584
9177.693329
9162.985881
9145.640927
9143.584567
9130.419389
9084.866534
9030.23887
8998.521745
8963.027175
8903.750349
8843.244176
8811.035313
8795.098519
8759.268672
8711.838271
8692.392253
8694.113337
8681.417546
8648.91811
8637.76459
8648.426372
8648.336965
8627.616898
8617.133929
8629.919127
8634.747104
8617.379799
8605.891002
8617.849185
8628.890947
8611.836566
8598.581981
8614.585831
8631.282584
8623.1689
8603.745234
8613.267078
8634.031848
8629.136816
8612.618877
8617.737426
8639.195101
8642.436104
8625.873461
8624.130025
8644.514816
8652.673203
8632.377819
8623.392418
8639.508026
8647.465247
8632.556633
8624.241784
8638.591604
8649.119276
8636.311726
8620.531395
8629.583851
8643.598395
8633.964793
8617.357447
8618.855014
8634.0542
8625.694648
8604.773415
8606.181575
8623.392418
8624.934688
8607.455624
8602.940572
8617.536261
8624.398246
8608.595563
8604.773415
8619.927897
8627.639249
8614.786996
8601.711226
8613.468243
8619.927897
8598.313761
8569.032975
8563.534446
8579.873571
8577.347824
8574.777374
8607.410921
8651.779133
8652.6285
8632.780151
8640.603261
8662.664433
8657.836456
8634.903566
8629.82972
8645.878273
8641.005592
8607.768548
8592.815231
8603.81229
8612.775339
8601.085377
8588.523696
8599.878383
8613.803519
8601.13008
8586.959074
8595.519792
8610.696627
8604.080511
8585.506211
8592.904638
8618.765607
8633.584813
8640.71502
8673.415622
8729.809073
8788.415347
8858.108086
8923.174014
9005.987228
9142.355221
9203.911925
9184.220038
9161.9577
9095.930647
9010.1223
8868.300482
8752.876073
8658.618767
8631.506101
8690.738224
8736.469893
8735.888748
8710.743035
8670.979282
8666.933616
8684.189163
8681.551657
8667.358299
8668.498238
8688.950084
8696.46027
8680.679939
8683.138631
8704.39514
8713.425245
8701.332951
8698.226058
8717.381503
8733.318297
8724.623468
8717.716779
8736.93928
8755.982966
8750.618547
8738.906233
8756.899387
8779.117021
8784.794365
8777.060661
8794.271504
8827.642659
8840.137284
8836.046915
8849.323851
8888.193534
8911.953439
8915.485014
8935.914509
8981.512067
9015.509071
9030.328277
9050.198978
9092.443775
9132.431046
9143.472808
9151.966471
9184.75648
9218.105283
9222.03919
9206.214155
9209.052826
9219.133463
9193.741881
9148.144322
9114.460244
9089.448641
9043.828731
8972.727832
8919.284811
8893.222677
8859.940929
8807.190812
8769.550475
8760.587425
8743.980079
8705.28921
8679.607055
8686.290227
8688.994788
8664.564331
8646.392363
8653.120238
8662.664433
8651.443857
8633.718924
8641.944366
8662.440915
8657.590587
8639.977412
8643.330174
8663.200875
8663.40204
8643.956023
8644.850093
8666.017195
8674.756727
8659.870465
8655.467171
8674.086174
8684.032701
8667.648872
8656.025965
8668.587645
8681.395195
8673.125049
8661.166866
8672.096869
8685.642026
8675.6955
8659.088154
8664.765497
8681.97634
8678.154192
8658.127029
8657.143552
8672.87918
8667.917093
8648.046392
8641.206758
8655.757744
8656.405944
8636.669354
8626.544014
8641.430276
8650.862712
8630.880252
8619.212642
8632.13195
8644.581872
8636.378781
8621.716037
8631.640212
8646.571177
8636.602299
8619.391456
8627.0134
8646.906453
8639.843302
8622.118368
8623.124197
8641.586738
8641.765552
8622.118368
8609.087301
8617.871537
8611.12131
8583.606313
8579.359481
8608.796729
8640.33504
8654.461343
8661.122162
8668.609997
8684.256218
8678.042433
8661.971529
8662.955006
8677.327177
8667.827686
8638.949232
8627.035752
8630.58968
8619.369104
8601.64417
8600.48188
8622.431293
8620.844319
8602.02415
8598.55963
8613.892926
8620.039656
8605.578078
8594.603371
8608.908487
8621.939554
8608.68497
8606.76272
8638.479845
8681.506953
8699.991846
8725.986925
8812.644638
8920.715323
8972.638425
9049.617833
9185.762308
9242.513388
9216.093626
9134.085075
9056.524522
8972.347852
8827.01681
8674.957892
8570.441135
8617.804482
8711.167718
8714.766349
8692.951047
8697.331988
8693.398081
8680.121145
8668.028852
8675.539038
8691.051148
8681.261084
8667.157133
8677.483639
8698.62839
8697.287285
8685.507916
8692.056977
8714.833404
8719.795492
8704.976285
8706.607962
8728.311506
8737.207501
8723.349419
8723.461178
8745.410591
8759.894521
8751.400858
8749.433905
8775.607798
8799.971199
8801.044083
8800.507641
8827.352086
8859.225674
8868.300482
8871.496781
8900.799918
8943.737619
8967.899855
8976.482925
9001.248658
9052.635318
9084.643016
9093.203735
9116.404845
9158.001442
9181.783698
9182.029567
9188.824497
9212.360884
9227.403608
9203.688407
9180.621407
9174.877009
9157.08502
9105.072511
9045.34865
9009.183527
8978.069899
8923.621049
8860.72324
8825.452188
8808.420158
8773.08205
8728.155044
8707.166756
8710.050131
8696.147346
8664.631386
8651.756782
8665.816029
8666.799506
8644.961851
8634.94827
8645.006555
8650.058049
8631.394342
8617.066874
8630.701438
8643.888968
8630.880252
8614.339961
8628.376857
8646.347659
8637.786941
8621.179595
8631.059066
8654.17077
8653.567273
8638.546901
8641.162055
8659.04345
8661.34568
8647.822875
8647.711116
8667.604168
8674.175581
8656.09302
8646.884101
8665.70427
8677.036605
8660.362203
8644.291299
8651.510912
8663.804372
8651.712078
8632.109598
8635.663526
8652.896721
8643.598395
8622.185424
8624.219432
8641.206758
8635.238842
8613.155319
8617.066874
8639.865653
8638.189273
8618.877365
8615.502252
8634.970621
8641.497331
8622.475996
8609.154357
8624.688819
8636.803465
8620.665505
8609.154357
8617.64802
8629.919127
8616.932764
8600.928915
8607.723845
8621.157243
8615.792825
8595.497441
8592.815231
8602.40413
8590.535353
8568.340071
8565.523751
8600.705397
8629.740313
8638.144569
8639.195101
8658.730526
8673.750898
8657.255311
8640.044467
8652.717907
8657.814104
8639.351563
8614.161147
8608.729673
8612.708284
8600.414825
8585.059176
8596.793842
8615.166976
8609.891964
8590.200077
8590.602409
8608.349694
8607.254458
8584.589789
8584.500382
8605.443967
8612.551822
8595.966827
8602.694702
8645.07361
8685.753785
8705.266858
8749.053925
8848.049801
8934.662811
8986.183582
9100.4457
9221.927431
9258.628995
9230.354039
9143.584567
9072.349557
8956.589872
8807.347275
8635.864691
8556.292481
8644.783037
8719.124939
8719.326105
8711.927678
8711.391236
8696.929657
8674.846134
8667.201837
8683.429203
8694.090986
8679.048262
8674.510857
8694.180393
8707.770253
8692.883991
8685.463212
8699.902439
8719.571974
8711.05596
8694.627427
8704.462195
8726.858643
8732.625393
8726.232794
8732.580689
8755.379469
8759.223969
8748.964518
8757.167608
8783.386205
8795.970237
8790.158783
8801.759339
8838.662069
8861.282034
8863.114877
8870.647415
8905.002046
8940.630727
8952.410096
8963.563617
9004.377902
9055.541045
9075.031766
9084.441851
9114.169671
9154.581625
9170.339605
9168.774983
9185.315273
9210.371579
9210.662152
9184.957646
9166.383346
9158.895511
9131.58168
9074.227103
9025.321487
8993.872582
8956.858093
8893.423843
8834.459941
8806.430853
8784.593199
8745.097666
8706.138576
8697.197878
8696.996712
8676.231942
8648.359316
8643.129008
8653.030831
8640.670316
8618.117406
8617.804482
8634.456531
8634.724752
8612.082435
8608.416749
8629.539148
8638.681011
8624.889985
8618.586793
8633.763627
8641.452627
8624.711171
8613.55765
8626.231089
8641.318517
8633.383648
8620.419636
8629.919127
8651.443857
8642.659622
8623.727694
8627.706305
8641.542034
8640.290337
8623.861804
8621.447816
8638.748066
8639.642136
8620.196118
8611.724807
8628.533319
8634.724752
8611.098958
8599.051368
8614.742293
8622.163072
8603.342903
8594.536316
8607.030941
8614.742293
8603.43231
8588.456641
8598.760795
8608.573211
8603.722883
8588.05431
8595.117461
8610.338999
8603.387607
8589.574228
8589.350711
8610.696627
8609.020246
8579.873571
8567.535408
8578.06308
8586.959074
8575.447926
8584.478031
8621.157243
8652.852017
8644.224244
8633.897738
8654.528398
8671.962759
8652.114409
8631.215528
8631.483749
8640.893834
8620.374932
8585.349749
8581.326435
8595.832717
8593.776356
8575.850257
8577.616045
8596.682083
8594.268095
8572.922179
8568.161257
8584.478031
8595.296275
8580.700586
8570.418783
8586.221467
8601.845336
8603.208793
8612.238897
8657.724697
8711.279477
8752.920777
8807.526089
8878.381119
8958.467419
9073.601255
9178.654454
9231.203405
9253.666908
9186.365805
9052.568263
8894.340264
8764.677795
8620.464339
8505.978704
8556.471295
8673.125049
8725.361076
8708.440805
8680.389366
8667.581817
8671.560427
8656.60711
8642.279642
8652.6285
8667.760631
8660.853942
8645.475941
8655.71304
8675.986073
8672.409793
8658.886988
8667.715927
8691.945218
8695.163869
8680.165849
8683.608017
8707.054997
8713.782872
8700.17066
8698.717797
8719.102588
8732.088951
8724.176434
8726.612774
8754.552454
8781.821583
8784.10146
8782.492135
8809.537746
8840.204339
8847.066325
8850.888473
8881.532715
8924.515119
8947.20214
8952.320689
8976.371166
9023.868623
9050.131923
9054.736382
9074.830601
9114.013209
9136.119084
9128.38538
9128.944174
9145.529168
9149.932462
9118.908241
9080.373833
9059.31849
9030.864719
8976.818201
8916.20027
8881.286845
8858.108086
8811.169423
8760.028632
8736.604004
8726.255146
8698.941314
8665.257235
8654.751915
8664.251407
8656.361241
8626.722828
8612.976505
8626.923993
8629.337982
8609.601392
8599.319589
8611.836566
8617.335095
8600.258362
8589.417766
8602.649999
8619.3244
8607.857955
8594.581019
8606.516851
8630.835549
8628.980354
8612.037732
8619.413807
8639.30686
8637.138741
8620.263174
8623.057142
8644.894796
8647.197026
8627.214566
8621.671334
8637.429313
8644.514816
8624.57706
8616.955115
8631.10377
8642.212587
8627.214566
8609.042598
8620.08436
8632.802502
8617.804482
8599.766624
8606.583906
8620.687857
8613.512947
8595.340979
8598.850202
8615.904583
8610.696627
8591.38472
8593.061101
8608.573211
8606.963886
8585.170935
8580.253551
8600.593638
8603.164089
8578.845391
8556.627757
8563.981481
8573.749193
8566.90956
8575.313816
8609.355522
8638.502197
8632.109598
8618.318572
8631.953136
8645.408886
8630.276755
8606.673313
8607.65679
8622.096017
8606.852127
8568.45183
8559.35467
8577.303121
8580.633531
8565.344937
8557.43242
8575.537333
8583.069871
8566.037842
8554.884321
8572.452792
8584.656845
8574.59856
8564.495571
8576.721975
8597.307932
8609.601392
8622.341886
8655.534226
8705.155099
8757.838161
8810.36476
8872.323796
8967.005785
9098.769319
9171.30073
9190.076195
9193.585419
9120.361104
9004.444957
8845.658165
8725.003448
8591.250609
8529.291574
8600.1019
8670.219322
8696.549677
8678.087137
8643.553691
8638.993935
8650.84036
8641.698497
8623.526528
8629.31563
8650.236863
8652.159113
8638.368087
8646.168845
8666.955968
8667.24654
8647.755819
8649.81218
8675.82961
8682.848058
8666.017195
8664.474924
8688.033663
8704.238678
8691.475831
8686.938427
8711.458291
8732.401876
8725.897518
8719.661381
8743.488341
8775.339577
8778.982911
8775.585446
8800.351179
8837.253909
8848.54154
8847.78158
8872.837886
8917.049636
8943.067067
8950.644308
8974.717137
9019.286516
9051.808304
9064.772316
9082.340787
9115.510776
9137.504892
9128.586546
9116.114273
9122.283354
9123.020962
9088.554572
9045.728629
9018.683019
8991.771518
8937.322669
8872.793182
8834.057609
8812.8011
8774.534914
8721.963611
8697.242582
8691.744052
8671.33691
8636.468188
8618.743255
8625.247613
8625.538185
8600.526583
8585.662673
8597.687912
8604.728711
8585.997949
8571.223446
8581.684063
8593.44108
8579.024205
8563.646205
8575.604388
8591.228258
8581.549952
8564.115592
8569.256493
8589.529525
8587.473164
8569.211789
8575.023243
8598.514926
8604.996932
8587.406109
8583.002816
8601.37595
8607.410921
8592.390548
8588.367234
8602.940572
8611.434235
8595.788013
8583.583961
8594.826888
8609.310819
8592.770528
8576.811382
8583.896885
8600.459528
8592.658769
8570.575246
8575.783202
8593.888115
8591.317665
8572.944531
8570.821115
8585.550914
8587.339054
8563.556798
8556.448943
8573.592731
8580.901752
8561.768658
8551.755077
8569.547065
8582.689891
8568.027147
8550.928062
8554.280824
8556.046612
8531.012658
8512.08073
8525.536481
8556.851275
8579.98533
8587.406109
8595.542144
8615.949287
8618.475034
8597.710263
8589.261304
8601.867688
8600.236011
8580.655882
8567.781278
8565.993138
8560.628719
8538.72401
8525.983515
8541.361516
8557.678289
8547.374135
8531.03501
8539.998059
8553.990251
8542.479103
8527.168158
8534.253661
8552.291519
8548.402315
8534.633641
8548.916405
8593.798708
8623.682991
8637.339906
8680.679939
8776.993606
8859.426839
8899.950552
9006.009579
9140.097694
9171.524247
9146.155017
9079.323301
9023.756865
8925.029209
8768.276425
8622.274831
8544.043725
8604.929877
8668.475886
8656.920035
8649.163979
8652.717907
8630.008534
8607.030941
8609.266115
8627.706305
8628.019229
8612.708284
8614.898755
8640.446799
8648.515779
8635.104732
8631.260232
8651.041526
8664.430221
8650.393325
8640.223281
8660.45161
8675.807259
8662.820895
8654.975433
8670.509895
8692.012273
8688.614808
8677.23777
8693.263971
8721.114245
8729.630259
8720.890727
8737.274556
8769.48342
8782.603894
8778.960559
8791.701054
8830.548385
8859.896226
8867.808743
8885.868953
8929.097227
8968.995091
8983.411966
9001.181603
9040.252452
9076.954016
9080.664406
9081.536124
9104.80429
9131.179348
9123.5127
9096.802365
9087.302874
9079.524467
9045.303946
8985.378919
8939.043753
8909.628857
8863.673671
8800.127661
8753.546626
8731.977192
8706.250335
8665.458401
8633.696572
8631.193177
8626.566366
8597.129118
8573.615083
8581.77347
8591.205906
8575.023243
8557.94651
8564.026185
8580.49942
8573.078641
8555.443115
8560.360498
8573.682138
8571.022281
8551.084525
8547.798818
8566.01549
8573.928007
8556.694812
8552.31387
8570.821115
8577.973673
8565.5014
8559.622891
8578.331301
8589.08249
8580.544124
8564.60733
8576.453754
8593.709301
8583.427499
8566.328414
8574.59856
8590.825926
8582.712243
8560.360498
8563.221522
8584.478031
8578.711281
8554.10201
8552.135057
8571.603426
8572.206923
8551.620966
8547.195321
8562.975653
8567.289539
8552.04565
8544.423705
8558.237083
8566.775449
8550.481027
8537.539367
8547.82117
8563.109763
8552.649147
8537.226443
8545.161312
8560.516961
8554.10201
8534.790103
8539.282803
8558.617062
8558.594711
8541.629737
8539.416914
8552.358574
8550.25751
8516.215803
8497.775614
8514.315905
8528.889242
8535.728876
8559.86876
8595.318627
8609.757854
8598.067891
8590.87063
8599.96779
8605.667484
8592.971694
8574.509153
8577.884266
8582.555781
8561.925121
8532.689039
8533.85133
8554.258472
8554.638452
8538.411085
8534.231309
8548.223501
8550.682193
8532.152597
8524.217728
8539.394562
8549.072868
8530.677382
8520.976725
8542.479103
8570.687004
8582.533429
8601.085377
8644.336002
8713.760521
8792.796289
8848.474485
8922.458759
9068.125077
9132.900433
9098.188174
9063.386507
9014.056207
8960.233207
8820.199528
8692.951047
8604.684008
8590.378891
8638.144569
8664.899607
8661.502142
8649.141627
8612.842394
8597.643208
8612.641229
8626.096979
8611.143662
8596.547973
8608.193232
8628.376857
8622.677162
8607.030941
8616.284563
8640.044467
8642.681973
8628.466264
8635.194139
8660.809238
8667.917093
8655.489523
8654.55075
8674.42145
8684.613846
8671.940407
8669.772288
8696.795547
8714.00639
8707.949067
8708.440805
8739.576786
8769.371661
8769.125792
8771.606835
8801.088786
8838.438551
8852.654261
8859.493895
8891.836869
8940.742486
8967.788096
8976.482925
9007.842422
9056.50217
9085.268865
9092.175554
9111.845089
9150.223035
9171.188971
9158.448477
9147.138494
9154.022831
9144.880968
9100.4457
9052.210635
9021.208766
8989.826916
8929.52191
8866.624101
8829.095522
8803.279257
8757.100553
8706.026817
8681.506953
8676.902494
8655.310709
8618.877365
8601.666522
8605.421615
8602.091205
8578.554818
8570.821115
8587.316702
8591.876458
8575.224409
8563.19917
8579.873571
8592.479955
8575.447926
8557.924158
8569.234141
8582.868705
8571.91635
8558.393545
8565.993138
8587.361406
8581.572304
8565.590807
8567.066022
8587.182592
8586.757909
8568.898865
8572.855124
8596.63738
8598.961961
8575.336167
8568.138906
8585.796784
8593.530487
8576.498458
8564.942606
8576.990196
8584.232162
8566.507228
8550.704545
8561.925121
8574.419746
8560.315795
8539.61808
8547.620004
8565.434344
8556.270129
8538.142864
8546.837693
8568.228313
8569.234141
8546.278899
8542.523806
8563.914426
8566.171952
8546.077734
8538.522844
8554.929025
8560.807533
8546.345955
8532.599632
8544.960147
8553.297347
8540.467446
8524.016562
8535.438303
8553.431458
8542.635565
8525.983515
8534.477178
8551.129228
8543.328469
8523.368361
8528.106931
8546.837693
8545.317774
8518.070998
8502.514184
8506.135166
8513.511242
8497.105062
8502.424777
8544.311946
8578.688929
8574.978539
8560.472257
8580.097089
8598.850202
8581.192324
8553.453809
8560.941644
8577.616045
8561.723955
8524.173024
8516.349914
8528.509263
8522.876623
8505.554021
8508.504451
8526.318792
8526.251736
8507.655085
8503.296495
8524.240079
8528.844539
8514.315905
8512.550117
8532.018487
8548.379963
8538.299327
8545.608347
8586.757909
8634.0542
8661.368032
8710.452462
8811.839975
8891.85922
8961.417849
9079.680929
9140.455322
9135.448532
9076.059947
8980.77446
8902.878631
8783.944998
8654.059011
8523.278954
8518.898013
8621.157243
8660.384555
8630.790845
8607.254458
8609.333171
8619.659677
8607.634438
8591.876458
8604.214621
8618.184461
8608.55086
8596.547973
8611.6354
8630.544976
8629.31563
8617.78213
8629.405037
8653.187293
8653.924901
8643.464284
8644.984203
8665.033718
8668.878218
8654.148418
8658.350546
8687.519573
8700.304771
8691.45348
8694.090986
8720.756617
8741.767256
8741.163759
8744.471818
8779.005263
8808.889545
8815.505661
8826.458016
8859.024508
8897.827136
8916.401436
8926.32561
8961.842532
9006.702483
9030.48474
9037.525539
9066.783973
9109.274639
9132.118122
9128.005401
9133.705095
9159.52136
9164.505799
9137.907223
9108.089996
9093.002569
9068.080374
9011.686923
8952.566558
8918.100168
8882.538543
8820.758321
8759.268672
8725.942221
8709.044303
8673.39327
8632.578985
8620.307877
8624.644116
8608.416749
8579.717109
8573.972711
8586.802612
8582.354615
8564.160295
8556.91833
8569.658824
8576.386699
8555.845446
8543.373173
8557.253606
8566.820153
8550.63749
8537.896995
8550.481027
8567.580112
8556.851275
8540.243928
8551.911539
8569.837638
8566.462525
8551.240987
8556.493647
8575.403222
8574.062118
8553.833789
8548.558777
8564.115592
8567.289539
8547.910577
8540.288632
8554.6161
8560.315795
8545.094257
8536.488835
8550.816304
8562.796839
8547.463542
8528.73278
8537.740533
8549.206978
8537.405257
8516.439321
8522.027257
8538.947527
8532.823149
8515.321733
8518.205108
8537.137036
8536.913519
8518.048646
8518.473329
8535.594766
8539.416914
8520.686152
8512.728931
8525.424722
8534.588937
8519.613268
8507.118643
8522.183719
8536.064152
8521.133187
8505.486966
8517.19928
8533.940737
8522.139015
8505.375207
8512.706579
8530.833844
8526.721123
8506.671608
8511.007847
8532.309059
8534.164254
8514.941754
8511.007847
8530.00683
8537.271146
8523.055437
8518.540385
8525.759998
8523.882452
8502.827108
8492.008864
8513.667704
8545.585995
8560.427554
8568.697699
8584.232162
8600.817156
8601.107729
8581.952284
8577.347824
8590.87063
8584.165106
8560.986347
8546.658879
8547.552949
8541.205053
8517.556908
8513.220669
8535.035972
8542.18853
8525.357667
8515.031161
8529.671553
8540.534501
8524.620059
8513.287725
8528.017524
8540.959184
8527.034047
8514.025332
8537.718181
8580.588827
8604.728711
8617.290392
8663.334985
8759.581597
8839.310269
8881.108031
8993.783175
9140.723543
9169.601997
9132.833377
9067.90156
9013.296248
8904.443253
8742.527216
8590.267133
8506.31398
8559.332318
8623.1689
8631.550805
8637.496369
8637.429313
8607.7909
8587.115537
8596.436214
8618.251517
8611.054255
8591.697644
8598.134947
8620.889022
8623.280659
8606.226278
8609.646095
8633.607165
8640.603261
8625.560537
8627.303973
8653.567273
8667.023023
8652.38263
8645.610052
8664.787849
8680.523477
8672.230979
8668.6547
8691.766404
8717.225041
8717.85089
8714.989867
8736.894576
8770.265731
8781.061623
8780.905161
8803.413368
8846.596938
8870.334491
8876.078889
8902.431596
8949.906701
8985.267161
8995.191335
9020.247641
9065.509923
9098.210525
9101.026845
9111.621572
9142.109351
9166.69627
9157.308538
9138.823645
9139.047162
9136.521415
9099.708092
9044.499283
9008.691789
8976.617035
8922.369352
8852.453095
8809.85067
8788.437699
8750.439733
8698.24841
8668.811163
8663.334985
8650.505084
8619.793787
8599.833679
8608.036769
8613.155319
8590.155374
8582.511077
8597.173822
8603.588772
8590.065967
8575.604388
8585.170935
8599.185479
8590.289484
8575.403222
8584.410976
8600.660694
8597.464394
8578.465411
8581.639359
8602.448833
8604.616952
8588.322531
8587.003778
8605.823947
8609.176708
8590.468298
8584.768603
8604.706359
8613.602354
8596.302104
8583.382795
8596.167993
8606.270982
8593.932819
8578.979502
8586.579095
8600.012493
8588.05431
8565.166124
8569.301196
8587.339054
8583.44985
8561.165161
8562.81919
8580.991159
8578.95715
8557.745344
8554.772562
8572.542199
8576.00672
8556.694812
8548.178798
8563.467391
8572.519847
8559.086449
8546.368306
8557.275958
8571.26815
8560.315795
8545.496588
8550.235158
8565.210827
8562.3051
8546.837693
8551.576263
8567.960092
8564.473219
8542.769676
8544.356649
8561.925121
8563.310929
8543.484931
8543.21671
8561.321623
8556.068964
8528.464559
8514.829995
8530.163292
8543.149655
8538.947527
8546.994155
8583.002816
8602.582944
8593.888115
8584.388624
8599.654865
8609.333171
8596.279752
8572.743365
8574.375042
8580.030034
8555.264301
8526.43055
8527.659896
8545.831865
8547.865873
8527.235213
8520.864966
8533.918385
8540.087466
8522.206071
8511.94662
8530.118588
8541.853254
8525.380018
8515.634658
8533.761923
8560.271091
8569.144734
8580.052385
8623.727694
8679.517648
8731.664268
8784.86142
8846.596938
8951.583082
9088.196944
9150.93829
9170.674881
9165.712794
9087.347577
8950.778419
8788.728272
8661.211569
8522.720161
8478.217838
8568.563589
8648.515779
8675.539038
8650.572139
8611.993028
8608.662618
8625.515834
8614.719941
8596.63738
8607.7909
8627.236918
8620.821967
8606.941534
8615.457549
8636.982278
8634.903566
8616.575136
8620.062008
8642.190235
8649.253386
8637.809293
8638.524549
8661.792715
8672.789773
8663.379689
8661.032755
8685.038529
8705.646837
8705.088044
8701.332951
8723.23766
8751.736134
8760.185094
8759.581597
8782.42508
8817.047932
8828.313211
8833.208243
8859.829171
8903.63859
8930.348924
8937.501483
8961.015518
9007.954181
9038.106684
9044.812208
9061.777182
9098.210525
9124.742046
9121.72456
9115.175499
9127.379552
9133.146302
9102.099729
9060.525484
9041.548853
9016.112568
8957.573349
8894.049691
8850.530845
8824.044028
8775.205466
8720.398989
8692.839288
8683.295093
8661.211569
8622.408941
8606.315685
8615.524604
8608.081473
8580.968807
8566.730746
8579.314778
8587.003778
8569.748231
8553.945548
8564.74144
8576.789031
8565.881379
8553.386754
8565.948435
8582.667539
8572.273978
8551.643318
8559.73465
8580.655882
8580.410013
8567.669519
8573.503324
8595.251572
8597.129118
8579.560647
8575.939664
8595.899772
8601.532412
8583.092223
8574.978539
8590.468298
8602.225316
8586.959074
8574.956188
8585.439156
8596.838545
8583.941589
8563.936778
8574.330339
8592.234086
8579.404185
8558.393545
8564.540275
8581.482897
8575.447926
8554.660804
8555.867798
8571.156391
8569.435307
8550.682193
8551.173932
8571.357557
8577.750156
8559.131153
8549.542254
8566.551932
8575.11265
8560.852237
8546.010679
8560.069926
8576.878438
8563.355632
8548.402315
8559.108801
8574.73267
8565.791972
8546.167141
8554.99608
8576.386699
8568.854161
8541.517978
8535.3936
8546.480065
8543.775504
8531.124417
8542.501455
8581.549952
8606.181575
8595.452737
8589.507173
8610.316647
8625.359371
8602.180612
8580.186496
8588.255476
8600.079548
8580.991159
8549.318737
8547.30708
8558.348841
8551.017469
8534.834806
8540.623908
8555.197246
8552.984423
8535.997097
8539.282803
8559.153504
8565.434344
8542.70262
8534.946565
8552.649147
8560.651071
8557.43242
8572.609254
8617.983296
8661.211569
8687.921904
8737.185149
8816.13151
8882.046805
8965.329405
9082.988987
9155.989785
9191.305541
9154.358107
9053.954071
8947.403305
8818.187871
8676.254293
8521.021428
8504.928172
8615.524604
8664.698442
8656.249482
8640.20093
8631.550805
8625.113502
8606.136871
8593.217563
8604.97458
8616.306915
8603.879345
8593.932819
8612.954153
8633.16013
8627.080456
8614.228203
8625.98522
8645.006555
8639.753895
8625.739351
8638.435142
8667.380651
8671.33691
8655.802447
8659.088154
8688.212477
8700.103605
8689.687692
8691.0735
8715.638067
8735.374658
8734.458236
8738.213329
8765.884789
8793.891525
8799.658275
8805.49208
8837.186854
8875.810668
8893.848526
8901.895154
8935.735695
8985.088347
9008.244754
9018.325391
9047.293251
9087.526391
9106.078339
9099.797499
9105.564249
9129.257098
9134.420351
9103.641999
9075.389394
9067.745098
9041.057115
8980.506239
8922.101131
8887.679444
8852.296633
8795.992589
8745.969384
8723.841157
8709.290172
8672.655663
8635.797636
8626.476959
8631.371991
8618.765607
8590.825926
8584.992121
8597.442043
8594.960999
8569.882342
8563.825019
8580.521772
8582.712243
8565.657862
8554.325527
8568.407126
8583.226333
8569.703528
8558.617062
8573.570379
8587.741385
8575.917313
8564.383812
8577.526638
8596.056234
8588.076662
8570.642301
8578.174839
8597.754967
8591.652941
8572.273978
8574.956188
8593.396377
8595.765662
8577.973673
8574.911484
8594.759833
8599.185479
8579.426536
8568.518885
8582.667539
8591.362368
8575.224409
8562.550969
8573.279807
8581.751118
8569.189438
8554.772562
8560.673423
8574.486801
8566.775449
8547.776466
8555.823094
8573.257455
8568.474182
8546.770638
8544.781333
8562.752135
8563.132115
8543.328469
8538.120513
8557.275958
8566.373118
8548.402315
8538.276975
8555.085487
8566.127249
8552.626795
8539.394562
8551.375097
8566.797801
8554.392583
8537.494664
8545.965975
8553.498513
8532.398466
8508.280934
8517.33339
8542.032068
8560.472257
8568.250664
8585.662673
8602.940572
8605.801595
8594.513964
8589.618932
8600.861859
8603.879345
8586.199115
8574.397394
8576.096127
8575.358519
8549.408144
8530.722085
8539.908652
8553.878493
8544.669574
8529.537443
8540.109818
8555.666632
8549.341088
8530.587975
8534.387771
8554.079658
8550.972766
8532.599632
8535.594766
8569.9941
8598.291409
8611.657752
8638.859825
8702.539945
8789.35412
8845.948737
8892.395662
9020.091178
9133.906261
9124.451473
9094.522487
9050.35544
9005.383731
8888.215886
8742.527216
8633.696572
8585.148583
8635.060028
8679.472945
8682.177506
8680.076442
8654.751915
8618.944421
8615.502252
8634.858863
8633.517758
8616.306915
8615.166976
8636.87052
8650.058049
8638.03281
8628.265098
8647.107619
8661.412735
8653.455514
8643.15136
8653.902549
8677.99773
8676.366052
8661.256273
8672.320386
8696.035587
8695.230925
8679.428241
8689.419471
8719.90725
8729.786721
8721.784797
8731.396047
8763.381393
8782.022748
8778.468821
8788.169478
8823.485234
8851.268453
8858.890397
8872.435555
8913.808634
8955.964024
8972.683128
8983.769594
9023.95803
9069.488534
9087.906371
9095.125985
9121.925726
9153.084058
9157.889683
9144.053953
9141.774075
9145.328003
9122.462168
9071.343728
9023.265126
8989.826916
8943.804675
8882.091508
8827.195624
8795.545554
8763.403745
8712.441768
8670.331081
8661.390383
8654.260177
8626.074627
8601.152432
8602.40413
8612.708284
8598.69374
8574.73267
8574.464449
8590.602409
8586.757909
8565.389641
8564.652033
8583.82983
8583.136926
8562.439211
8555.823094
8574.956188
8580.320606
8564.003833
8553.610272
8571.089336
8584.969769
8570.821115
8559.511132
8573.056289
8593.374025
8585.126231
8571.715185
8582.779298
8598.358464
8589.641284
8571.893999
8576.900789
8596.033883
8591.89881
8568.630644
8566.686042
8586.377929
8587.249647
8566.887208
8560.695775
8575.067946
8577.951321
8560.584016
8552.135057
8566.104897
8572.698661
8555.957205
8542.769676
8553.431458
8568.138906
8553.833789
8537.472312
8546.100086
8559.622891
8551.263338
8534.812455
8540.869777
8558.080621
8556.068964
8539.260452
8538.925176
8556.270129
8557.611234
8542.121475
8535.572414
8550.324565
8557.499475
8539.551024
8526.050571
8543.015545
8557.521827
8538.634603
8522.653106
8533.538405
8549.408144
8539.416914
8524.485949
8530.833844
8542.121475
8524.105969
8493.975817
8498.11089
8520.328524
8529.135111
8530.230347
8554.772562
8592.256438
8596.167993
8582.779298
8580.901752
8595.586848
8592.27879
8571.648129
8562.126286
8573.391565
8572.251627
8542.322641
8520.283821
8532.599632
8548.111743
8538.567548
8519.389751
8526.363495
8545.161312
8536.757056
8519.50151
8524.530652
8544.49076
8544.848388
8527.771655
8527.592841
8552.358574
8575.514981
8585.10388
8613.132967
8664.273758
8727.037457
8797.80308
8859.315081
8941.547148
9080.038557
9139.605956
9109.498156
9087.816964
9031.579975
8966.446992
8829.430798
8711.011256
8609.467281
8571.603426
8622.788921
8666.866561
8671.001634
8650.102752
8607.567383
8596.682083
8618.027999
8621.537223
8600.861859
8591.608237
8607.366217
8619.145586
8606.24863
8601.621819
8622.453645
8638.636308
8629.785017
8620.196118
8634.747104
8652.114409
8647.577005
8634.612994
8642.301994
8663.558503
8667.984148
8655.847151
8662.686785
8690.69352
8702.98698
8695.879125
8702.629352
8734.413533
8757.949919
8755.491228
8766.108306
8804.620362
8836.002211
8840.539615
8853.28011
8894.452023
8934.953384
8953.639442
8971.722003
9014.503242
9062.26892
9082.609008
9087.459336
9114.728464
9151.474732
9160.460134
9149.172503
9153.6205
9167.791506
9149.328965
9102.904392
9066.918083
9044.946318
9002.880335
8932.47234
8873.731956
8844.607633
8816.533842
8757.748754
8708.977247
8693.643951
8682.244561
8650.527436
8616.329267
8609.489633
8613.803519
8595.989179
8571.379908
8569.85999
8588.456641
8585.707377
8563.33328
8561.567493
8579.694757
8578.219542
8558.505304
8554.057307
8572.832772
8579.292426
8562.886246
8553.677327
8572.899827
8586.400281
8572.16222
8561.299272
8578.934798
8598.850202
8591.340016
8575.783202
8584.410976
8605.265153
8599.006665
8581.974635
8584.366272
8602.493537
8600.1019
8579.426536
8577.6831
8595.162165
8595.117461
8574.777374
8569.569417
8590.021263
8596.972656
8575.984368
8564.428516
8577.638397
8586.087356
8568.854161
8554.504341
8565.166124
8577.504286
8564.294405
8548.558777
8555.845446
8573.413917
8567.669519
8545.563644
8546.949452
8565.926083
8564.383812
8544.982498
8546.435362
8564.406164
8564.897903
8548.178798
8539.886301
8555.443115
8562.372155
8546.748286
8537.874644
8554.817266
8566.66369
8551.688022
8540.26628
8552.69385
8566.373118
8554.660804
8535.997097
8542.032068
8559.35467
8551.330394
8531.973783
8532.95726
8551.822132
8554.48199
8531.236175
8519.747379
8529.068056
8529.62685
