 ECG Channel 
1961.387928
2075.851211
2133.809284
2155.468125
2175.674102
2190.13568
2191.700303
2192.013227
2203.792596
2218.18712
2223.864463
2227.41839
2237.990765
2253.771097
2258.107335
2261.75067
2273.306522
2288.818632
2296.284115
2299.569821
2310.231603
2328.582386
2347.581368
2358.421964
2373.643502
2396.375227
2415.821244
2429.768733
2446.554893
2474.315759
2504.870594
2528.384629
2548.076516
2576.686749
2613.120093
2642.445581
2663.009186
2696.290934
2732.545463
2755.344242
2767.928275
2785.921429
2808.586098
2823.070028
2823.137083
2821.706572
2825.081685
2821.527758
2799.064255
2774.164411
2751.633853
2720.430818
2675.682625
2625.90529
2583.325217
2544.209664
2499.841452
2451.025242
2412.356724
2384.797023
2351.515275
2317.473569
2297.021722
2285.220001
2269.283208
2246.37267
2237.499027
2237.096696
2234.705059
2221.495178
2216.488387
2220.422294
2222.92569
2218.209471
2216.421332
2222.769227
2224.780884
2220.981088
2218.030658
2220.779922
2226.412562
2223.417428
2215.147282
2215.661373
2222.590413
2222.255137
2214.588489
2212.666239
2213.873233
2210.855748
2203.8373
2199.568117
2198.986971
2193.890774
2183.519564
2179.339788
2180.345616
2177.931628
2167.515715
2160.005529
2158.195038
2157.479782
2150.170761
2141.900616
2146.035689
2149.38845
2143.711107
2139.106648
2137.050287
2140.492456
2139.531331
2133.831636
2131.395296
2135.03863
2137.474971
2129.920081
2128.221348
2137.162046
2137.85495
2129.875377
2129.718915
2134.412782
2137.318508
2132.155255
0
2071.939656
2082.892011
2101.667476
2117.157235
2125.919119
2135.508017
2153.054136
2159.849067
2150.953072
2130.16595
2115.950241
2103.567374
2083.27199
2070.598551
2077.572295
2083.920191
2079.516897
2070.062109
2070.039757
2073.101946
2071.380862
2066.977569
2069.369205
2076.410005
2074.465403
2067.268141
2055.712289
2069.905647
2165.101727
2340.80879
2584.286342
2853.736622
2908.543099
2771.32574
2648.435849
2502.076626
2255.648643
2001.91164
1711.495425
1544.304376
1559.3471
1653.26913
1761.518629
1875.847802
1997.485995
2071.917304
2106.271935
2126.410857
2145.566302
2154.685814
2154.283482
2160.318453
2178.669236
2186.090015
2187.989913
2197.422349
2215.862538
2228.960661
2232.134608
2234.369783
2246.439725
2258.442612
2269.864353
2278.805051
2293.557202
2311.997391
2326.794246
2336.293737
2357.572598
2388.529764
2409.696866
2421.118608
2446.152561
2482.876478
2513.252498
2538.912301
2565.734394
2600.737226
2634.331898
2664.394994
2695.128643
2724.856463
2751.633853
2766.07308
2779.998217
2795.756196
2803.333438
2793.833946
2785.228525
2782.322798
2778.970036
2754.696042
2719.089713
2689.384245
2657.04127
2606.727494
2549.976414
2503.976524
2462.849315
2414.457788
2363.071127
2321.876862
2293.333685
2265.796335
2235.085039
2207.257117
2196.193003
2187.609933
2176.367006
2168.99093
2172.746023
2174.377701
2169.594427
2163.559456
2164.341767
2169.885
2169.974407
2162.8442
2166.666349
2177.663407
2178.646884
2170.041462
2168.47684
2176.746986
2178.937456
2172.053119
2166.353424
2165.794631
2164.386471
2158.48561
2158.217389
2162.911256
2166.93457
2154.484648
2144.359308
2142.995851
2142.682927
2131.238834
2119.258299
2117.403104
2119.280651
2116.240813
2105.333162
2100.594592
2107.23306
2107.09895
2097.688865
2095.274877
2093.330275
2095.677208
2089.351665
2084.009598
2083.987246
2091.028046
2094.514918
2089.262258
2081.819127
2072.051414
2058.327443
2063.177772
2081.372092
2095.520746
2106.696618
2117.984249
2138.972537
2144.538122
2137.631433
2126.254395
2109.870566
2097.040665
2086.267124
2067.603417
2060.763784
2066.619941
2066.463478
2060.920246
2060.495563
2062.842496
2066.128202
2059.087403
2053.54417
2058.997996
2066.731699
2063.982435
2055.399365
2043.910568
2061.009653
2166.264017
2346.284967
2595.618677
2806.842662
2792.962228
2716.452207
2656.437773
2541.08042
2299.413359
2021.312955
1676.20202
1521.080914
1560.844667
1677.811346
1800.321257
1927.435628
2030.47717
2077.12526
2100.661647
2120.755866
2133.317546
2135.396258
2136.804418
2150.126058
2166.55459
2171.181401
2175.65175
2187.922858
2207.614745
2216.421332
2219.483521
2227.999536
2241.969376
2254.039318
2259.694309
2272.792431
2295.948839
2315.037228
2323.843816
2337.701897
2360.880656
2385.869907
2402.589012
2422.035029
2450.555855
2481.021283
2506.546975
2532.385592
2563.834496
2597.339761
2625.570014
2651.676852
2683.371625
2717.882719
2739.899187
2749.644548
2764.173182
2780.04292
2784.937952
2780.04292
2772.309217
2761.8486
2746.716469
2720.564928
2686.366759
2653.487343
2614.595308
2563.275702
2512.671353
2471.141812
2430.908672
2386.585162
2342.239301
2309.739865
2286.181126
2259.58255
2228.44657
2210.900451
2203.680838
2192.840242
2176.367006
2168.655654
2171.047291
2172.723672
2165.437003
2162.620683
2168.968578
2173.640093
2170.823773
2171.516677
2179.160974
2183.072529
2179.675064
2176.769337
2183.385454
2189.532183
2182.558439
2169.102689
2171.270808
2178.646884
2179.675064
2171.606084
2170.332035
2177.305779
2171.583733
2157.748003
2153.165895
2156.630416
2151.601273
2138.301985
2130.769447
2134.569244
2136.31268
2126.366154
2118.744209
2120.442941
2124.667421
2121.247604
2113.804473
2112.731589
2114.877357
2110.138787
2102.919174
2103.612078
2106.897784
2103.455615
2094.760787
2090.759825
2097.197127
2095.856022
2088.189374
2091.653894
2102.472139
2096.034836
2076.253542
2059.914417
2065.614112
2080.612133
2085.037778
2091.832708
2113.536252
2137.050287
2144.225197
2141.297119
2139.933662
2138.011412
2117.872491
2090.469252
2083.763729
2086.714159
2079.114566
2068.586894
2066.86581
2074.375996
2075.292417
2068.005749
2067.312845
2072.610208
2073.169002
2064.04949
2060.450859
2062.529571
2061.411984
2043.999975
2086.960028
2233.118085
2441.190474
2666.13843
2739.4298
2707.444454
2702.258849
2702.929402
2561.912246
2333.63388
1982.420919
1612.566604
1524.165454
1639.321642
1789.167737
1914.896299
2022.497597
2082.579086
2112.686886
2127.304927
2132.512883
2138.547854
2151.467163
2163.850029
2164.721747
2168.834468
2180.658541
2192.169689
2196.215355
2200.998628
2213.739123
2230.569986
2236.224978
2240.985899
2254.352242
2273.485336
2285.71174
2295.166528
2309.091664
2333.499769
2354.577464
2366.31213
2383.277104
2410.881509
2439.379983
2460.323567
2481.736539
2513.185443
2545.595473
2571.143516
2596.17747
2626.79936
2660.282273
2687.551402
2701.141262
2724.94587
2751.745612
2763.033243
2767.682405
2773.829135
2776.243124
2768.576475
2751.253873
2731.427876
2711.400713
2679.705939
2634.622471
2587.303828
2544.79081
2498.187423
2447.337204
2400.353837
2366.200372
2333.2539
2295.881783
2259.58255
2238.840132
2223.238614
2205.133701
2186.849974
2179.652712
2179.451547
2171.919009
2162.084241
2158.105631
2160.117288
2161.927779
2154.976386
2154.283482
2163.559456
2167.113384
2159.603198
2158.664424
2164.453526
2169.616779
2166.0405
2163.380642
2168.946227
2173.237762
2167.113384
2162.57598
2164.565285
2168.253323
2164.297064
2152.964729
2151.802439
2155.713994
2151.444811
2143.353479
2137.20675
2139.754848
2132.334069
2120.487645
2119.325354
2122.767523
2121.06879
2109.781159
2102.047456
2106.294287
2107.99302
2100.616944
2093.151461
2094.738435
2098.448825
2095.31958
2087.831746
2088.211726
2092.324447
2087.451766
2083.495508
2082.310865
2083.562563
2081.327388
2074.755976
2072.297284
2077.192316
2081.416795
2072.520801
2068.899819
2077.304074
2079.360435
2069.726833
2063.870676
2069.68213
2080.746243
2074.197182
2063.200124
2057.522781
2055.511124
2053.588874
2060.473211
2082.512031
2108.372999
2123.058095
2127.86372
2138.033764
2141.654747
2133.563415
2113.849177
2087.742339
2071.045586
2065.658816
2059.288568
2055.421717
2058.841534
2059.623845
2056.248731
2050.929016
2053.857095
2060.517914
2051.577217
2041.340118
2043.93292
2052.359528
2048.403269
2032.868806
2026.520911
2094.716083
2247.669071
2460.345919
2683.841012
2718.977954
2643.004375
2605.431092
2621.837273
2505.429388
2286.73992
1904.681552
1546.114867
1506.753445
1643.859046
1791.313504
1918.830206
2025.22451
2081.774423
2101.041627
2106.897784
2115.056171
2126.83554
2137.877302
2143.129962
2150.751907
2165.280541
2169.259151
2171.67314
2182.625494
2199.299896
2211.5263
2218.500044
2233.140437
2249.680728
2262.555332
2269.842001
2280.704949
2297.960496
2317.630031
2334.639708
2349.056584
2370.469555
2394.072997
2411.172081
2432.94268
2464.033957
2493.761777
2518.505158
2545.327252
2574.831554
2609.208537
2638.779895
2666.205486
2694.525146
2726.018754
2751.20917
2763.189705
2774.410281
2789.028321
2801.478243
2801.612354
2794.683313
2790.68235
2778.455946
2751.34328
2716.005172
2682.477556
2639.271634
2584.800432
2531.245653
2484.06112
2447.001928
2405.360628
2359.271331
2320.044019
2290.830289
2262.980016
2234.101562
2214.208509
2208.553518
2199.389303
2183.944247
2180.345616
2185.441814
2184.413634
2178.98216
2176.746986
2178.356311
2179.160974
2168.722709
2163.000663
2172.567209
2181.329093
2181.887887
2174.958846
2175.294122
2178.98216
2174.534163
2169.035634
2169.348558
2172.075471
2170.39909
2160.743136
2158.552666
2160.743136
2161.100764
2151.333052
2143.6217
2143.241721
2145.834523
2135.530369
2123.795703
2124.734476
2127.439037
2117.626621
2109.088255
2108.082427
2108.149482
2106.674267
2098.694694
2093.732607
2095.274877
2095.431339
2090.469252
2092.36915
2095.05136
2092.525612
2083.495508
2074.93479
2082.847307
2084.501336
2076.454708
2071.827897
2074.063071
2081.148574
2074.375996
2065.256484
2072.498449
2076.99115
2069.123336
2061.702557
2063.825973
2068.92217
2065.345891
2059.914417
2061.724909
2066.307016
2063.423641
2057.343967
2062.797792
2072.587856
2071.313807
2062.64133
2054.617054
2053.387708
2055.511124
2052.225417
2066.10585
2094.827842
2116.129055
2122.365191
2131.372944
2140.224235
2136.31268
2121.784046
2098.314714
2072.274932
2068.452784
2065.480002
2050.481981
2049.118525
2054.81822
2057.880409
2048.492676
2043.865865
2048.693842
2048.135048
2038.948481
2033.718173
2041.094248
2044.223493
2034.120504
2021.134141
2073.750147
2217.315402
2415.083637
2666.697224
2818.577328
2731.517283
2620.563223
2538.308804
2388.082729
2172.276637
1905.843843
1600.586069
1511.223794
1594.037008
1717.016306
1822.248318
1942.634814
2040.066068
2082.422624
2097.130072
2104.550851
2122.275784
2138.346689
2140.872436
2147.086221
2165.302892
2173.684797
2184.078358
2191.186212
2199.791634
2207.882966
2212.867405
2219.170597
2230.569986
2250.641853
2268.590303
2276.681635
2287.611638
2308.64463
2325.833121
2334.66206
2354.823334
2387.278067
2414.077808
2433.792047
2457.28373
2488.576172
2514.101865
2531.379763
2559.744127
2593.562316
2632.454351
2667.144259
2695.665085
2718.709733
2740.413277
2759.92635
2771.795126
2786.18965
2796.516156
2795.197403
2791.039978
2791.822289
2782.34515
2759.725184
2729.080943
2689.406596
2655.253131
2612.404837
2555.564351
2500.959039
2461.262341
2417.184701
2375.364587
2331.666926
2297.289943
2272.814783
2244.20455
2216.242518
2203.390265
2194.695436
2183.385454
2173.237762
2169.728538
2172.164878
2169.236799
2161.436041
2160.005529
2168.47684
2170.667311
2165.235837
2164.63234
2171.069642
2174.24359
2171.449622
2167.471012
2176.411709
2180.211506
2177.216372
2172.120174
2173.975369
2172.075471
2162.799497
2148.427325
2147.577959
2153.523523
2147.242683
2136.245625
2133.943395
2135.239796
2127.193168
2117.246642
2115.81613
2116.19611
2111.949278
2098.940563
2091.631543
2096.615982
2101.265144
2091.273915
2085.015426
2088.368188
2087.675284
2082.042644
2076.052377
2079.136917
2080.209801
2076.052377
2068.877467
2067.961045
2073.839554
2070.19622
2061.166115
2065.167077
2073.101946
2074.398348
2067.89399
2065.927037
2066.329368
2061.411984
2061.076708
2062.775441
2065.278836
2067.961045
2058.170981
2051.085478
2056.695766
2062.194295
2052.091307
2043.664699
2038.747315
2040.557807
2037.13799
2041.541283
2065.770574
2097.733569
2114.899709
2117.984249
2126.232043
2133.004622
2118.721857
2097.711217
2079.42749
2069.123336
2059.757955
2048.067993
2037.428562
2036.89212
2041.206007
2035.595719
2029.918376
2033.539359
2036.869769
2031.751219
2024.464551
2028.376106
2033.248786
2029.247824
2016.283812
2018.071952
2101.712179
2266.332777
2484.776376
2729.572681
2797.499633
2714.149977
2646.133619
2563.856848
2363.49581
2122.923985
1789.815937
1532.56971
1514.24128
1623.831883
1742.18437
1854.993624
1975.00014
2050.817257
2081.439147
2093.151461
2108.685924
2119.079485
2117.939546
2122.499302
2137.72084
2156.317491
2163.402994
2163.805325
2175.674102
2192.616724
2199.61282
2201.199794
2211.079265
2229.117123
2240.36005
2244.092792
2253.011138
2275.452289
2294.674789
2304.733074
2316.892423
2342.619281
2368.770822
2388.082729
2407.685209
2434.373192
2469.085451
2493.426501
2515.822949
2551.161057
2586.230944
2610.773159
2633.281366
2661.109288
2691.731178
2717.480387
2730.802027
2738.558082
2747.856408
2754.785449
2750.583321
2742.402582
2737.88753
2724.923518
2696.24623
2656.549532
2621.367886
2585.381578
2536.051278
2481.133042
2437.927119
2397.559869
2350.218874
2308.488167
2276.771042
2252.094716
2225.809065
2196.66239
2176.255247
2169.817945
2159.603198
2144.046383
2133.786933
2137.765543
2137.430267
2130.188302
2127.081409
2131.44
2139.933662
2136.782066
2130.590633
2135.955052
2141.654747
2136.849122
2131.037668
2134.278671
2141.833561
2140.783029
2138.547854
2141.56534
2147.130924
2147.130924
2137.653784
2130.791799
2138.078468
2141.18536
2134.055154
2125.047401
2122.655764
2122.700467
2112.105741
2103.38856
2104.349685
2106.897784
2099.253487
2090.82688
2092.972647
2094.492566
2089.709293
2079.740415
2079.360435
2085.127185
2080.545077
2069.860944
2068.631598
2075.270066
2072.811374
2063.982435
2064.004786
2072.610208
2072.498449
2061.277874
2055.734641
2064.675339
2066.977569
2057.90276
2051.063126
2054.997033
2058.908589
2055.041737
2050.504333
2051.10783
2060.316749
2056.606359
2049.587911
2051.130182
2061.590798
2059.445031
2051.644272
2050.929016
2058.618016
2061.166115
2055.8464
2055.667586
2058.841534
2062.216647
2058.41685
2054.751164
2054.304129
2050.459629
2041.787153
2039.551978
2059.847362
2087.675284
2104.729665
2109.088255
2122.231081
2136.089162
2126.477912
2107.74715
2094.179642
2081.305037
2063.870676
2054.013557
2050.705499
2056.449897
2055.354661
2047.442144
2044.558769
2053.141839
2056.047565
2050.526685
2046.101039
2047.486847
2052.158362
2047.173923
2041.049545
2035.930995
2062.820144
2178.199849
2361.774726
2595.506918
2716.966297
2657.555361
2603.754712
2628.051058
2585.001598
2409.115721
2104.550851
1697.257363
1517.281117
1596.495699
1741.737335
1870.796307
1993.820309
2072.051414
2096.526575
2107.434226
2124.108627
2136.089162
2139.799552
2143.10761
2156.451602
2168.052157
2169.437965
2172.522506
2185.77709
2200.685704
2207.838262
2208.240593
2214.923765
2233.207492
2246.663242
2250.910074
2265.706928
2290.9644
2304.710723
2311.416246
2326.07899
2349.682432
2374.023482
2391.211974
2411.440302
2442.28571
2472.482916
2493.605315
2519.265118
2551.697499
2588.577877
2619.088008
2642.020898
2670.809945
2704.248155
2729.527978
2744.92833
2762.027414
2781.920467
2791.844641
2787.798975
2783.932124
2784.468566
2775.237295
2748.01287
2716.787483
2688.400768
2651.296872
2601.899517
2548.456496
2505.541146
2461.776431
2413.697828
2369.754299
2333.566825
2306.834138
2276.659283
2242.908149
2227.038411
2216.77896
2201.713884
2185.151241
2176.411709
2175.160012
2173.193058
2163.559456
2159.916122
2166.0405
2168.007453
2163.470049
2161.078413
2166.129907
2171.091994
2168.208619
2163.559456
2169.437965
2176.188192
2173.684797
2167.96275
2170.466145
2176.769337
2173.751852
2165.14643
2164.006491
2168.499192
2165.571113
2154.819924
2149.433154
2153.456468
2148.539084
2136.82677
2133.518712
2135.463314
2133.11638
2120.778217
2113.044514
2117.000773
2118.475988
2112.195148
2100.505185
2101.533365
2105.601383
2099.54406
2089.7987
2090.379845
2094.492566
2089.128147
2082.62379
2083.674322
2089.530479
2087.384711
2078.064034
2074.331292
2078.756938
2081.327388
2075.672397
2074.979493
2080.142746
2084.322522
2077.952275
2072.051414
2075.96297
2080.545077
2075.828859
2069.43626
2073.034891
2076.812336
2073.616037
2065.301188
2066.239961
2075.001845
2072.945484
2066.441127
2068.855115
2077.237019
2078.823993
2072.587856
2068.899819
2075.895915
2077.728758
2069.033929
2067.290493
2076.387653
2080.947409
2072.051414
2065.278836
2071.760842
2077.192316
2074.823031
2074.264237
2077.840516
2078.622827
2071.716138
2057.098097
2057.612188
2067.849287
2080.925057
2094.716083
2111.725761
2127.819017
2137.609081
2140.80538
2133.943395
2124.689773
2109.15531
2082.310865
2066.10585
2070.19622
2069.570371
2062.887199
2054.05826
2057.120449
2063.937731
2060.562618
2054.885275
2056.092269
2060.853191
2052.560693
2044.089382
2047.576254
2050.861961
2038.747315
2064.541228
2194.717788
2395.682322
2627.134636
2700.224841
2620.093837
2577.446708
2617.635145
2564.639159
2400.599706
2092.615019
1693.949305
1528.948728
1617.416932
1775.868449
1907.810796
2013.199271
2074.219534
2106.115473
2128.2437
2133.697526
2133.608119
2139.888959
2152.294177
2163.201828
2166.643997
2174.958846
2183.877192
2191.78971
2199.501061
2208.374704
2219.505873
2228.82655
2233.140437
2244.651585
2264.611693
2282.716606
2293.736016
2302.542603
2321.921566
2342.932206
2357.639653
2372.570619
2396.28582
2421.722105
2444.766753
2463.653977
2494.454681
2531.893853
2562.560447
2588.689636
2619.333877
2658.762355
2691.462957
2709.94785
2731.830207
2763.569684
2788.536583
2795.711493
2797.85726
2810.865976
2817.146816
2808.407284
2792.939877
2782.009874
2761.043937
2726.666954
2680.48825
2634.980099
2594.970476
2543.717926
2487.927972
2439.46939
2394.698846
2353.348118
2314.16551
2284.080062
2264.432879
2245.09862
2221.696344
2201.512718
2195.589506
2192.594372
2177.551648
2164.76645
2165.928741
2170.689663
2166.085203
2160.340805
2165.749927
2174.288294
2172.567209
2166.576942
2167.649826
2175.316474
2173.371872
2160.832543
2154.104668
2161.614855
2160.586674
2150.774258
2147.354442
2151.288349
2152.540046
2141.56534
2136.759715
2137.765543
2137.899654
2135.016279
2129.160122
2128.601328
2126.008526
2115.771427
2102.87447
2102.516842
2108.775331
2103.76854
2090.804528
2087.340008
2087.563525
2082.892011
2077.639351
2075.292417
2077.035854
2077.192316
2068.40808
2064.027138
2074.04072
2077.572295
2068.050452
2061.881371
2062.931903
2062.171943
2059.020347
2053.141839
2055.064089
2063.066013
2060.383804
2050.370222
2054.482943
2059.892066
2055.533475
2047.039812
2045.430487
2055.578179
2055.824048
2044.178789
2042.636519
2047.822124
2044.536417
2037.607376
2037.003879
2042.457705
2047.39744
2049.453801
2045.832818
2044.558769
2046.168094
2040.423696
2043.441182
2042.301243
2044.782286
2035.930995
2022.743466
2019.167187
2033.919338
2052.940673
2063.401289
2079.114566
2098.337066
2108.730627
2105.780197
2096.459519
2092.927944
2079.472194
2050.951368
2033.248786
2037.540321
2038.568501
2032.757048
2025.269213
2023.101094
2024.419847
2016.417923
2012.863995
2020.150664
2021.268251
2022.966984
2023.235205
2015.881481
2010.517062
2018.42958
2100.259316
2274.044129
2511.419655
2765.782507
2808.116711
2670.653483
2563.834496
2455.249721
2241.25412
2020.597699
1734.763591
1521.751466
1507.513405
1607.470406
1731.500236
1853.049022
1965.657111
2029.694859
2066.619941
2087.988208
2098.918211
2097.24183
2106.696618
2125.963822
2137.184398
2142.325299
2146.192151
2159.290273
2170.622608
2170.175573
2179.026863
2201.065683
2216.354277
2218.008306
2224.937347
2244.830399
2256.341548
2264.164658
2279.632065
2300.441539
2320.625165
2338.931243
2353.951616
2376.750395
2413.474311
2434.194378
2447.53837
2482.585905
2522.662583
2551.272816
2574.563333
2606.481624
2642.803209
2675.526163
2697.207355
2715.424027
2743.162542
2763.815554
2772.443327
2771.482202
2772.21981
2774.387929
2765.402527
2743.319004
2722.151902
2696.089768
2658.561189
2605.967534
2558.693595
2510.123254
2457.753117
2404.287744
2361.372395
2326.570729
2288.304542
2242.528169
2212.129797
2194.74014
2181.440852
2160.363157
2142.012375
2136.759715
2135.463314
2122.923985
2116.464331
2120.442941
2125.405029
2119.392409
2110.362304
2110.898746
2118.878319
2122.61106
2118.63245
2122.946337
2135.865645
2137.609081
2133.719877
2132.155255
2141.386526
2142.884093
2133.675174
2125.069752
2125.896767
2120.398238
2110.56347
2105.199052
2108.216537
2106.763674
2101.041627
2095.341932
2095.632505
2093.39733
2084.277819
2076.387653
2078.108737
2082.020293
2073.437223
2063.490696
2063.803621
2064.384766
2061.210818
2056.695766
2050.705499
2051.577217
2055.533475
2052.359528
2046.860998
2047.889179
2046.793943
2038.121466
2036.601548
2046.324557
2047.710365
2038.903777
2034.589891
2038.389687
2039.775496
2033.092324
2031.013612
2033.651118
2041.764801
2041.720097
2031.12537
2026.990298
2032.466475
2030.924205
2026.163283
2030.745391
2041.362469
2036.512141
2020.575347
2008.997143
2011.969925
2022.519949
2034.478132
2053.946501
2080.366263
2096.638333
2099.432301
2099.745226
2097.018313
2090.871583
2073.772499
2047.956234
2035.416905
2034.656946
2026.230338
2018.854263
2018.116655
2025.537434
2027.504388
2020.463588
2018.004896
2023.034039
2027.102056
2022.743466
2014.495673
2018.295469
2015.590908
2003.029228
2064.094193
2224.825588
2450.891131
2713.099445
2831.340174
2748.817533
2658.941169
2541.996842
2331.309298
2094.604325
1818.560281
1547.67949
1486.256896
1578.05551
1710.400189
1824.304679
1933.694116
2016.77555
2063.423641
2084.903668
2092.346798
2098.739397
2113.290383
2126.410857
2127.506092
2130.210654
2142.682927
2157.479782
2162.218352
2165.079375
2176.903448
2191.946172
2202.742064
2207.368875
2217.918899
2234.705059
2247.981995
2255.492181
2269.104394
2291.187917
2312.802054
2326.637784
2341.479342
2367.787345
2395.078825
2414.793064
2439.6035
2473.578152
2506.569327
2536.140685
2563.63333
2596.535098
2634.175436
2662.204523
2681.739948
2709.56787
2739.854484
2755.433649
2759.41226
2767.592998
2776.086661
2770.901057
2752.572626
2736.099391
2716.787483
2686.813794
2641.931491
2594.076406
2548.478848
2499.081492
2444.431477
2392.642485
2354.331595
2317.764141
2277.173373
2236.336736
2213.82853
2197.444701
2173.7295
2149.656671
2138.391392
2133.36225
2125.047401
2116.464331
2112.709238
2116.933717
2116.978421
2110.876395
2112.239851
2120.487645
2122.029915
2118.297174
2115.726723
2123.013392
2124.130979
2116.665496
2114.072694
2125.092104
2130.791799
2127.684906
2123.527482
2124.935642
2126.70143
2123.058095
2116.285517
2114.139749
2118.319526
2114.676191
2104.327333
2098.426473
2100.393426
2096.526575
2087.027083
2081.886182
2086.267124
2085.864793
2073.996016
2067.871638
2071.246752
2069.458612
2062.373109
2056.673414
2060.026176
2063.66951
2051.24194
2042.703574
2042.345946
2045.542246
2042.323594
2036.825065
2038.099115
2047.732717
2045.832818
2036.467437
2035.930995
2043.284719
2043.217664
2034.276966
2032.578234
2036.199216
2034.947519
2026.789132
2026.722077
2030.588929
2029.605452
2022.452894
2020.575347
2027.124408
2031.460647
2021.268251
2004.996181
2003.364504
2013.512196
2026.677373
2046.726888
2067.715176
2082.780252
2088.569354
2084.568391
2082.221458
2083.27199
2070.933827
2048.1574
2029.940728
2031.482998
2031.37124
2019.547167
2014.138045
2017.714324
2020.240071
2017.714324
2012.819292
2019.055428
2023.704591
2016.462626
2010.628821
2013.243975
2015.970888
1999.117672
2028.733734
2166.42048
2373.799965
2606.794549
2697.766149
2643.719631
2612.628354
2618.618622
2510.749103
2302.900231
1985.080777
1605.34699
1473.024663
1569.226571
1720.391419
1847.841066
1958.862181
2030.074838
2067.916342
2088.278781
2096.057188
2098.471176
2109.267069
2127.528444
2133.898691
2135.686831
2145.990985
2162.419517
2168.610951
2172.991892
2180.278561
2195.745968
2204.016114
2206.318343
2219.394114
2239.443629
2252.497047
2259.984882
2271.540734
2293.087815
2315.216042
2327.308336
2342.21695
2369.664892
2396.375227
2414.793064
2433.747343
2463.966902
2504.423559
2532.899682
2556.369013
2589.38254
2629.012183
2659.008224
2678.767166
2703.197623
2731.070248
2750.046879
2756.774754
2759.121687
2765.357824
2764.575513
2749.175161
2730.533806
2712.473597
2684.355102
2642.847913
2592.154156
2546.534246
2506.725789
2452.366346
2396.129357
2353.661043
2319.194653
2282.426033
2245.322138
2218.008306
2202.160919
2182.066701
2155.043442
2140.201883
2139.196055
2135.373907
2122.499302
2116.576089
2121.091142
2124.667421
2116.576089
2111.166967
2114.564432
2120.822921
2119.593575
2114.519729
2121.918156
2130.389468
2125.360325
2118.654802
2123.326316
2127.528444
2126.008526
2118.833616
2120.465293
2128.131941
2125.583842
2114.363267
2112.038685
2116.106703
2120.264127
2113.290383
2104.617906
2104.260278
2107.99302
2099.611115
2089.821051
2091.899764
2095.230173
2087.004732
2077.169964
2075.292417
2075.292417
2071.000883
2061.702557
2061.188467
2066.061147
2065.569409
2058.170981
2056.315786
2062.64133
2063.423641
2055.824048
2050.146705
2053.812391
2053.432411
2045.765763
2041.317766
2045.944577
2050.861961
2043.821161
2039.015536
2043.664699
2047.978586
2039.842551
2030.61128
2034.254615
2042.882388
2038.479094
2028.107885
2023.257556
2024.419847
2022.318783
2023.883405
2044.290548
2075.717101
2092.88324
2096.325409
2105.266107
2110.608174
2100.482833
2078.823993
2061.635502
2048.224455
2037.674432
2026.006821
2014.540376
2014.406266
2016.015591
2013.31103
2006.292582
2008.43835
2015.836777
2013.69101
2005.376161
2003.386856
2009.622992
2008.930088
1996.033132
1994.826137
2086.848269
2258.286149
2489.514946
2681.471727
2673.402747
2606.414569
2585.448633
2561.532266
2403.550137
2150.260168
1748.241693
1462.273474
1493.163585
1653.962034
1797.817862
1918.316116
2009.354771
2059.132106
2080.209801
2085.462461
2094.67138
2108.820034
2119.817092
2121.337011
2124.667421
2138.324337
2148.606139
2148.829657
2155.065793
2169.437965
2186.179422
2195.477747
2201.289201
2212.710942
2227.708963
2237.007289
2245.746821
2263.538809
2284.214173
2298.608696
2310.633935
2331.085781
2356.410307
2377.465651
2395.682322
2422.16914
2458.289559
2489.112614
2511.173786
2540.812199
2576.619694
2612.628354
2637.081163
2664.998491
2694.860422
2719.872024
2735.875873
2747.118801
2759.456963
2767.48124
2764.396699
2753.153772
2743.542521
2730.846731
2699.95662
2656.549532
2613.812997
2570.718833
2519.868615
2460.882361
2410.613288
2371.877715
2329.454104
2279.989693
2244.159847
2223.596242
2203.792596
2178.84805
2159.826715
2152.852971
2142.682927
2130.121247
2124.063924
2123.393372
2123.661592
2117.716028
2110.831691
2110.518767
2115.81613
2114.117398
2109.0212
2111.234023
2117.581918
2116.19611
2111.524595
2113.402142
2124.734476
2126.097933
2113.402142
2111.07756
2119.727685
2118.878319
2109.691752
2103.075636
2105.020238
2109.602345
2106.808377
2097.890031
2096.750092
2100.035799
2090.670418
2073.392519
2072.386691
2076.968798
2071.760842
2063.66951
2061.635502
2064.116545
2061.389632
2055.041737
2051.197237
2053.655929
2051.554865
2046.436315
2042.882388
2049.923187
2051.912493
2044.648176
2040.557807
2044.782286
2049.766725
2044.916397
2039.909606
2043.687051
2045.095211
2037.942652
2033.494655
2040.401344
2048.403269
2041.384821
2020.552995
2011.321725
2024.375144
2034.589891
2038.412039
2053.119487
2080.45567
2092.36915
2094.470214
2090.938639
2085.909496
2072.923133
2046.950405
2023.615184
2017.624917
2024.509254
2019.681277
2008.05837
2013.489844
2018.340173
2013.378085
2007.499577
2005.778492
2014.540376
2016.730847
2008.594812
2005.398513
2008.103074
1999.98939
1997.821271
2082.266162
2252.809972
2488.151489
2711.646582
2716.206338
2610.974325
2548.188275
2477.869687
2278.827402
2053.477115
1718.335058
1480.80307
1475.192782
1600.921345
1738.98807
1859.441621
1962.885495
2020.061257
2057.813353
2076.141784
2082.087348
2090.379845
2104.237927
2118.475988
2130.16595
2133.406953
2140.15718
2145.476895
2146.728593
2155.624587
2171.963712
2188.861631
2195.097768
2197.623515
2215.080227
2235.710887
2246.417373
2251.960606
2268.500897
2291.143214
2306.47651
2321.385124
2346.95552
2375.543401
2398.677456
2420.604518
2452.589864
2481.691835
2512.649001
2539.851074
2567.902513
2606.146348
2636.969404
2662.80802
2688.42312
2716.899242
2749.130458
2762.206228
2763.25676
2768.241199
2769.559952
2757.713527
2734.04303
2713.010038
2691.060625
2660.37168
2608.158005
2553.910321
2506.591678
2453.841562
2400.64441
2355.248017
2318.345287
2278.53683
2230.257062
2195.164823
2174.154183
2159.446735
2137.787895
2116.911366
2103.522671
2100.102854
2095.856022
2093.486737
2089.731644
2089.753996
2084.657798
2077.192316
2083.674322
2095.677208
2091.899764
2083.584915
2085.417758
2093.576144
2097.018313
2095.118415
2090.871583
2090.245734
2092.994999
2086.08831
2079.248676
2085.417758
2089.865755
2079.785118
2068.92217
2071.045586
2070.598551
2061.970778
2053.074783
2051.577217
2049.051469
2043.396478
2033.919338
2034.858112
2037.249748
2029.784266
2019.614222
2017.490806
2021.581176
2024.777475
2015.836777
2008.639515
2011.38878
2009.153606
2003.476263
2002.179861
2006.449045
2005.10794
1997.03896
2001.039922
2011.165263
2008.550108
1992.143928
1976.609466
1975.178954
1996.122539
2006.717265
2003.856242
2019.122484
2043.351775
2052.583045
2049.722022
2055.712289
2046.838647
2021.268251
1990.735768
1983.136175
1984.209059
1985.661922
1977.257666
1968.674596
1976.4083
1983.449099
1973.97196
1962.080832
1965.634759
1974.307236
1971.736785
1964.8748
1967.333492
1962.371404
1958.772774
2021.357658
2181.686721
2421.744456
2690.524184
2805.054522
2707.936193
2611.600174
2481.602428
2238.571911
1966.79705
1686.930858
1466.31914
1437.977128
1520.589175
1639.254587
1754.813105
1873.9032
1956.068213
2003.364504
2029.024306
2039.686089
2040.98249
2046.771592
2066.99992
2079.695711
2078.242848
2081.86383
2098.51588
2107.367171
2107.076598
2111.345781
2130.389468
2144.560474
2150.416631
2160.698433
2180.122099
2195.991838
2203.8373
2217.069533
2239.600091
2261.638911
2280.146155
2298.005199
2318.926432
2349.548322
2367.139145
2386.4287
2421.118608
2462.067003
2496.801614
2522.573176
2554.223246
2593.718778
2624.407723
2640.478628
2661.243398
2687.66316
2702.01298
2699.733102
2708.964373
2715.044047
2710.685457
2693.42991
2664.149125
2638.265805
2602.45831
2553.284473
2496.734559
2453.640396
2412.289669
2358.511371
2299.81569
2253.257007
2223.082152
2185.844146
2149.611968
2122.767523
2105.444921
2086.401234
2064.42947
2056.449897
2058.238036
2055.153496
2045.564597
2040.915434
2041.138952
2046.615129
2041.206007
2035.975699
2043.821161
2047.956234
2045.654004
2047.509199
2050.459629
2055.153496
2055.175847
2050.616092
2055.08644
2061.859019
2054.393536
2048.135048
2048.962062
2048.559731
2044.491714
2034.120504
2030.700687
2035.796885
2035.282795
2025.805655
2019.346001
2022.40819
2021.491769
2009.421827
2002.381027
2000.481129
2001.442254
1994.468509
1984.924315
1982.957361
1987.226544
1986.712454
1980.945704
1983.136175
1982.085643
1977.257666
1978.755233
1984.186707
1980.051634
1969.926294
1951.284939
1943.461829
1964.181896
1976.832983
1982.510326
1992.792129
2009.46653
2029.516045
2031.907681
2020.798864
2013.69101
2000.861108
1973.502573
1958.459849
1957.163448
1962.57257
1957.476372
1944.422954
1945.071154
1953.006024
1953.028375
1947.641605
1950.614387
1954.74946
1957.31991
1952.335471
1945.562893
1938.47739
1929.536692
1961.343224
2087.250601
2297.558164
2558.24656
2729.349164
2694.636905
2641.350346
2570.629426
2397.157538
2116.33022
1831.948976
1521.952632
1415.088941
1471.862372
1590.907763
1711.830701
1822.740057
1911.498834
1965.187724
1995.6308
2010.695876
2018.518987
2021.424713
2032.891158
2047.062164
2051.644272
2054.43824
2065.189429
2082.1097
2088.167022
2092.033874
2101.511014
2117.60427
2126.477912
2132.803456
2147.4662
2165.772279
2179.608009
2184.771262
2198.383474
2224.043277
2243.601053
2253.100545
2273.306522
2304.42015
2334.326784
2360.388918
2386.585162
2420.604518
2455.003852
2482.585905
2514.705362
2550.624615
2579.972455
2603.665305
2623.044267
2641.953843
2659.164686
2665.825506
2662.584503
2665.132602
2668.284198
2651.118058
2627.760485
2602.391255
2566.695519
2524.495426
2468.213733
2416.000058
2370.961293
2325.877825
2272.25599
2224.244442
2186.805271
2159.089107
2126.455561
2090.916287
2073.705444
2064.697691
2046.503371
2028.331402
2025.269213
2023.034039
2014.875652
2006.605507
2009.667696
2017.66962
2016.797902
2009.33242
2007.879556
2013.132216
2017.289641
2017.401399
2016.77555
2019.278946
2023.257556
2020.731809
2023.324612
2037.070934
2042.52476
2038.344984
2033.494655
2034.880463
2036.847417
2030.052487
2022.318783
2023.637536
2025.380972
2018.787207
2008.192481
2009.041847
2012.41696
2006.717265
1993.57444
1987.315951
1990.311085
1986.801861
1973.301407
1968.898114
1970.64155
1970.507439
1965.321835
1960.404451
1963.690157
1963.109012
1963.198419
1962.19259
1963.176067
1959.644492
1943.618291
1926.295689
1932.71064
1950.435573
1960.583265
1970.798012
1985.930143
2007.007838
2018.451931
2009.444178
2000.36937
1990.601658
1967.758175
1945.071154
1933.023564
1936.577491
1944.467657
1937.560968
1932.285956
1934.029392
1936.17516
1934.677593
1931.727163
1934.051744
1936.085753
1930.810741
1921.735933
1921.423009
1917.198529
1914.002229
1992.345094
2156.585712
2379.678473
2583.504031
2622.887805
2620.697334
2634.86834
2607.733322
2403.639543
2133.675174
1733.266024
1442.067497
1430.712811
1556.843705
1691.557669
1809.954859
1906.44734
1953.408355
1980.230448
1999.274135
2005.689085
2004.482091
2014.003934
2027.817312
2035.662775
2040.736621
2049.163228
2060.763784
2069.458612
2074.800679
2082.042644
2097.733569
2111.725761
2116.151406
2124.846235
2142.012375
2161.145468
2169.214448
2176.746986
2195.321285
2220.511701
2241.164713
2260.141344
2287.790452
2316.08776
2341.591101
2361.484153
2388.015674
2426.103047
2457.820172
2480.462489
2510.346772
2543.89674
2569.981226
2587.661456
2607.599212
2632.588462
2647.765296
2647.988814
2644.077259
2643.317299
2636.768238
2615.243508
2586.454461
2559.833534
2524.450722
2474.271056
2417.363515
2369.441374
2326.324859
2277.419243
2228.983012
2190.761529
2160.854895
2129.987136
2100.57224
2079.829822
2068.139859
2052.270121
2035.014574
2022.877577
2022.654059
2023.257556
2017.334344
2012.886347
2016.552033
2016.820254
2010.181786
2004.884422
2014.540376
2023.95046
2018.6978
2014.830949
2021.692934
2030.410115
2033.651118
2028.644327
2030.320708
2038.076763
2039.104943
2031.930033
2028.085533
2033.494655
2035.662775
2029.180769
2026.878539
2029.694859
2024.33044
2016.149702
2011.277021
2010.382952
2009.377123
2005.443216
1995.273172
1994.759082
1999.788225
1995.787262
1988.992332
1989.685236
1991.339265
1984.857259
1973.435518
1970.999178
1975.201306
1971.222695
1962.125535
1961.633797
1969.322797
1970.954474
1963.958378
1956.80582
1960.247989
1963.667806
1954.101259
1947.865122
1954.592997
1957.990463
1953.184837
1948.446268
1949.675614
1953.140134
1948.490971
1941.986614
1944.422954
1954.280073
1953.631872
1944.422954
1931.771866
1933.090619
1938.723259
1948.647433
1968.562838
1996.234297
2013.020457
2019.100132
2023.637536
2025.22451
2020.798864
2005.465568
1981.906829
1966.037091
1966.305311
1960.605617
1953.85539
1955.375308
1959.331567
1956.179971
1947.395736
1945.764058
1953.095431
1953.095431
1944.534712
1941.606634
1947.641605
1948.200398
1933.515302
1923.61348
2002.515137
2167.292198
2379.477308
2556.413717
2588.35436
2578.36313
2598.144424
2618.819787
2479.657826
2222.635117
1797.214365
1440.681689
1440.257006
1596.786272
1744.4866
1857.988758
1945.071154
1994.267344
2011.90287
2015.61326
2017.893138
2029.292527
2037.093286
2040.960138
2048.067993
2063.378938
2072.811374
2076.09708
2080.902705
2094.492566
2108.238889
2117.60427
2122.722819
2134.613947
2152.115363
2163.872381
2171.94136
2189.174555
2211.5263
2224.244442
2235.599129
2255.22396
2282.090757
2303.816653
2322.055676
2346.642595
2376.929209
2405.807663
2427.466503
2454.556817
2493.650018
2531.782094
2555.832571
2577.938447
2608.716799
2636.075334
2655.87898
2664.372643
2675.950846
2685.763262
2683.706902
2673.089823
2663.746794
2648.659366
2619.62445
2581.17945
2539.404039
2497.785091
2452.567512
2399.146843
2349.816543
2308.152891
2267.316254
2223.506835
2188.436948
2163.067718
2141.788857
2119.638278
2101.153386
2091.877412
2088.211726
2078.354606
2069.81624
2068.966874
2072.833726
2071.582028
2066.083499
2064.273007
2072.364339
2073.437223
2068.117507
2071.045586
2079.874525
2082.042644
2075.180659
2074.375996
2080.209801
2081.081519
2074.331292
2068.072804
2070.933827
2078.667531
2068.743356
2056.87458
2058.081574
2062.484868
2054.885275
2049.342042
2054.259426
2055.153496
2049.409097
2037.182693
2033.204083
2037.13799
2035.72983
2023.972812
2015.590908
2018.787207
2014.808597
2005.554975
1998.31301
1999.542355
1998.96121
1992.859184
1987.986504
1987.762986
1989.752291
1983.002065
1976.453003
1981.14687
1985.930143
1979.291675
1970.77566
1973.368463
1979.649303
1977.101204
1972.340282
1973.860201
1980.364559
1981.638608
1972.228524
1965.701814
1973.301407
1976.497707
1971.200344
1967.735823
1973.368463
1976.944742
1973.07789
1968.384024
1972.273227
1978.241143
1975.89421
1970.440384
1970.932123
1977.570591
1973.524925
1970.194515
1969.814535
1976.721224
1980.945704
1971.133288
1967.355843
1967.758175
1964.137192
1959.890361
1972.966131
1997.776568
2018.384876
2026.342097
2034.880463
2051.085478
2051.130182
2035.372202
2020.284774
2008.795978
1992.859184
1978.732881
1971.356806
1972.228524
1973.837849
1964.293654
1954.391832
1954.235369
1962.639625
1963.868971
1956.962282
1954.950625
1961.790259
1959.286864
1951.620215
1945.27232
1942.07602
2007.67839
2153.858799
2364.166363
2571.858772
2593.696427
2526.998821
2520.58387
2574.272761
2483.010588
2252.13942
1858.122868
1484.625218
1445.196741
1585.543345
1733.757762
1859.441621
1955.688233
2001.330495
2013.82512
2026.453856
2039.306109
2045.72106
2047.509199
2054.639406
2071.894952
2082.266162
2080.634484
2084.03195
2099.365246
2115.123226
2120.599403
2126.589671
2139.441924
2152.852971
2158.172686
2164.878209
2184.681855
2204.194928
2214.834358
2225.026754
2246.88676
2277.12867
2299.033379
2315.104284
2337.746601
2369.039043
2397.202241
2423.040858
2448.05246
2480.663655
2515.241804
2541.706269
2565.712043
2597.786796
2634.845988
2653.509695
2669.290026
2688.579582
2709.098483
2713.233556
2711.914803
2710.506643
2705.477501
2685.495041
2656.460125
2626.642898
2597.853851
2555.564351
2496.443986
2441.659861
2396.978724
2351.939959
2303.213156
2260.409565
2233.453361
2207.16771
2174.62357
2144.38166
2128.422514
2118.654802
2104.461444
2090.022217
2085.171888
2088.099967
2086.6024
2082.668493
2084.009598
2088.032912
2088.032912
2086.334179
2086.915325
2092.391502
2095.297229
2094.492566
2094.000828
2095.364284
2089.821051
2078.466365
2079.494545
2086.714159
2084.121357
2072.967836
2065.569409
2064.496525
2064.988263
2059.579141
2056.584007
2060.003824
2060.361452
2050.683147
2041.273062
2041.541283
2043.217664
2036.646251
2029.337231
2026.722077
2028.443161
2025.582138
2016.060295
2008.997143
2014.026286
2014.249803
2002.269268
1998.8271
2010.070027
2013.042809
1999.385893
1991.518079
1994.870841
1996.927201
1994.490861
1991.965114
1991.585134
1991.965114
1986.645399
1973.659035
1975.871858
1981.169222
1982.17505
1981.14687
1981.057463
1987.092434
1983.694969
1973.815498
1970.842716
1977.771756
1984.052597
1978.732881
1974.642512
1976.609466
1980.655131
1978.33055
1972.675559
1974.083719
1975.313064
1969.769832
1961.387928
1967.780527
1977.615294
1973.681387
1967.087623
1967.154678
1966.640588
1959.040995
1959.376271
1978.978751
2009.019495
2031.862978
2030.924205
2034.120504
2045.072859
2041.764801
2024.598661
2011.366428
1998.715341
1987.986504
1980.878649
1968.071099
1965.835925
1968.428727
1963.913675
1957.498724
1956.783468
1961.119707
1957.766945
1950.748497
1949.988538
1961.6785
1957.521076
1946.591073
1936.778657
1973.748442
2098.180604
2280.660245
2530.195121
2718.843844
2658.628244
2551.988071
2481.177745
2379.901991
2173.371872
1922.33943
1581.229458
1433.573834
1491.107224
1611.918403
1722.336021
1844.153028
1947.149866
1991.361617
2006.225527
2020.597699
2037.674432
2049.900836
2056.271083
2071.246752
2082.1097
2090.558659
2087.809394
2088.435243
2102.181566
2116.866662
2122.454598
2130.300061
2147.84618
2170.309683
2178.780994
2177.417538
2192.795538
2212.062742
2225.49614
2240.538864
2263.874085
2287.969266
2310.902156
2327.978889
2347.46961
2373.442337
2405.204166
2429.768733
2454.378003
2491.37014
2527.915243
2554.111487
2581.961761
2619.825616
2652.280349
2672.709843
2682.365797
2695.083939
2708.003248
2708.003248
2699.219012
2699.286067
2700.962448
2679.370663
2639.405744
2603.665305
2568.930694
2521.120312
2460.189457
2416.581204
2375.521049
2325.229624
2270.624312
2228.066591
2200.417483
2170.667311
2136.938529
2113.849177
2107.925964
2091.273915
2073.481926
2060.763784
2054.326481
2058.975644
2054.81822
2044.82699
2046.905702
2054.013557
2050.258464
2046.391612
2045.788115
2055.824048
2058.126278
2047.620958
2047.106868
2056.87458
2063.043661
2062.618978
2058.841534
2059.646196
2058.394499
2053.745336
2049.409097
2053.16419
2055.511124
2046.279853
2039.149647
2038.568501
2036.6239
2030.499522
2019.949498
2014.518024
2014.361562
2010.762931
2000.279963
1997.664809
2002.202213
1999.520004
1990.847527
1986.824213
1990.914582
1991.406321
1983.136175
1977.883515
1984.253762
1983.58321
1974.575457
1967.892285
1971.960303
1979.403434
1970.619198
1960.449154
1962.840791
1968.585189
1967.378195
1963.399585
1965.143021
1968.875762
1966.28296
1956.984634
1954.347128
1960.717375
1963.131364
1955.799992
1952.849561
1957.69989
1958.72807
1950.815553
1951.41905
1963.153716
1963.824268
1951.687271
1940.109067
1937.248044
1943.551236
1950.90496
1960.046823
1984.857259
2014.696838
2022.02821
2021.692934
2022.631708
2024.866882
2009.108902
1984.879611
1965.634759
1963.757213
1964.226599
1953.765983
1947.552198
1949.161523
1950.122648
1947.261625
1942.165427
1949.362689
1953.229541
1951.061422
1947.082811
1950.122648
1953.050727
1939.036183
1930.40841
2003.968001
2168.499192
2394.318866
2634.801285
2707.690323
2640.702145
2570.607075
2473.04171
2267.852696
2038.322632
1726.761666
1457.177276
1424.186101
1535.76601
1657.784183
1764.22319
1876.920685
1957.610483
2001.844585
2016.932013
2026.789132
2041.295414
2049.029118
2053.499467
2055.198199
2066.262313
2080.70154
2085.663627
2088.994037
2100.527537
2118.744209
2134.122209
2142.414706
2151.131886
2165.906389
2179.384491
2186.581753
2199.903393
2223.260966
2244.517475
2256.296844
2267.338606
2288.706874
2313.025571
2331.376354
2354.823334
2392.351913
2430.193416
2453.618044
2478.987274
2516.180577
2555.541999
2588.644932
2610.817863
2638.936357
2666.965445
2684.690378
2694.078111
2707.824434
2719.402637
2721.749571
2711.758341
2699.308419
2686.277352
2662.897427
2618.305697
2570.495316
2525.903586
2479.613123
2425.723067
2371.385976
2326.45897
2290.58442
2248.04905
2205.960716
2174.981198
2153.411764
2130.612985
2106.227232
2090.938639
2085.551868
2075.940618
2062.663682
2058.215685
2061.74726
2061.501391
2051.554865
2048.872655
2056.36049
2063.490696
2062.954255
2057.656891
2061.255522
2065.748223
2065.301188
2060.853191
2061.769612
2067.692824
2068.698653
2065.055318
2068.698653
2075.784156
2073.928961
2066.955217
2063.803621
2063.66951
2062.082536
2054.393536
2048.850304
2049.252635
2046.123391
2036.534493
2030.007783
2032.600586
2035.483961
2029.784266
2020.86592
2020.441237
2019.07778
2011.411132
2005.599678
2004.21387
2010.025324
2006.717265
2000.794053
2002.425731
2007.767797
2005.890251
2000.190556
1996.837794
2000.391722
1999.877632
1993.239164
1991.808652
1999.4753
2002.716303
1995.966076
1990.959286
1994.848489
1998.625934
1994.937896
1989.886402
1993.663847
1996.770739
1988.545297
1981.169222
1981.526849
1988.612352
1992.970943
1986.310123
1986.824213
1997.865975
1995.697855
1983.046768
1975.424823
1973.346111
1970.909771
1969.61337
1988.366483
2023.704591
2043.374126
2047.26333
2053.722984
2061.367281
2060.629673
2046.637481
2027.459684
2007.119597
1997.955382
1988.657056
1979.403434
1981.906829
1987.025379
1982.733844
1972.496745
1972.742614
1980.230448
1982.68914
1978.911695
1974.933085
1977.481184
1978.956399
1968.540486
1953.520114
2005.48792
2151.333052
2349.324804
2569.087156
2644.792514
2600.625467
2578.094909
2594.679903
2492.152452
2288.952743
1940.220826
1548.84178
1446.560198
1563.70569
1707.628573
1822.583595
1928.396753
1995.429635
2024.486902
2035.103981
2040.22253
2056.293435
2066.10585
2071.336159
2079.069862
2091.184508
2100.773406
2101.019275
2105.780197
2117.447807
2131.44
2138.570206
2145.231026
2160.340805
2172.857782
2181.686721
2187.587582
2204.418445
2222.702172
2239.734201
2254.039318
2272.434804
2297.62522
2319.976964
2335.779647
2357.550246
2387.881564
2418.592861
2445.057326
2473.198172
2510.704399
2547.897702
2576.642046
2601.586592
2631.113247
2659.656424
2673.648617
2682.119928
2696.313285
2710.528995
2714.082922
2706.326867
2697.609687
2688.691341
2663.456221
2621.993735
2578.74311
2539.67226
2491.571306
2432.585053
2379.857287
2338.774781
2294.920658
2249.568969
2210.520471
2183.899544
2164.475878
2141.542988
2115.950241
2103.567374
2099.02997
2087.161194
2076.208839
2074.621865
2077.192316
2073.727795
2068.27397
2069.011577
2073.750147
2077.080557
2071.760842
2071.537324
2076.61117
2077.639351
2070.71031
2071.582028
2080.165098
2084.836612
2082.221458
2078.376958
2078.01933
2081.327388
2077.393481
2071.023234
2075.135955
2080.209801
2079.651008
2069.637426
2065.234132
2069.30215
2065.681167
2054.81822
2052.873618
2056.36049
2053.968853
2046.793943
2039.037888
2041.809504
2041.250711
2031.527702
2024.19633
2028.845492
2031.706516
2024.039867
2017.826082
2019.904795
2025.246862
2021.290603
2011.813463
2012.059332
2018.004896
2015.590908
2011.589946
2011.791111
2014.629783
2015.61326
2010.070027
2006.65021
2010.807635
2010.87469
2003.297449
2001.285792
2006.761969
2007.946611
2002.425731
1999.497652
2005.711437
2010.897042
2006.851376
2001.285792
2002.403379
2008.415998
2003.900946
1997.687161
2000.458777
2006.940783
2005.353809
2000.436425
2001.844585
2009.824158
2005.085588
1995.742559
1988.120614
1985.483108
1985.170184
1988.165318
2006.985486
2038.210873
2058.305092
2063.825973
2070.643255
2075.895915
2069.346853
2054.170019
2034.96987
2018.317821
2009.935917
2003.856242
1993.306219
1994.289696
1999.721169
1997.642457
1989.774643
1987.2936
1994.312047
1996.14489
1987.2936
1985.818384
1992.568611
1993.797957
1984.566687
1970.12746
2018.630745
2165.682872
2364.38988
2581.022987
2643.920796
2586.141537
2555.609054
2586.856793
2505.675257
2316.825368
1967.802878
1567.751356
1459.948893
1584.71633
1733.511893
1852.490229
1954.324776
2018.966021
2045.47519
2052.13601
2060.875542
2076.164135
2085.507165
2088.412891
2097.711217
2110.027028
2117.760732
2119.638278
2124.689773
2137.542026
2152.785915
2160.229046
2163.805325
2179.719768
2197.824681
2204.150224
2212.330963
2226.859597
2246.350318
2260.186048
2268.500897
2288.706874
2315.171339
2334.840874
2351.716441
2372.97295
2407.193471
2440.519922
2460.837658
2483.591733
2521.433237
2560.146458
2587.102662
2613.008334
2643.9655
2674.58739
2693.273448
2702.996457
2718.262698
2734.400658
2736.211149
2725.884643
2718.843844
2711.356009
2691.597067
2656.728346
2618.708029
2578.586647
2533.302013
2476.550934
2423.443189
2380.393729
2340.9429
2293.668961
2252.631158
2227.485445
2205.066646
2173.081299
2147.645014
2133.742229
2127.193168
2116.732552
2103.097988
2098.806453
2101.019275
2096.683037
2089.888107
2090.111624
2096.861851
2098.51588
2094.716083
2095.05136
2101.555717
2103.276801
2099.186432
2097.398293
2101.645124
2106.182528
2098.627639
2092.436205
2094.738435
2098.538232
2090.379845
2081.908534
2085.037778
2087.518822
2084.501336
2074.755976
2072.699615
2078.242848
2073.973665
2060.696728
2059.154458
2062.708385
2057.589836
2044.782286
2043.307071
2050.303167
2047.91153
2036.579196
2030.968908
2035.372202
2036.221568
2029.694859
2023.324612
2027.482036
2031.88533
2022.877577
2015.345039
2017.647268
2019.502463
2016.820254
2007.879556
2009.60064
2013.378085
2011.634649
2004.59385
2000.123501
2006.672562
2007.1643
2000.034094
1999.944687
2008.639515
2009.555937
2003.252745
1998.424768
2002.716303
2006.5161
2003.83389
1999.967039
2005.778492
2012.014629
2008.125425
2003.029228
2003.811539
2008.617164
2009.578289
2002.604544
2003.140986
2007.320763
2004.817367
1999.587059
1999.207079
2007.767797
2011.031152
2003.677428
1998.380065
1994.021475
1986.511288
1979.716358
1985.170184
2013.623954
2042.52476
2049.073821
2056.919283
2076.119432
2081.416795
2066.955217
2046.212798
2031.080667
2018.384876
2005.040885
1997.106015
1995.340228
1998.089492
1995.474338
1989.171146
1985.348998
1991.451024
1993.19446
1988.120614
1984.633742
1990.802823
1991.696893
1985.50546
1980.409262
1978.822288
2042.725926
2189.129852
2398.319828
2618.305697
2647.765296
2563.990958
2516.001763
2531.916205
2425.208977
2222.724524
1862.190886
1506.55228
1456.953759
1587.130319
1731.611995
1857.161743
1964.718338
2019.010725
2034.098152
2044.715231
2058.148629
2070.218571
2072.610208
2074.241885
2086.6024
2100.43813
2105.735493
2107.903613
2117.246642
2132.490532
2138.816075
2139.687793
2153.679985
2174.534163
2186.648808
2190.448605
2200.439835
2221.629288
2239.264815
2250.127763
2266.779812
2294.42892
2316.780665
2332.069258
2349.235397
2377.063319
2406.366456
2429.075829
2453.528637
2487.682103
2526.462379
2554.424412
2580.66536
2613.053037
2647.407669
2670.675834
2683.036349
2702.728236
2724.320021
2732.701925
2726.823417
2721.056667
2720.07319
2709.433759
2684.600971
2654.448468
2621.41259
2580.330083
2527.647022
2475.120422
2433.367364
2390.317904
2339.53474
2289.645647
2257.459135
2232.894568
2199.165785
2170.39909
2154.328186
2143.822866
2125.405029
2106.294287
2098.404121
2102.293325
2100.080502
2091.85506
2089.441072
2094.649028
2096.571278
2092.391502
2092.145633
2102.069807
2108.372999
2105.444921
2102.248621
2105.333162
2109.15531
2104.394389
2100.214613
2106.629563
2113.75977
2110.317601
2101.488662
2096.750092
2101.600421
2098.292362
2090.424548
2089.195202
2089.306961
2084.322522
2074.420699
2070.822069
2073.705444
2067.223438
2053.611225
2050.817257
2054.974682
2054.81822
2042.725926
2035.21574
2038.54615
2041.764801
2035.059277
2029.96308
2032.511179
2036.176865
2030.790094
2021.692934
2022.430542
2027.392629
2022.475245
2014.920356
2017.557862
2024.397495
2021.715286
2014.495673
2012.484016
2014.830949
2014.920356
2008.930088
2004.817367
2010.606469
2016.619088
2013.467492
2010.226489
2013.82512
2017.267289
2012.573423
2007.097245
2015.680315
2022.698763
2016.909661
2011.053504
2014.763893
2020.418885
2015.948536
2007.074893
2006.985486
2013.422789
2011.634649
2003.968001
2006.449045
2014.473321
2015.412094
2001.822233
1992.099225
1999.184728
2011.455835
2022.430542
2038.277929
2061.657853
2079.695711
2087.675284
2087.11649
2082.176755
2072.364339
2049.029118
2018.340173
2006.225527
2010.584117
2007.946611
1999.520004
1998.871803
2006.113768
2007.119597
1996.502518
1991.808652
1994.22264
1998.335361
1994.22264
1989.662884
1996.033132
1998.737693
1987.673579
2026.655022
2165.816982
2369.106098
2610.929622
2697.095596
2590.92481
2513.945402
2479.076681
2352.074069
2164.185305
1888.923572
1560.688205
1454.807991
1544.505542
1687.020265
1810.513653
1922.227671
1992.30039
2038.322632
2060.607321
2068.564542
2078.242848
2090.916287
2100.81811
2107.903613
2109.0212
2121.940508
2135.910348
2140.626566
2139.665441
2152.629453
2171.337863
2180.300913
2183.787785
2196.081244
2216.600146
2227.597204
2231.978146
2246.775001
2271.406623
2287.790452
2300.083911
2318.300583
2344.519179
2371.654197
2393.156575
2415.977706
2451.338166
2486.117481
2513.252498
2541.08042
2577.290246
2614.841177
2638.645785
2660.23757
2685.539745
2717.279222
2737.485199
2744.615405
2756.841809
2770.342263
2769.358786
2754.092545
2737.127571
2720.050838
2694.100463
2654.359061
2608.493281
2564.080365
2515.1971
2456.76964
2408.691038
2371.810659
2332.203368
2284.482394
2242.79639
2212.599184
2190.51566
2161.838372
2139.441924
2126.120284
2114.966764
2102.673304
2095.006656
2093.844365
2097.063017
2097.867679
2091.788005
2089.351665
2095.654857
2099.253487
2093.151461
2089.865755
2093.151461
2095.990133
2092.927944
2085.283647
2085.9542
2093.173813
2090.737473
2087.272952
2090.4469
2091.162156
2086.848269
2076.454708
2079.248676
2081.841479
2073.638388
2061.590798
2059.668548
2064.42947
2062.037833
2047.91153
2039.864902
2044.916397
2047.576254
2038.389687
2026.498559
2031.572405
2034.947519
2026.520911
2019.390705
2020.798864
2017.15553
2014.58508
2010.941745
2010.002972
2011.209966
2004.839719
1998.849451
2005.711437
2011.545242
2009.958268
2000.436425
1996.256649
2004.035056
2003.811539
1995.004951
1988.053559
1989.417015
1992.143928
1994.446158
1991.205155
1992.188632
1993.596791
1986.868916
1979.828117
1983.404396
1986.176012
1974.597809
1967.400547
1974.351939
1986.53364
2005.331457
2019.681277
2033.494655
2050.59374
2061.546095
2049.610263
2039.686089
2027.124408
2012.618126
1988.433538
1976.251838
1978.554067
1978.285847
1974.754271
1973.636684
1977.503535
1979.269323
1975.871858
1971.468564
1973.256704
1973.45787
1966.059442
1959.845657
1960.695024
1957.834
1979.023454
2084.367226
2277.083966
2538.867597
2776.488993
2774.432632
2652.883846
2533.279661
2350.04006
2071.60438
1826.159874
1554.429716
1430.779866
1462.117012
1567.281969
1690.149509
1808.859624
1911.767055
1966.528829
2003.476263
2026.207987
2034.165208
2040.021365
2050.526685
2067.178734
2078.354606
2079.338083
2085.663627
2101.041627
2108.820034
2112.932755
2123.460427
2140.201883
2152.920026
2154.752869
2161.234875
2179.87623
2198.875213
2212.241556
2222.970393
2240.807085
2267.271551
2283.767138
2296.060597
2320.356944
2352.677566
2376.191601
2394.229459
2424.314907
2463.139887
2497.583925
2526.350621
2556.436069
2594.657552
2628.319279
2647.698241
2667.0325
2693.541669
2709.18789
2709.143187
2708.226765
2714.999344
2716.541614
2702.929402
2676.464936
2650.492209
2616.897537
2572.506973
2519.287469
2470.068928
2424.359611
2371.453031
2320.222833
2279.632065
2245.724469
2209.291125
2169.996759
2140.380697
2125.025049
2113.446845
2094.313752
2078.756938
2072.431394
2067.51401
2059.914417
2052.51599
2055.511124
2061.61315
2059.512086
2054.997033
2060.428507
2069.480964
2069.257446
2063.088365
2062.663682
2069.235095
2068.005749
2062.417813
2067.089327
2073.727795
2075.381824
2068.184563
2064.317711
2067.938694
2066.418775
2056.584007
2050.370222
2054.05826
2054.281778
2042.927091
2035.908644
2036.869769
2036.176865
2026.856187
2019.167187
2021.648231
2025.269213
2021.536472
2011.455835
2004.347981
2009.60064
2007.790149
1996.591925
1996.703684
2004.459739
2004.638553
1995.362579
1987.830041
1990.624009
1991.763948
1988.590001
1987.003027
1989.394664
1992.568611
1988.746463
1985.483108
1990.534602
1996.65898
1992.009818
1981.504498
1982.890306
1988.612352
1986.555992
1984.0973
1985.12548
1986.891268
1977.704701
1962.259646
1958.102221
1970.976826
1989.104091
2009.868861
2024.665716
2045.698708
2058.66272
2053.499467
2045.005804
2039.082591
2026.587966
2000.950515
1980.185745
1974.575457
1977.101204
1972.630855
1966.305311
1967.400547
1972.5638
1973.524925
1968.942817
1967.936989
1972.94378
1968.7193
1962.818439
1958.72807
1956.202323
1952.223712
2011.746408
2168.767413
2392.486023
2625.637069
2680.48825
2616.763427
2582.34174
2550.937539
2374.336407
2138.36904
1798.220193
1484.267591
1429.863445
1543.633824
1687.243782
1815.85572
1925.423971
1980.543373
2010.002972
2030.678336
2042.703574
2045.47519
2051.24194
2066.888162
2081.126223
2083.607266
2088.90463
2099.678171
2112.262203
2116.397275
2121.716991
2137.34086
2152.942378
2159.044404
2165.079375
2180.90441
2199.47871
2209.335829
2217.784788
2235.040335
2258.308501
2275.094661
2290.651475
2315.797188
2346.732002
2370.447203
2388.753282
2413.474311
2448.119515
2481.937704
2507.217527
2535.268967
2572.171697
2602.123034
2626.195863
2644.166666
2664.193829
2682.321093
2692.312323
2694.502794
2699.330771
2698.391998
2683.215163
2659.902294
2637.349384
2607.845081
2564.281531
2513.163091
2467.252608
2426.01364
2378.583238
2326.995412
2284.370635
2252.564103
2219.327059
2180.90441
2150.863665
2130.836502
2115.190281
2095.990133
2080.299208
2078.846345
2077.684054
2065.569409
2058.819182
2063.133068
2069.30215
2065.994092
2061.859019
2066.441127
2072.207877
2068.542191
2066.10585
2065.994092
2070.19622
2071.939656
2067.201086
2063.781269
2068.229266
2070.084461
2064.317711
2061.032004
2069.413909
2072.587856
2066.128202
2060.249693
2058.260388
2058.930941
2053.588874
2044.044679
2043.93292
2047.553903
2041.273062
2029.605452
2027.504388
2031.907681
2029.694859
2019.368353
2014.070989
2016.77555
2014.830949
2008.795978
2002.626896
2007.052542
2006.65021
1998.111844
1992.747425
1998.469472
2004.102111
1999.631762
1994.133233
1994.110882
1999.520004
1995.429635
1986.757158
1990.087568
1994.759082
1992.345094
1987.606524
1991.629838
1995.966076
1994.9826
1985.550163
1982.867954
1988.567649
1994.043826
1991.026341
1984.99137
1983.96319
1981.683312
1969.859239
1964.070137
1980.63278
2007.790149
2023.324612
2030.499522
2045.296376
2058.752127
2053.745336
2039.328461
2030.030135
2014.786245
1993.976771
1980.722187
1980.878649
1986.086605
1983.046768
1975.089547
1974.86603
1981.705663
1984.186707
1976.944742
1969.076928
1976.050672
1979.246972
1972.228524
1964.718338
1955.889399
1975.313064
2077.147612
2253.413469
2500.042617
2656.951863
2614.349438
2542.332118
2537.392382
2485.111652
2301.22385
2015.501501
1619.875624
1415.848901
1483.351169
1637.913482
1776.896629
1905.597974
1991.965114
2024.241033
2037.361507
2054.684109
2065.412946
2065.234132
2069.480964
2083.495508
2094.961953
2099.767578
2100.371075
2113.715066
2127.819017
2134.122209
2136.200921
2145.54395
2161.480744
2170.980235
2176.322302
2187.207602
2209.291125
2224.46796
2235.263853
2248.920768
2271.741899
2297.491109
2312.48913
2331.957499
2359.673662
2389.379131
2412.088503
2435.781352
2471.208867
2507.955135
2533.234958
2559.967644
2589.159022
2622.57488
2643.630224
2658.605892
2677.649579
2699.733102
2709.813739
2706.729198
2703.823472
2701.744759
2691.462957
2664.797326
2631.940261
2601.407778
2563.722737
2511.21849
2459.809477
2419.129302
2372.011825
2320.491054
2274.938199
2240.963547
2215.102579
2185.307704
2155.266959
2134.792761
2123.594537
2108.574165
2089.977514
2083.450804
2085.9542
2086.535345
2080.947409
2076.521763
2081.372092
2087.49647
2083.383749
2085.462461
2093.486737
2097.197127
2090.715121
2085.261295
2089.150499
2095.408987
2092.771482
2087.898801
2092.123281
2094.961953
2091.430377
2081.72972
2079.852173
2083.473156
2080.567429
2072.163173
2065.502353
2068.765708
2068.519839
2058.305092
2050.146705
2052.940673
2053.700632
2042.770629
2032.310013
2034.276966
2035.953347
2028.443161
2017.826082
2018.608394
2023.212853
2022.207024
2016.663792
2017.088475
2019.189539
2015.501501
2009.511234
2009.354771
2012.126388
2009.064199
2003.364504
2000.302315
2002.246917
2004.035056
1997.754216
1997.485995
2001.866937
2000.972867
1996.770739
1996.256649
1999.408245
2001.419902
1995.653152
1992.792129
1997.888326
2003.655076
1997.620105
1988.925277
1998.380065
2004.236222
1999.877632
1987.830041
1978.554067
1981.683312
1989.014684
1999.743521
2022.944632
2048.336214
2060.629673
2068.095156
2070.956179
2067.89399
2058.41685
2036.579196
2010.025324
1998.469472
1999.385893
1990.847527
1983.382044
1981.906829
1986.891268
1985.706626
1981.370387
1981.638608
1986.623047
1984.387873
1975.201306
1972.876724
1978.822288
1981.862126
1965.701814
1979.649303
2095.364284
2280.97317
2517.789902
2659.745831
2606.012238
2533.033792
2517.231109
2447.873646
2269.417318
1997.03896
1607.358647
1402.661372
1475.505707
1642.875569
1784.585629
1903.385151
1984.969018
2026.655022
2044.335251
2048.358565
2056.405193
2071.157345
2077.304074
2079.829822
2087.362359
2105.221403
2114.318563
2117.850139
2123.37102
2139.330165
2153.61293
2160.541971
2166.308721
2179.920933
2198.405826
2209.827567
2216.77896
2236.649661
2256.989748
2268.67971
2281.308446
2301.357961
2327.509502
2349.816543
2372.59297
2396.375227
2426.281861
2454.757983
2480.797765
2508.893908
2545.394307
2580.575953
2609.342648
2632.56611
2662.785669
2688.601934
2703.130567
2713.658239
2727.963356
2736.725239
2727.628079
2712.652411
2703.04116
2690.926515
2660.997529
2618.886843
2579.324255
2540.208702
2492.755949
2440.072887
2392.329561
2349.637729
2310.052789
2266.288074
2228.088943
2204.709018
2182.96077
2156.965692
2138.816075
2131.887034
2125.136808
2109.468235
2100.214613
2102.159214
2103.679133
2099.566412
2091.251563
2096.437168
2106.473101
2106.920136
2101.108682
2099.186432
2104.372037
2104.461444
2100.169909
2099.655819
2103.947354
2101.823938
2095.163118
2089.105796
2089.865755
2093.486737
2091.497432
2085.998903
2081.126223
2079.360435
2072.654912
2065.345891
2062.104888
2064.56358
2059.713252
2053.499467
2049.297339
2046.168094
2042.971795
2037.294452
2037.65208
2040.803676
2038.613205
2027.325574
2020.821216
2020.977678
2020.86592
2019.97185
2017.110827
2019.994202
2020.552995
2016.820254
2010.517062
2012.372257
2020.888271
2016.26146
2001.285792
1999.005914
2005.420864
2007.343114
2002.649248
2008.617164
2014.987411
2010.047675
2006.314934
2008.013667
2012.618126
2011.701704
2003.252745
2000.123501
2002.649248
2004.996181
2000.905812
1995.697855
1999.788225
1995.295524
1985.326646
1983.292637
1997.93303
2019.882443
2030.857149
2037.562673
2055.33231
2074.621865
2068.653949
2050.07965
2036.489789
2021.759989
2007.432521
1998.469472
1993.328571
1991.562783
1987.114786
1975.491878
1972.407338
1978.174088
1979.73871
1971.066233
1965.366538
1974.150774
1979.001102
1977.235315
1974.530753
1967.82523
1976.698873
2065.167077
2229.966489
2465.106841
2701.185966
2707.869137
2570.987054
2483.971713
2401.382017
2202.272678
1975.581285
1659.885247
1455.590302
1463.614579
1571.215876
1688.763701
1814.738132
1934.767
1998.044789
2028.957251
2051.040775
2065.390595
2067.491659
2071.023234
2080.768595
2096.571278
2102.986229
2101.108682
2107.367171
2119.928851
2127.595499
2134.166912
2148.293215
2167.560419
2182.290218
2190.180384
2203.569079
2222.568062
2238.258986
2245.232731
2258.330853
2277.687463
2300.307429
2318.814673
2339.110057
2369.553133
2396.93402
2422.951451
2447.091335
2477.735576
2514.146568
2548.63531
2574.742147
2602.815938
2638.265805
2669.155916
2687.618457
2705.633963
2725.705829
2732.210187
2733.506588
2736.211149
2736.054687
2726.242271
2703.510547
2673.738023
2643.205541
2606.571031
2559.297092
2503.820062
2458.669538
2413.966049
2365.28395
2314.791359
2274.334702
2237.7896
2201.289201
2167.694529
2150.617796
2141.878264
2130.925909
2111.703409
2100.549889
2102.270973
2097.24183
2087.183545
2086.736511
2093.39733
2094.492566
2093.77731
2091.139804
2091.206859
2095.18547
2092.413854
2088.457595
2098.582935
2103.880299
2096.168947
2087.854098
2089.262258
2096.191299
2093.6432
2084.009598
2084.188412
2088.815223
2078.689883
2068.899819
2066.083499
2065.435298
2062.931903
2051.733679
2043.172961
2047.509199
2050.303167
2043.709403
2033.382897
2034.925167
2039.216702
2030.901853
2022.184673
2022.631708
2023.861053
2020.597699
2013.914527
2009.08655
2011.277021
2011.835815
2002.358675
2000.279963
2011.25467
2014.093341
2000.861108
1991.7863
1996.815443
2000.212908
1994.9826
1991.696893
1996.52487
2001.933992
1991.339265
1983.20323
1988.567649
1994.803786
1993.06035
1985.058425
1980.163393
1976.430652
1970.462736
1970.373329
1986.287771
2016.306164
2034.992222
2041.138952
2048.582083
2061.657853
2051.197237
2031.460647
2014.495673
2004.035056
1991.1381
1978.84464
1973.502573
1975.558934
1980.476317
1978.71053
1971.245047
1971.043881
1975.111899
1973.904905
1968.875762
1973.033187
1975.022492
1970.350977
1961.611445
1953.296596
2005.085588
2148.583788
2352.208179
2612.136616
2809.994258
2755.768926
2630.353288
2502.76953
2308.108188
2034.545187
1774.706158
1506.149948
1434.445552
1497.097492
1605.615211
1715.809311
1841.180246
1946.322852
1997.307181
2021.916452
2041.1166
2059.355624
2064.988263
2068.072804
2077.12526
2088.077615
2092.190336
2094.760787
2102.338028
2115.525557
2130.702392
2141.475933
2150.215465
2164.453526
2174.936494
2181.686721
2189.286314
2205.670143
2224.244442
2236.090867
2250.083059
2273.172411
2300.843871
2319.909909
2338.618319
2363.473459
2394.296514
2418.816378
2442.844503
2480.417786
2522.617879
2552.837438
2575.747976
2604.559374
2635.449485
2660.729308
2678.007207
2689.563059
2703.644658
2716.988649
2713.658239
2704.739893
2701.49889
2690.032445
2665.289064
2628.162817
2591.573011
2555.005557
2508.312763
2449.97471
2398.744511
2357.192619
2311.371542
2263.270588
2227.038411
2200.350428
2171.851953
2140.80538
2119.884148
2106.629563
2096.124243
2084.613095
2076.074728
2076.722929
2079.226324
2074.621865
2067.290493
2069.43626
2072.699615
2072.811374
2071.537324
2076.700577
2084.277819
2083.294342
2076.119432
2079.382787
2085.082482
2085.171888
2076.946447
2073.772499
2081.595609
2082.087348
2075.851211
2070.978531
2072.76667
2071.2244
2060.741432
2056.025214
2060.249693
2060.853191
2051.979548
2043.329423
2044.044679
2044.402307
2040.066068
2030.790094
2028.465513
2026.878539
2024.263385
2016.596737
2013.154568
2017.334344
2013.333382
2005.845547
2002.537489
2008.505405
2008.080722
2000.212908
1998.380065
2000.481129
1998.268306
1991.65219
1989.372312
1998.06714
2002.313972
1995.563745
1990.065216
1992.903887
1996.614277
1990.311085
1984.186707
1989.573477
1996.703684
1995.697855
1979.895172
1966.528829
1969.814535
1979.649303
1990.936934
2016.50733
2042.547112
2056.315786
2056.181676
2052.314824
2053.722984
2049.431449
2027.482036
1999.631762
1993.485033
1996.435463
1989.72994
1982.644437
1985.12548
1990.802823
1985.326646
1978.263495
1979.761062
1984.343169
1982.130347
1972.228524
1971.893248
1978.934047
1974.798974
1956.984634
2002.403379
2154.439945
2369.50843
2604.492319
2692.804062
2647.631186
2619.043305
2595.953953
2451.584035
2222.92569
1894.355046
1537.509446
1438.357107
1545.041984
1690.954172
1809.70899
1921.557119
1994.133233
2030.968908
2045.251673
2049.006766
2059.489734
2074.666569
2081.528554
2086.289476
2090.983342
2107.143653
2119.325354
2121.716991
2124.555662
2138.614909
2152.987081
2158.150334
2161.056061
2175.607047
2193.399035
2203.300858
2211.973335
2231.352297
2252.608806
2265.930446
2280.235562
2302.430845
2329.968194
2356.365604
2379.723177
2405.874718
2437.837713
2466.515001
2492.26421
2522.595527
2556.950159
2589.606057
2611.823691
2633.147256
2659.969349
2686.992608
2700.47071
2707.533861
2715.7146
2723.425951
2714.351143
2697.676742
2683.125756
2664.663215
2631.493226
2584.845136
2538.77819
2497.338056
2449.930006
2397.939849
2350.107116
2314.254917
2278.849754
2236.604957
2204.083169
2185.955904
2167.135735
2145.074564
2123.907462
2114.564432
2111.792816
2099.499357
2091.989171
2094.961953
2100.192261
2097.063017
2092.88324
2096.347761
2104.997886
2105.757845
2101.935697
2107.501281
2115.346744
2115.078523
2108.395351
2105.400217
2112.016334
2115.749075
2112.016334
2108.775331
2113.089217
2114.743246
2107.210709
2101.220441
2103.232098
2105.579031
2098.426473
2090.938639
2093.620848
2096.951258
2090.469252
2079.360435
2075.180659
2077.684054
2072.721967
2066.798755
2061.322577
2063.714214
2061.479039
2050.683147
2047.688013
2053.141839
2050.973719
2041.094248
2037.205045
2042.658871
2046.23515
2037.562673
2032.935862
2037.383859
2040.669565
2034.679298
2027.772609
2030.946556
2038.032059
2038.657908
2031.840626
2031.460647
2037.339155
2036.400382
2028.085533
2022.78817
2025.671545
2031.594757
2031.997088
2028.085533
2027.996126
2022.989335
2011.299373
2009.33242
2027.370277
2054.840571
2072.587856
2080.768595
2093.352627
2105.511976
2097.755921
2080.522726
2067.51401
2056.4946
2039.641385
2025.649193
2022.251728
2030.186597
2028.510216
2018.340173
2017.423751
2022.050562
2020.642402
2014.383914
2013.199271
2018.921318
2018.720152
2013.132216
2008.684219
2005.845547
2009.511234
2088.167022
2250.641853
2484.865783
2687.327884
2680.398843
2613.678886
2603.330028
2596.490395
2429.567567
2168.320378
1775.667283
1489.274381
1502.126634
1645.244854
1789.972399
1921.043029
2019.189539
2060.249693
2076.678226
2093.039703
2103.656781
2106.741322
2112.619831
2125.717953
2139.084296
2144.269901
2145.365136
2157.368023
2173.640093
2179.853878
2184.704207
2199.165785
2212.107445
2221.13755
2225.093809
2238.929539
2259.470792
2277.061615
2286.22583
2298.407531
2320.468702
2342.596929
2358.600778
2379.812584
2410.881509
2439.335279
2459.742422
2483.479975
2516.046466
2552.032775
2580.28538
2605.386389
2636.41061
2668.619474
2693.340503
2709.299649
2729.885606
2750.538617
2758.741708
2757.646472
2753.310234
2751.767963
2740.748553
2714.597012
2687.551402
2659.254093
2618.328049
2569.131859
2519.488635
2473.444041
2429.142884
2377.823279
2325.296679
2292.216097
2263.874085
2231.687573
2204.418445
2187.833451
2174.914142
2158.150334
2141.855912
2136.245625
2137.966709
2132.267014
2124.354497
2127.148465
2136.223273
2137.944357
2132.714049
2130.210654
2135.865645
2141.05125
2140.358346
2136.357383
2140.358346
2146.05804
2142.168837
2134.055154
2138.592558
2145.163971
2138.994889
2132.825808
2131.149427
2132.848159
2129.361287
2122.029915
2121.806398
2124.220386
2118.006601
2108.775331
2101.108682
2103.165043
2104.036761
2096.347761
2091.698598
2092.525612
2091.85506
2085.037778
2077.12526
2078.734586
2078.980455
2068.139859
2058.305092
2060.227342
2066.910513
2064.250656
2056.293435
2057.187504
2063.803621
2062.238999
2052.538342
2052.471286
2056.069917
2051.979548
2045.922225
2045.899873
2050.280815
2050.236112
2043.351775
2041.720097
2046.279853
2047.062164
2043.55294
2039.417868
2040.401344
2047.106868
2044.268196
2038.903777
2041.295414
2044.44701
2037.674432
2029.694859
2037.294452
2043.865865
2041.474228
2027.549091
2020.240071
2026.364449
2034.724001
2047.77742
2070.151516
2089.910458
2103.008581
2110.697581
2106.808377
2099.678171
2091.788005
2068.631598
2038.523798
2032.108847
2033.382897
2024.442199
2018.407228
2021.827045
2027.28087
2024.375144
2018.228414
2022.654059
2027.817312
2023.034039
2018.071952
2015.501501
2019.055428
2022.363487
2008.795978
2029.5831
2150.483686
2342.842799
2582.878182
2707.712675
2652.012128
2589.047264
2584.621618
2512.313725
2331.421057
2040.066068
1642.272072
1461.178239
1545.176094
1707.405055
1845.158857
1957.923407
2032.846455
2074.420699
2090.044569
2091.139804
2097.532403
2115.078523
2123.214558
2125.963822
2134.636299
2149.030822
2159.178514
2160.296102
2165.593465
2180.055044
2195.209526
2202.965582
2209.715809
2223.350373
2239.510684
2251.513571
2259.135516
2272.993597
2295.680618
2313.226737
2323.486188
2341.389935
2370.000168
2391.994285
2408.668686
2431.445114
2462.961073
2494.499385
2520.136836
2547.338909
2585.15806
2618.97625
2641.462104
2667.054852
2697.341466
2722.218957
2731.293765
2738.111048
2751.924426
2764.173182
2762.206228
2749.018699
2732.992498
2715.647544
2686.433814
2641.126828
2597.250354
2558.671243
2512.693705
2456.970806
2408.713389
2371.989473
2333.723287
2289.064501
2251.960606
2229.519454
2208.933498
2181.507907
2161.16782
2152.562398
2147.913235
2136.469142
2121.337011
2120.487645
2123.259261
2121.404066
2117.268994
2119.861796
2126.746133
2129.875377
2125.114456
2125.94147
2131.887034
2133.272843
2126.790837
2120.085313
2125.025049
2128.10959
2123.460427
2121.44877
2127.170816
2129.227177
2120.04061
2114.78795
2116.509034
2115.68202
2108.171834
2099.946392
2100.348723
2104.819072
2098.51588
2088.681112
2086.200069
2091.922115
2087.161194
2075.985322
2070.933827
2072.744319
2071.134993
2065.100022
2061.09906
2062.440164
2064.228304
2057.612188
2048.582083
2050.59374
2056.405193
2052.158362
2044.223493
2045.184618
2050.258464
2049.386746
2042.52476
2041.697746
2048.492676
2046.726888
2040.356641
2036.489789
2040.021365
2041.183655
2036.37803
2034.142856
2036.288623
2036.288623
2031.862978
2028.17494
2031.192426
2032.868806
2027.236167
2025.000992
2028.666679
2033.159379
2030.47717
2025.828007
2027.66085
2033.382897
2030.678336
2023.81635
2026.230338
2028.532568
2023.168149
2008.974792
2002.135158
2009.891213
2019.949498
2031.572405
2053.857095
2079.472194
2094.000828
2099.767578
2097.755921
2096.794796
2086.356531
2059.087403
2029.225472
2015.590908
2015.725018
2011.165263
2007.052542
2011.187614
2010.472359
2008.639515
2003.297449
2004.59385
2012.305202
2013.780417
2004.929126
2004.660905
2010.137082
2011.992277
1998.670637
2007.588983
2112.441017
2291.545545
2517.722847
2709.031428
2667.457183
2555.385537
2504.602373
2445.437306
2271.428975
2056.025214
1709.997858
1489.788471
1508.98862
1641.199188
1767.754765
1881.145165
1987.986504
2051.934844
2081.550906
2090.491604
2099.968743
2111.926927
2116.620793
2114.519729
2118.833616
2133.451657
2148.427325
2149.880189
2154.238779
2167.046328
2180.7703
2188.347541
2196.304762
2219.662335
2237.968414
2241.879969
2245.880931
2261.683614
2283.141289
2297.960496
2309.404589
2329.096476
2361.998244
2384.037064
2401.829052
2430.908672
2463.318701
2490.677236
2516.98524
2545.059031
2580.240676
2614.550604
2639.942186
2663.098593
2694.860422
2725.97405
2744.324832
2754.047841
2769.358786
2778.008911
2772.152754
2763.279112
2755.456001
2744.660109
2718.687382
2677.604875
2635.427133
2597.228002
2551.362223
2492.018341
2436.429553
2396.688151
2358.086688
2307.907022
2269.05969
2242.818742
2217.516567
2187.744044
2163.201828
2149.880189
2142.615872
2130.925909
2120.889976
2123.236909
2126.589671
2119.191244
2108.372999
2110.697581
2120.264127
2118.878319
2114.609136
2114.430322
2122.253433
2126.902595
2122.409895
2119.861796
2130.389468
2131.216482
2122.946337
2118.967726
2119.638278
2120.845273
2116.441979
2107.590688
2107.814206
2106.473101
2099.298191
2089.977514
2089.93281
2092.413854
2085.842441
2077.974627
2069.458612
2069.995054
2066.217609
2056.852228
2059.020347
2063.825973
2055.555827
2048.582083
2043.307071
2040.155475
2039.261405
2033.829931
2030.298356
2040.714269
2044.648176
2042.703574
2034.522836
2030.47717
2032.578234
2029.404286
2018.0496
2018.966021
2024.553958
2021.782341
2016.440274
2017.289641
2024.956289
2030.007783
2024.889234
2018.18371
2024.665716
2027.392629
2020.418885
2015.367391
2020.754161
2018.742504
2010.941745
2007.007838
2017.066123
2022.251728
2013.892175
2007.521928
2012.238146
2021.737638
2017.647268
2006.583155
2003.029228
2000.458777
2003.588021
2014.473321
2033.718173
2055.667586
2070.822069
2075.404176
2083.383749
2087.183545
2075.247714
2052.337176
2028.823141
2018.630745
2015.255632
2003.386856
1997.508347
2003.878594
2009.175957
2000.50348
1993.261515
2000.257611
2008.617164
2003.856242
1997.284829
1997.463643
2000.458777
1997.374236
1986.332475
1992.769777
2091.162156
2265.617521
2498.79092
2756.931216
2824.165264
2716.653373
2603.128863
2457.104916
2212.777998
1969.926294
1676.693759
1484.848736
1491.621314
1596.830976
1704.476977
1813.620545
1938.320927
2016.462626
2047.442144
2057.992167
2072.990188
2089.128147
2097.10772
2101.086331
2110.496415
2126.634374
2138.011412
2140.447753
2143.599348
2157.792706
2170.890828
2177.618704
2187.140547
2202.295029
2215.303745
2222.210434
2231.195835
2246.551483
2265.885742
2282.38133
2293.780719
2315.126635
2345.972043
2370.715424
2388.21684
2413.496663
2446.532541
2474.651036
2499.8191
2530.865673
2570.80824
2604.134691
2625.480607
2648.681718
2678.342483
2705.812777
2721.794274
2735.741763
2753.019661
2760.641606
2753.980786
2741.933196
2732.612518
2719.223823
2692.714655
2655.11902
2615.735247
2571.232923
2522.863748
2472.549972
2428.673497
2384.864078
2340.920549
2291.523193
2252.519399
2225.406733
2200.462186
2174.869439
2155.870456
2145.298081
2135.686831
2119.52652
2108.998848
2110.04938
2111.032857
2104.28263
2098.761749
2100.192261
2104.886127
2105.914307
2099.633467
2101.3322
2110.317601
2111.479892
2107.501281
2107.858909
2118.900671
2124.220386
2117.961898
2115.145578
2118.096008
2118.63245
2110.719932
2103.522671
2106.763674
2109.781159
2106.875432
2098.560583
2100.05815
2100.773406
2091.653894
2082.154403
2077.482888
2074.800679
2067.581066
2058.081574
2055.98051
2057.366318
2055.712289
2046.726888
2043.329423
2047.285682
2049.297339
2041.608339
2040.244882
2043.374126
2044.156437
2038.479094
2035.148684
2037.048583
2041.183655
2037.361507
2033.4276
2033.405248
2039.529626
2034.031097
2024.419847
2023.324612
2031.12537
2030.812446
2024.263385
2022.631708
2027.683202
2027.347926
2017.15553
2017.781379
2023.43637
2026.498559
2018.094303
2014.473321
2020.083609
2024.263385
2017.870786
2011.545242
2016.172053
2023.995164
2021.961155
2017.043771
2020.508292
2025.984469
2020.173016
2011.701704
2014.674486
2021.111789
2014.987411
2003.051579
1998.290658
2002.895117
2008.393646
2023.749295
2051.286644
2076.745281
2086.624752
2088.748168
2087.474118
2084.970723
2075.135955
2054.95233
2035.707478
2030.588929
2030.276004
2022.475245
2014.450969
2015.09917
2018.988373
2013.914527
2008.706571
2011.746408
2022.698763
2022.430542
2014.2051
2015.881481
2025.291565
2024.665716
2001.196385
2039.440219
2180.166802
2379.991398
2612.695409
2702.90705
2654.850799
2629.861549
2636.142389
2530.485693
2322.390952
2000.391722
1614.377095
1484.625218
1589.566659
1739.211588
1860.134525
1965.880628
2036.825065
2075.381824
2088.502298
2091.005694
2098.270011
2111.83752
2124.756828
2127.21552
2134.569244
2148.092049
2158.284445
2160.78784
2166.487535
2182.111404
2195.76832
2202.585602
2207.927669
2218.83532
2228.960661
2232.961623
2239.980071
2257.973225
2278.693292
2294.94301
2308.845795
2329.252938
2357.21497
2381.712482
2398.744511
2425.276032
2459.228332
2490.520774
2514.884176
2540.499275
2574.675092
2608.940316
2631.225006
2656.683642
2689.96539
2716.832187
2728.097466
2733.841864
2746.023565
2754.114897
2745.330661
2731.651393
2721.257832
2703.398788
2674.497983
2635.293023
2595.52927
2556.011385
2506.256402
2447.560721
2400.175023
2363.004072
2322.390952
2279.073272
2243.824571
2219.438817
2199.054026
2174.981198
2152.227122
2140.648918
2134.792761
2121.873453
2111.59165
2112.575127
2116.978421
2110.988153
2105.064941
2107.277764
2112.105741
2113.826825
2110.027028
2111.993982
2121.895805
2124.890938
2121.716991
2121.158197
2124.957994
2126.477912
2119.01243
2115.883185
2121.202901
2125.829712
2120.889976
2112.552775
2113.826825
2117.268994
2112.217499
2105.355514
2106.58486
2107.210709
2098.694694
2087.407063
2087.272952
2089.888107
2081.640313
2072.006711
2070.129164
2072.990188
2069.235095
2062.306054
2057.500429
2062.887199
2061.680205
2052.381879
2046.592778
2049.297339
2048.649138
2043.463533
2039.239054
2038.121466
2039.730792
2036.959176
2031.415943
2034.031097
2042.167132
2040.021365
2031.840626
2032.310013
2037.629728
2037.182693
2031.237129
2029.851321
2033.472304
2031.035963
2024.665716
2024.308088
2031.818274
2035.483961
2029.180769
2023.30226
2023.682239
2027.504388
2022.765818
2020.441237
2027.66085
2034.32167
2029.024306
2024.106923
2025.783303
2031.930033
2028.219644
2019.390705
2021.38001
2027.459684
2027.012649
2021.558824
2020.86592
2028.443161
2029.5831
2020.798864
2017.759027
2029.337231
2034.522836
2024.889234
2014.048638
2010.338248
2013.601603
2018.116655
2031.594757
2055.153496
2076.119432
2086.803566
2095.18547
2101.354551
2099.365246
2085.216592
2063.557752
2042.211836
2037.942652
2034.165208
2021.357658
2015.09917
2019.278946
2020.083609
2012.305202
2008.795978
2014.540376
2021.581176
2019.569519
2013.869824
2017.66962
2020.35183
2014.629783
2001.39755
2024.308088
2149.142581
2333.611528
2562.649854
2683.617495
2634.935395
2581.157098
2593.852889
2556.614883
2394.207107
2104.617906
1691.401206
1479.976056
1556.821353
1711.629535
1837.00047
1951.106125
2034.545187
2074.018368
2086.356531
2091.184508
2100.102854
2111.681057
2117.693677
2123.214558
2132.222311
2144.806343
2152.182418
2154.64111
2165.52641
2181.530259
2186.939381
2189.912163
2200.529242
2216.711905
2229.675916
2235.085039
2244.472771
2265.036376
2283.901248
2294.563031
2310.276307
2331.152836
2353.392822
2372.615322
2392.664837
2423.733762
2459.183628
2480.998931
2504.267097
2537.839417
2574.295112
2605.699313
2628.140465
2660.349329
2696.648562
2720.363762
2731.919614
2741.888492
2756.819458
2764.173182
2758.160562
2751.432687
2744.615405
2728.320983
2697.162652
2663.366814
2626.240567
2580.710063
2532.519702
2478.316722
2433.032087
2393.4695
2350.911778
2302.4979
2269.730242
2244.562178
2215.460207
2185.151241
2170.667311
2165.749927
2153.23295
2135.351555
2128.266052
2129.361287
2128.422514
2120.398238
2118.654802
2123.773351
2127.528444
2124.153331
2121.716991
2126.924947
2130.233005
2127.081409
2122.521653
2126.366154
2132.289366
2128.355459
2123.192206
2124.354497
2129.65186
2129.13777
2123.326316
2122.074619
2124.53331
2121.649935
2113.089217
2109.401179
2112.396313
2112.396313
2103.097988
2095.744264
2097.666514
2099.633467
2092.324447
2081.416795
2079.360435
2079.516897
2071.134993
2062.216647
2061.434336
2065.122374
2061.23317
2054.795868
2054.170019
2058.215685
2055.041737
2050.034946
2050.59374
2055.511124
2054.929978
2047.77742
2041.295414
2041.585987
2044.871693
2039.909606
2036.981527
2041.183655
2042.591815
2035.282795
2029.426638
2032.645289
2035.260443
2028.465513
2023.861053
2027.236167
2031.728867
2029.806617
2023.704591
2022.139969
2024.308088
2021.804693
2016.596737
2017.446103
2024.688068
2025.850359
2020.217719
2016.976716
2023.659888
2026.856187
2019.614222
2015.210928
2019.748332
2024.039867
2022.072914
2014.495673
2017.915489
2025.783303
2026.990298
2023.212853
2025.380972
2030.678336
2028.107885
2021.245899
2022.989335
2030.499522
2035.014574
2028.331402
2023.749295
2028.68903
2025.380972
2013.758065
2013.132216
2030.164245
2050.839609
2067.625769
2079.360435
2094.492566
2106.517804
2095.766615
2077.88522
2065.368243
2048.917359
2028.912548
2021.178844
2019.636574
2018.787207
2013.802768
2006.627858
2009.287716
2014.696838
2013.668658
2006.985486
2003.118635
2005.10794
2005.934954
1999.050617
1997.463643
1995.653152
2015.143873
2114.743246
2285.041187
2523.847225
2674.989721
2603.486491
2514.526548
2520.516815
2508.178652
2362.914665
2110.988153
1725.53232
1499.176204
1535.989527
1670.725843
1797.683751
1921.244195
2010.248841
2043.821161
2060.070879
2076.99115
2089.172851
2093.039703
2094.649028
2108.238889
2119.370058
2121.158197
2128.020183
2143.398183
2156.697471
2165.548762
2171.516677
2183.698378
2200.238669
2210.185195
2215.415503
2226.926652
2246.685594
2264.097603
2273.41828
2290.472661
2318.25588
2338.12658
2349.704784
2369.307264
2397.805738
2425.767771
2446.465486
2473.04171
2511.509062
2548.992938
2575.211534
2602.503014
2638.221102
2673.290989
2696.693265
2716.318097
2739.653318
2763.033243
2774.65615
2777.763042
2780.244086
2784.446214
2776.511344
2751.969129
2723.53771
2695.843899
2659.187038
2610.90727
2551.988071
2504.669428
2461.64232
2407.886375
2355.896217
2319.708743
2293.110167
2258.397908
2221.070495
2197.489404
2183.474861
2165.101727
2142.258244
2133.786933
2138.033764
2134.345726
2124.890938
2116.956069
2120.219424
2122.164026
2117.358401
2114.497377
2119.794741
2118.63245
2110.652877
2107.590688
2112.038685
2120.979383
2121.784046
2118.76656
2124.734476
2126.880244
2121.113494
2117.268994
2113.849177
2113.983287
2111.166967
2099.521708
2096.347761
2100.549889
2101.019275
2095.56545
2089.03874
2086.200069
2083.13788
2073.839554
2067.134031
2072.207877
2074.107775
2065.45765
2061.859019
2065.524705
2064.094193
2053.767688
2047.688013
2048.246807
2048.559731
2044.156437
2037.428562
2038.009708
2046.74924
2048.470324
2036.445086
2029.292527
2028.890196
2028.68903
2028.979603
2031.326536
2038.81437
2034.478132
2027.437333
2027.504388
2032.466475
2029.784266
2023.749295
2019.725981
2026.096228
2031.661812
2026.923242
2020.418885
2022.78817
2024.576309
2023.257556
2014.607431
2011.120559
2019.346001
2017.714324
2016.12735
2022.765818
2029.851321
2030.208949
2020.016553
2018.630745
2018.898966
2019.45776
2015.635611
2016.015591
2023.414019
2027.035001
2020.217719
2018.42958
2017.557862
2017.379048
2015.725018
2011.478187
2011.679353
2014.070989
2009.712399
2000.123501
2004.72796
2025.939766
2041.787153
2048.67149
2058.193333
2080.813298
2095.341932
2087.87645
2072.63256
2067.111679
2041.518932
2016.216757
2008.348943
2009.511234
2011.075856
2005.152643
1996.837794
2000.034094
2002.336324
1999.676466
1993.686198
1998.156547
2002.559841
1998.692989
1988.45589
1987.673579
1988.478242
2033.002917
2163.581808
2370.603665
2643.138485
2815.425732
2734.221844
2614.23768
2513.27485
2350.576502
2109.647049
1860.626264
1572.691092
1482.59121
1545.89135
1658.924122
1776.628408
1893.885659
1982.935009
2024.688068
2055.622882
2076.61117
2085.440109
2090.469252
2101.309848
2112.172796
2120.644107
2123.907462
2130.54593
2144.51577
2155.959863
2157.211561
2163.157125
2178.98216
2193.220221
2198.048198
2209.402884
2228.44657
2246.931463
2263.002367
2271.071347
2287.611638
2312.019743
2329.655269
2344.072145
2367.988511
2402.231384
2428.293518
2449.348861
2476.595637
2512.269022
2543.740278
2569.109508
2601.363075
2640.992718
2673.849782
2692.647599
2712.741818
2737.306385
2754.427821
2757.735879
2759.367556
2764.351996
2763.323815
2750.583321
2728.052763
2704.44932
2679.057739
2633.0802
2579.815993
2528.675202
2484.463451
2435.490779
2381.265447
2337.791304
2303.816653
2267.986806
2233.475713
2205.468977
2180.256209
2160.810192
2141.118305
2126.030877
2120.68881
2119.079485
2108.820034
2104.014409
2108.685924
2111.83752
2103.835595
2094.358455
2097.890031
2105.623735
2109.982325
2107.255412
2112.955107
2122.454598
2124.600366
2117.425456
2112.977459
2120.822921
2121.113494
2110.675229
2104.573203
2112.888052
2119.079485
2113.111569
2104.819072
2105.243755
2109.937621
2103.075636
2095.029008
2098.940563
2100.527537
2090.893935
2079.740415
2079.80747
2083.942543
2079.673359
2067.402252
2065.435298
2068.765708
2068.184563
2060.629673
2056.785173
2059.646196
2055.33231
2045.162266
2040.4684
2048.693842
2049.587911
2037.741487
2032.377068
2041.742449
2044.916397
2036.601548
2031.192426
2037.003879
2041.831856
2036.020402
2027.727905
2030.365411
2036.065106
2034.83576
2024.553958
2024.375144
2030.410115
2031.572405
2025.246862
2025.7386
2029.627804
2026.230338
2022.139969
2022.452894
2028.532568
2030.968908
2025.425676
2022.855225
2028.353754
2034.232263
2027.683202
2021.402362
2029.471341
2037.205045
2029.225472
2014.383914
2008.460702
2010.762931
2015.188577
2025.448027
2050.392574
2080.858002
2095.297229
2096.571278
2101.309848
2102.427435
2090.603362
2072.230228
2050.07965
2036.266272
2029.5831
2018.206062
2009.33242
2010.673524
2014.875652
2009.511234
2003.498614
2005.376161
2011.366428
2010.87469
2003.140986
2000.861108
2006.940783
2003.766835
1989.461719
2033.695821
2178.445718
2382.405386
2623.379543
2741.754382
2678.342483
2618.998601
2571.411737
2433.501474
2216.77896
1929.89432
1580.603609
1459.27834
1548.059469
1689.098977
1802.444673
1913.510491
1999.452949
2042.927091
2060.987301
2070.598551
2082.556734
2095.967781
2101.913345
2100.996924
2109.758807
2126.679078
2136.31268
2139.620738
2147.645014
2159.871418
2170.443794
2175.450584
2183.027826
2201.199794
2216.421332
2220.891681
2229.966489
2251.021832
2271.808955
2284.035359
2296.686446
2320.82633
2348.542493
2368.502601
2383.254753
2405.204166
2442.375117
2475.589809
2500.288487
2529.323403
2567.254313
2601.407778
2628.833369
2653.912026
2688.333713
2712.89828
2725.817588
2739.563911
2752.550274
2758.697004
2751.879722
2736.680536
2726.309326
2710.752512
2679.281256
2635.717706
2594.031703
2552.926845
2502.501309
2446.040803
2399.88445
2362.713499
2319.351115
2276.391062
2242.617576
2217.784788
2193.063759
2165.481706
2142.995851
2133.205787
2124.26509
2107.657743
2094.090235
2097.644162
2100.773406
2096.034836
2090.491604
2095.297229
2101.063979
2097.286534
2092.056226
2094.045531
2101.958049
2104.304982
2097.174775
2099.946392
2106.473101
2107.411874
2102.270973
2102.986229
2107.568336
2105.847252
2097.554755
2092.503261
2098.113549
2099.298191
2091.542136
2082.869659
2085.820089
2089.128147
2081.752072
2073.101946
2072.163173
2074.241885
2068.117507
2060.71908
2061.523743
2063.758917
2056.338138
2048.090344
2047.106868
2049.409097
2048.112696
2042.368298
2039.976661
2041.988318
2042.725926
2039.149647
2036.534493
2043.128257
2045.698708
2038.389687
2031.527702
2035.148684
2040.133123
2036.266272
2030.678336
2029.314879
2033.852283
2033.651118
2027.236167
2025.023344
2029.761914
2030.901853
2025.60449
2024.173978
2028.68903
2030.633632
2025.269213
2024.598661
2028.443161
2028.443161
2023.414019
2023.369315
2029.739562
2033.651118
2029.784266
2023.43637
2025.425676
2026.543263
2020.955327
2014.763893
2019.837739
2028.487865
2027.213815
2020.731809
2024.173978
2029.44899
2027.437333
2017.379048
2009.421827
2010.271193
2014.160396
2025.693896
2051.353699
2081.305037
2093.218516
2097.554755
2099.02997
2094.581973
2086.311827
2072.140821
2045.542246
2030.119542
2028.55492
2021.670582
2011.634649
2009.444178
2015.948536
2015.389742
2006.896079
2007.723094
2011.455835
2009.354771
2002.917469
2002.090454
2007.611335
2009.131254
1994.915544
2029.516045
2165.749927
2367.116793
2599.418473
2677.381358
2601.988924
2548.009461
2557.620711
2465.8668
2286.248182
1993.57444
1612.320735
1458.183105
1556.441373
1717.932727
1846.902293
1953.47541
2024.464551
2060.540266
2076.700577
2079.159269
2086.624752
2101.198089
2116.7102
2118.274822
2118.945374
2132.937566
2144.962805
2147.756773
2151.735383
2164.811154
2181.619666
2188.59341
2193.913125
2206.586564
2222.456303
2235.062687
2242.259949
2258.889646
2282.247219
2298.005199
2309.404589
2327.330688
2354.823334
2381.623075
2397.358703
2419.598689
2451.360518
2479.300198
2505.831719
2536.364202
2572.998711
2609.856738
2634.242491
2656.616587
2691.172384
2721.48135
2735.093562
2745.285957
2758.719356
2768.956455
2767.168315
2751.320928
2736.702888
2728.231576
2704.8293
2664.551457
2622.016087
2581.604133
2532.452647
2476.327416
2424.717239
2380.706654
2341.054659
2297.111129
2256.877989
2231.508759
2206.318343
2178.825698
2161.391337
2150.103706
2142.168837
2127.751962
2115.905537
2115.68202
2120.197072
2117.939546
2112.977459
2116.173758
2120.286479
2122.566357
2117.693677
2115.883185
2124.890938
2125.896767
2122.320488
2121.985212
2127.617851
2130.478875
2128.266052
2128.780142
2133.831636
2134.479837
2129.13777
2121.091142
2120.286479
2124.198034
2119.079485
2110.161139
2108.305944
2110.138787
2104.684961
2096.012485
2094.067883
2097.577107
2093.620848
2080.433319
2073.996016
2075.292417
2073.593685
2064.384766
2059.020347
2063.602455
2063.758917
2057.500429
2053.231246
2056.069917
2057.343967
2051.62192
2046.391612
2047.598606
2049.789077
2046.145743
2037.674432
2037.808542
2044.894045
2042.949443
2036.154513
2038.210873
2043.977623
2043.195312
2038.724964
2035.886292
2041.451876
2043.977623
2038.54615
2036.735658
2038.859074
2041.027193
2031.415943
2026.587966
2030.745391
2036.310975
2032.131199
2026.230338
2029.627804
2033.025269
2030.901853
2025.202158
2026.163283
2030.365411
2030.052487
2026.275042
2020.932975
2024.084571
2019.725981
2008.259536
2007.656039
2024.933937
2046.257501
2067.268141
2080.254505
2096.750092
2109.244717
2101.086331
2085.06013
2073.928961
2060.294397
2037.026231
2025.068048
2024.308088
2026.744428
2023.101094
2013.109864
2014.696838
2022.899928
2021.648231
2014.652135
2013.981582
2018.317821
2018.630745
2012.327553
2010.695876
2014.249803
2015.456798
2080.030987
2233.319251
2465.509172
2694.949829
2698.660219
2593.74113
2542.801504
2529.613975
2381.600723
2164.095898
1817.040362
1506.373466
1476.086852
1605.950487
1757.495315
1894.01977
1998.424768
2044.9611
2068.631598
2087.183545
2099.566412
2102.896822
2107.680095
2117.313697
2127.260223
2132.669345
2135.776238
2147.84618
2161.994834
2167.493363
2172.120174
2182.558439
2197.779977
2207.145358
2211.414541
2223.57389
2242.908149
2257.816763
2268.299731
2280.883763
2302.274382
2322.547415
2333.879749
2355.650348
2387.680398
2414.74836
2436.094276
2460.636492
2494.074702
2526.283565
2550.982243
2577.357301
2614.640011
2650.827485
2679.504774
2700.09073
2724.364725
2747.856408
2756.394774
2755.076022
2759.836943
2763.815554
2755.70187
2734.780638
2712.227727
2691.462957
2656.974215
2602.972401
2549.28351
2506.435216
2458.580131
2404.287744
2357.818467
2321.452179
2287.164603
2247.847885
2213.537957
2195.187175
2181.217334
2157.904465
2137.698488
2130.590633
2128.377811
2120.420589
2109.0212
2106.20488
2109.870566
2109.468235
2104.707313
2105.847252
2112.038685
2118.163063
2113.960935
2113.223328
2120.241776
2119.973555
2110.988153
2105.109645
2112.955107
2116.397275
2108.529461
2100.594592
2108.238889
2113.737418
2110.138787
2100.236964
2100.080502
2103.008581
2096.504223
2088.144671
2083.182583
2081.930886
2080.634484
2072.431394
2071.246752
2077.684054
2074.487755
2059.154458
2049.900836
2052.068955
2055.220551
2049.766725
2045.542246
2050.772554
2053.834743
2051.264292
2045.564597
2043.597644
2045.832818
2043.55294
2037.13799
2038.81437
2046.23515
2044.804638
2035.528664
2036.221568
2041.653042
2039.239054
2031.639461
2028.666679
2037.316804
2036.646251
2024.777475
2021.089437
2027.839664
2028.219644
2023.168149
2019.97185
2026.230338
2035.841588
2032.131199
2022.587004
2022.184673
2021.916452
2018.6978
2014.518024
2013.467492
2023.726943
2028.107885
2022.184673
2017.177882
2015.277984
2008.103074
2006.940783
2024.486902
2051.085478
2072.76667
2076.946447
2080.522726
2095.990133
2097.577107
2080.32156
2058.886237
2044.290548
2036.132161
2027.325574
2015.389742
2013.869824
2017.02142
2015.948536
2007.387818
2004.146815
2016.552033
2018.764856
2010.450007
2007.566632
2011.679353
2011.344077
2009.891213
2002.179861
2021.692934
2128.176645
2303.347266
2545.68488
2755.210132
2708.338524
2578.519592
2507.195176
2429.99225
2238.773076
2010.248841
1670.05529
1475.528058
1510.285021
1634.784238
1758.836419
1885.526107
1998.670637
2047.665661
2063.490696
2078.309903
2093.956124
2104.304982
2109.691752
2117.581918
2132.937566
2142.168837
2143.6217
2143.867569
2154.395241
2171.717843
2179.742119
2189.040445
2201.490367
2213.135625
2218.32123
2225.339678
2241.231768
2260.253103
2276.055786
2286.896382
2304.598964
2332.002203
2359.964235
2380.125508
2401.67259
2437.658899
2465.956207
2487.615047
2518.639269
2564.058013
2598.904383
2626.374677
2654.917855
2685.875021
2718.732085
2737.351088
2751.432687
2771.437499
2787.754272
2796.359694
2795.622086
2790.369426
2782.054577
2762.854429
2734.892396
2702.974105
2665.266712
2615.310563
2558.291263
2504.468263
2456.479067
2406.880546
2356.387956
2312.757351
2280.280266
2249.591321
2215.303745
2186.872326
2173.394224
2157.32332
2137.385564
2119.325354
2115.480854
2124.734476
2125.650898
2117.246642
2116.352572
2121.560528
2120.107665
2113.156273
2110.04938
2120.509996
2122.745171
2115.525557
2120.666459
2129.026011
2135.664479
2130.769447
2123.37102
2129.562453
2127.796665
2119.303002
2115.883185
2118.520691
2124.667421
2112.284555
2099.40995
2097.912383
2101.3322
2093.509089
2084.948371
2083.406101
2078.801641
2071.582028
2061.635502
2056.204028
2061.859019
2060.607321
2051.264292
2046.145743
2047.710365
2043.150609
2036.333327
2032.779399
2040.08842
2044.178789
2040.647214
2029.873673
2027.303222
2030.320708
2030.47717
2025.112751
2029.828969
2036.020402
2028.241995
2020.86592
2019.748332
2023.168149
2024.397495
2016.50733
2013.802768
2016.999068
2015.61326
2009.690047
2011.567594
2016.619088
2013.199271
2008.013667
2000.525832
1997.195422
2004.303277
2013.869824
2026.051524
2044.3129
2065.770574
2076.09708
2080.925057
2083.495508
2078.39931
2063.781269
2042.52476
2023.704591
2018.42958
2010.114731
2001.531661
1999.743521
2004.638553
2008.728922
2000.794053
1994.915544
1997.284829
1997.93303
1990.914582
1989.394664
1995.474338
2000.011742
1988.947629
1983.292637
2061.993129
2236.873178
2470.180687
2737.865178
2852.328462
2753.936083
2636.187093
2479.948399
2233.632175
1976.721224
1701.95123
1481.540678
1456.596131
1552.149838
1673.296293
1781.299923
1896.277296
1986.779509
2033.695821
2053.16419
2064.317711
2077.907572
2090.513955
2093.732607
2094.626676
2108.171834
2126.477912
2132.043497
2132.021145
2139.106648
2159.89377
2172.500154
2173.953017
2184.033654
2207.502986
2222.232785
2228.066591
2237.454323
2258.464963
2278.626237
2289.399778
2303.548432
2331.957499
2357.259674
2375.386938
2398.096311
2425.588957
2457.060213
2486.676274
2519.287469
2556.748993
2593.204688
2622.641936
2648.413497
2676.196715
2709.232594
2732.768981
2742.402582
2754.494876
2767.660054
2770.029339
2759.903998
2748.951644
2737.596957
2715.066399
2674.632093
2629.638032
2587.750863
2540.163999
2481.893001
2426.930061
2382.092462
2342.172246
2296.73115
2255.000443
2222.344544
2199.657524
2172.053119
2147.197979
2129.718915
2121.269956
2113.603307
2104.79672
2100.102854
2102.673304
2102.807415
2093.889069
2089.575182
2096.414816
2100.393426
2096.660685
2091.72095
2096.459519
2100.415778
2099.745226
2096.772444
2102.159214
2109.267069
2113.402142
2102.963877
2100.102854
2106.629563
2103.612078
2096.191299
2094.649028
2095.900726
2095.18547
2090.581011
2087.250601
2091.095101
2089.150499
2079.248676
2070.620903
2070.084461
2071.537324
2063.088365
2055.779345
2057.343967
2061.367281
2055.265254
2046.928054
2047.598606
2054.013557
2046.74924
2035.930995
2035.841588
2040.60251
2038.568501
2030.119542
2028.17494
2032.53353
2032.757048
2027.414981
2023.95046
2028.621975
2031.304184
2024.531606
2021.067085
2027.102056
2031.661812
2027.616147
2023.615184
2025.448027
2026.587966
2023.793998
2017.736675
2019.860091
2025.60449
2026.677373
2019.927146
2016.932013
2015.054466
2006.359638
1997.307181
2005.934954
2035.774533
2061.479039
2071.000883
2077.974627
2090.156328
2090.983342
2076.61117
2062.060185
2049.18558
2035.148684
2023.391667
2016.50733
2015.881481
2016.552033
2009.533585
2003.923297
2007.365466
2013.154568
2012.640478
2006.158472
2002.738655
2011.76876
2013.735713
2005.890251
1994.379103
1995.250821
2075.292417
2234.660355
2454.825038
2685.584448
2722.151902
2645.530122
2600.290191
2569.333025
2395.257639
2156.898636
1796.499109
1502.506614
1480.534849
1604.899955
1737.57991
1858.480496
1973.569628
2029.940728
2048.403269
2063.960083
2083.607266
2089.753996
2088.636409
2098.493528
2114.475025
2122.901633
2128.489569
2135.172741
2148.024994
2160.430212
2165.816982
2171.606084
2185.106538
2199.746931
2207.234765
2219.461169
2235.86735
2252.675861
2263.80703
2270.065519
2286.717568
2313.047923
2336.696069
2352.968139
2377.219782
2405.226517
2432.80857
2455.093259
2484.172879
2521.790865
2556.905455
2582.095871
2606.571031
2642.222064
2675.324997
2692.871117
2708.047951
2732.657222
2749.80101
2750.82919
2744.03426
2743.408411
2737.50755
2717.525091
2684.757434
2649.553436
2616.696372
2569.735357
2514.973583
2463.341053
2419.598689
2375.655159
2326.83895
2285.398815
2255.112202
2223.797408
2194.203698
2171.628436
2158.977349
2151.847142
2137.519674
2121.627584
2116.419627
2118.274822
2112.172796
2105.288459
2107.344819
2112.150444
2110.04938
2105.869604
2108.440054
2117.246642
2118.028953
2114.206805
2115.68202
2124.980345
2124.53331
2118.744209
2119.14654
2123.862758
2123.907462
2118.565395
2116.285517
2118.878319
2120.755866
2112.329258
2106.629563
2107.590688
2108.752979
2102.718008
2091.273915
2090.603362
2092.950296
2089.172851
2080.790947
2075.270066
2073.772499
2071.783194
2063.714214
2057.746298
2061.724909
2062.306054
2056.114621
2049.163228
2050.325519
2051.398403
2042.860036
2036.75801
2037.897949
2038.926129
2033.651118
2028.756085
2032.131199
2037.719135
2034.433429
2026.386801
2022.564652
2030.678336
2031.281833
2023.212853
2022.40819
2029.091362
2030.47717
2022.095266
2019.413056
2026.610318
2031.751219
2024.442199
2021.491769
2026.699725
2033.360545
2026.878539
2019.860091
2019.278946
2015.680315
2008.684219
2007.611335
2026.610318
2061.322577
2075.113603
2080.053339
2094.045531
2098.51588
2088.412891
2068.698653
2052.091307
2039.619033
2027.057353
2017.379048
2012.372257
2015.61326
2017.244937
2011.38878
2006.896079
2011.589946
2015.23328
2010.829986
2003.520966
2005.398513
2011.075856
2004.102111
1993.909716
1983.71732
2007.41017
2118.855967
2297.222888
2542.153304
2697.252059
2651.006299
2579.972455
2575.949141
2524.651888
2342.663985
2052.203065
1648.128229
1444.012099
1513.436617
1666.121383
1803.115225
1929.13436
2017.893138
2050.347871
2066.86581
2084.099005
2096.481871
2102.561546
2106.562508
2116.307869
2128.601328
2137.407915
2140.827732
2148.807305
2164.49823
2171.337863
2171.539029
2183.094881
2202.339733
2217.941251
2224.46796
2230.055896
2249.524265
2268.16562
2277.821574
2292.149042
2314.456083
2337.567787
2355.449182
2371.698901
2398.163366
2431.579224
2458.982463
2480.484841
2515.107693
2553.038603
2583.548735
2608.761502
2641.171532
2677.15784
2704.248155
2719.424989
2736.926405
2758.38408
2768.107089
2765.156658
2758.182914
2756.819458
2744.615405
2717.882719
2687.506698
2653.487343
2616.763427
2565.063842
2508.379818
2462.40228
2417.721142
2367.496773
2318.01001
2282.604847
2255.849809
2224.579719
2193.510794
2172.634265
2160.474916
2148.270863
2133.49636
2122.253433
2118.654802
2118.610098
2112.508072
2103.925002
2110.42936
2114.966764
2110.474063
2105.713142
2110.988153
2115.078523
2111.32343
2106.406046
2108.462406
2112.664534
2111.435188
2107.702447
2107.836557
2113.826825
2113.89388
2104.774368
2103.746188
2108.842386
2108.842386
2101.84629
2098.247659
2103.008581
2100.885165
2091.586839
2083.607266
2083.674322
2083.607266
2073.303112
2065.234132
2067.066975
2070.33033
2063.736566
2054.840571
2054.840571
2056.338138
2054.684109
2047.956234
2046.503371
2050.370222
2046.078687
2037.026231
2037.294452
2044.156437
2047.240978
2037.473266
2033.360545
2038.993184
2043.619996
2037.115638
2031.997088
2038.30028
2038.568501
2033.651118
2027.124408
2029.828969
2033.919338
2032.801751
2026.811484
2027.414981
2035.171036
2035.707478
2027.593795
2029.851321
2037.495618
2038.054411
2032.824103
2031.751219
2038.613205
2040.423696
2033.718173
2027.616147
2034.96987
2041.764801
2033.025269
2024.084571
2026.073876
2022.542301
2016.887309
2021.983507
2043.061202
2070.933827
2085.57422
2091.273915
2103.925002
2112.373961
2103.187395
2081.439147
2060.897894
2047.531551
2037.383859
2026.230338
2021.022382
2026.789132
2030.566577
2025.068048
2015.568556
2013.936879
2018.451931
2016.954364
2013.936879
2018.809559
2025.850359
2019.144835
2009.690047
2004.415036
2019.703629
2114.564432
2278.02274
2514.370086
2704.359913
2651.006299
2539.314632
2519.131007
2504.088283
2356.142087
2125.919119
1749.605149
1497.030437
1518.622222
1653.693814
1787.513708
1925.871006
2025.403324
2062.64133
2076.968798
2093.039703
2102.606249
2109.602345
2113.178624
2122.208729
2136.178569
2145.990985
2150.059003
2158.664424
2172.500154
2181.105576
2185.575925
2194.695436
2211.794521
2227.172521
2236.850826
2244.20455
2263.047071
2281.017873
2290.986751
2301.782644
2322.703877
2344.116848
2360.724194
2380.416081
2407.037009
2440.229349
2464.145716
2485.961018
2519.868615
2559.431202
2590.656589
2616.182282
2647.005337
2682.723425
2712.473597
2733.081905
2753.734917
2777.919504
2793.945705
2793.610429
2793.610429
2793.208098
2780.55701
2756.953568
2726.666954
2701.610649
2665.713747
2609.812034
2551.943368
2505.71996
2461.731727
2410.25566
2363.451107
2320.602813
2284.95178
2247.825533
2209.514643
2190.113329
2180.39032
2163.023014
2145.856875
2134.971575
2131.887034
2129.584805
2121.225252
2115.324392
2122.34284
2126.634374
2124.890938
2123.996869
2132.311718
2136.200921
2132.691697
2125.919119
2129.830674
2139.978366
2137.765543
2131.998793
2137.877302
2142.034726
2140.112476
2131.998793
2125.561491
2127.528444
2124.220386
2113.826825
2108.574165
2114.027991
2111.211671
2100.348723
2095.766615
2098.985267
2102.136863
2090.916287
2077.616999
2081.103871
2080.410967
2073.079595
2071.60438
2073.414871
2072.76667
2067.402252
2051.867789
2047.464496
2048.626786
2052.739507
2049.230283
2051.152533
2056.584007
2051.308996
2036.89212
2030.633632
2031.818274
2029.560748
2030.544225
2028.68903
2034.992222
2043.172961
2038.076763
2025.917414
2022.095266
2028.890196
2028.063181
2022.095266
2020.86592
2025.380972
2029.940728
2020.575347
2018.742504
2028.398458
2030.410115
2023.458722
2017.446103
2020.575347
2023.682239
2019.211891
2012.79694
2011.545242
2014.607431
2010.628821
2013.31103
2038.903777
2063.803621
2067.849287
2071.649083
2092.615019
2102.047456
2088.01056
2066.508182
2045.810467
2033.919338
2029.359583
2021.156492
2018.496635
2016.060295
2015.859129
2008.460702
1998.983562
2004.772664
2008.393646
2001.352847
1996.90485
2000.794053
2009.60064
2005.174995
1991.294562
1995.899021
2077.996979
2241.701155
2470.270094
2738.245158
2851.724965
2734.780638
2607.085122
2479.747233
2262.041242
2020.150664
1746.811181
1512.408437
1488.670884
1575.418004
1681.365273
1792.118167
1915.857424
1998.424768
2035.483961
2057.276911
2078.153441
2094.604325
2098.493528
2099.365246
2112.329258
2127.461389
2129.160122
2125.919119
2137.899654
2154.864628
2164.140602
2169.795593
2183.608971
2201.222146
2210.855748
2212.018038
2225.205568
2241.008251
2255.872161
2268.076213
2285.398815
2310.075141
2333.343307
2350.151819
2367.58618
2400.309134
2433.970861
2461.955245
2490.118443
2524.785998
2560.995824
2590.723645
2616.919889
2649.240512
2683.192811
2708.562041
2719.469693
2737.328736
2753.757269
2758.853466
2757.288844
2753.109068
2749.242216
2739.139228
2706.349219
2663.791497
2628.5875
2590.835403
2539.985185
2483.591733
2436.943643
2390.831994
2336.919586
2288.170432
2251.848847
2221.584585
2188.369893
2155.892808
2136.759715
2127.751962
2116.754903
2096.325409
2088.032912
2087.228249
2083.406101
2078.958104
2078.9134
2083.048473
2083.160231
2078.309903
2079.181621
2088.122319
2093.196165
2089.642237
2086.356531
2091.631543
2100.259316
2097.353589
2091.609191
2092.436205
2094.604325
2090.938639
2085.440109
2083.540211
2087.11649
2083.562563
2072.721967
2068.966874
2073.303112
2069.793888
2060.137935
2054.505295
2056.785173
2058.908589
2049.453801
2042.301243
2043.754106
2047.576254
2041.898911
2033.829931
2038.188522
2038.68026
2030.454818
2023.838702
2024.866882
2025.716248
2020.508292
2013.601603
2014.138045
2018.94367
2015.769722
2007.588983
2006.918431
2009.421827
2007.879556
2003.029228
2004.59385
2010.137082
2011.567594
2005.599678
2002.828062
2005.331457
2009.08655
2004.124463
1999.050617
2001.39755
2004.817367
2003.252745
2000.50348
2001.77753
2005.62203
2002.649248
1995.11671
1995.943725
2002.649248
2001.106978
1986.53364
1977.43648
1983.784376
1995.720207
2011.478187
2033.271138
2056.986339
2065.59176
2068.318673
2065.480002
2061.769612
2054.237074
2035.372202
2008.125425
1998.737693
2000.145853
1992.702722
1982.823251
1983.225582
1987.494765
1987.539469
1980.006931
1978.107033
1987.539469
1988.679408
1979.604599
1977.727053
1983.940838
1979.828117
1968.249913
2030.790094
2197.198832
2421.78916
2669.066509
2750.739783
2680.957637
2622.57488
2551.026946
2352.454049
2114.318563
1802.712894
1500.249088
1437.485389
1547.075992
1685.343884
1800.701237
1909.218956
1979.917524
2018.474283
2037.78619
2045.899873
2052.851266
2064.831801
2078.242848
2086.334179
2093.620848
2106.473101
2120.711162
2122.387543
2126.857892
2141.900616
2159.938474
2167.560419
2170.823773
2184.659503
2203.122044
2212.55448
2219.528224
2235.442666
2256.877989
2275.228772
2288.706874
2306.431807
2335.444371
2362.177058
2382.114814
2403.505433
2436.317794
2468.213733
2494.477033
2519.734504
2556.614883
2593.450557
2619.467988
2643.138485
2672.687491
2698.213184
2710.97603
2716.3628
2724.476483
2734.288899
2724.43178
2703.823472
2688.356064
2673.805079
2638.824599
2592.780005
2550.714022
2504.378856
2454.087431
2399.973857
2352.4764
2314.366676
2277.061615
2232.805161
2196.774149
2173.058948
2159.446735
2137.050287
2114.609136
2109.870566
2107.501281
2097.219479
2084.03195
2083.406101
2085.931848
2083.65197
2077.035854
2078.77929
2083.607266
2082.333217
2078.086385
2079.114566
2087.340008
2091.877412
2087.071787
2083.897839
2090.82688
2098.024142
2097.532403
2096.72774
2103.142691
2104.461444
2096.951258
2088.547002
2090.133976
2094.626676
2089.262258
2081.126223
2080.343912
2083.003769
2079.472194
2068.855115
2066.686996
2068.452784
2066.508182
2054.773516
2045.139914
2047.129219
2043.865865
2034.70165
2029.940728
2033.718173
2037.406211
2029.538397
2019.97185
2020.776513
2023.525777
2019.323649
2012.148739
2014.696838
2016.596737
2013.355734
2005.465568
2006.940783
2013.154568
2008.639515
2000.23526
2001.956344
2007.432521
2007.588983
1999.34119
2000.905812
2008.505405
2010.852338
2005.085588
1999.899983
2002.224565
2006.471396
2000.861108
1994.244992
1997.620105
2002.828062
1998.268306
1995.474338
1998.290658
2004.325629
2000.548184
1991.495727
1992.881536
2001.91164
1999.072969
1994.826137
1993.306219
1997.821271
1995.720207
1981.213925
1975.536582
1986.153661
2005.934954
2027.012649
2045.47519
2060.361452
2076.745281
2078.153441
2065.323539
2055.533475
2048.1574
2027.124408
2003.18569
1997.709512
1997.843623
1990.691065
1981.392739
1980.185745
1986.377178
1986.220716
1978.799937
1980.11869
1986.421881
1987.584172
1980.968056
1977.123556
1977.43648
1970.239219
1971.513268
2060.137935
2239.577739
2476.193306
2637.751715
2601.340723
2539.404039
2551.943368
2544.075554
2386.160479
2134.457485
1741.826742
1455.791468
1471.549448
1621.216729
1768.96176
1892.343389
1972.362634
2013.087513
2037.383859
2050.414926
2049.990243
2051.644272
2069.235095
2082.221458
2085.238944
2088.569354
2103.343857
2115.16793
2117.09018
2118.833616
2131.507055
2147.488552
2156.026918
2160.340805
2172.880134
2189.152204
2200.797463
2208.173538
2222.702172
2244.696289
2264.209362
2277.50865
2295.546507
2323.843816
2351.425868
2371.94477
2394.967067
2428.695849
2466.067966
2494.991123
2522.483769
2557.978339
2593.003523
2618.015125
2640.121
2666.13843
2690.747701
2708.785559
2716.139283
2723.962393
2730.533806
2727.359858
2710.97603
2690.233611
2671.234628
2637.237625
2588.980209
2539.694612
2497.472167
2448.94653
2390.697883
2340.182941
2302.520252
2266.712757
2226.144341
2191.163861
2168.834468
2149.90254
2126.232043
2105.556679
2096.705389
2095.297229
2087.787043
2075.225362
2072.11847
2077.952275
2078.868697
2070.173868
2070.531496
2078.041682
2081.483851
2077.50524
2074.890086
2080.880354
2084.076653
2083.450804
2081.886182
2086.781214
2091.698598
2088.479947
2082.824955
2085.529516
2094.15729
2091.408025
2082.355569
2083.048473
2087.11649
2083.473156
2073.571333
2072.878429
2077.169964
2072.744319
2064.898856
2060.361452
2061.411984
2057.187504
2045.47519
2039.037888
2042.457705
2044.134086
2035.707478
2028.599623
2029.896024
2031.237129
2025.157455
2017.490806
2018.854263
2022.721114
2019.346001
2013.780417
2014.450969
2019.770684
2016.484978
2009.220661
2006.538451
2014.674486
2014.808597
2007.231356
2005.733789
2012.93105
2015.993239
2010.137082
2005.130292
2009.131254
2010.941745
2005.331457
2000.704646
2004.660905
2008.483053
2005.778492
2001.889289
2004.973829
2008.661867
2003.140986
1995.094358
1996.01078
1999.274135
1996.837794
1991.406321
1990.109919
1999.788225
2001.442254
1991.227507
1989.327608
1996.14489
2001.531661
1994.826137
1991.473376
1991.808652
1996.256649
1994.624972
1990.825175
1992.233335
1989.998161
1981.728015
1981.035111
1998.380065
2024.777475
2041.809504
2045.899873
2057.25456
2070.822069
2065.994092
2045.810467
2029.44899
2015.523853
1997.93303
1986.980675
1983.06912
1985.773681
1988.724111
1983.940838
1977.928219
1982.957361
1988.165318
1982.532678
1977.481184
1980.275152
1988.165318
1982.532678
1972.787317
1970.12746
1971.133288
2037.942652
2186.112366
2406.657029
2627.82754
2631.962613
2528.228167
2491.839527
2528.00465
2426.01364
2223.305669
1873.076185
1526.534739
1462.832268
1582.883487
1728.549806
1861.542685
1971.401509
2020.441237
2038.277929
2054.102964
2065.435298
2069.257446
2072.565505
2086.624752
2100.125206
2106.115473
2107.143653
2112.35161
2127.416686
2135.575072
2141.408878
2150.126058
2164.520581
2173.841259
2175.562343
2185.933552
2207.190061
2227.127818
2238.504855
2250.48539
2277.329836
2303.704894
2319.015839
2330.415229
2359.271331
2393.335389
2415.776541
2439.804666
2472.058233
2512.000801
2545.215493
2571.590551
2603.799415
2638.601081
2667.054852
2688.93721
2714.261736
2736.836998
2754.561931
2760.641606
2757.579417
2760.775716
2758.719356
2736.613481
2707.153881
2688.132547
2658.851762
2604.201746
2540.901606
2488.732635
2441.458695
2390.161442
2340.317051
2303.839004
2272.323045
2229.050068
2190.046273
2167.471012
2154.529352
2135.41861
2118.341877
2105.199052
2102.650953
2099.432301
2089.955162
2086.624752
2089.172851
2090.245734
2091.095101
2092.592668
2094.827842
2099.097025
2094.872546
2086.065958
2090.983342
2100.505185
2095.990133
2088.077615
2088.636409
2094.246697
2094.492566
2092.23504
2095.18547
2099.164081
2095.341932
2081.528554
2073.14665
2079.986284
2078.980455
2068.855115
2062.417813
2064.228304
2067.469307
2059.445031
2049.722022
2044.402307
2041.854208
2038.501446
2028.018478
2028.823141
2032.91351
2026.386801
2017.379048
2015.501501
2019.211891
2015.546205
2013.82512
2013.758065
2015.501501
2011.567594
2005.912603
2002.15751
2005.75614
2009.958268
2005.376161
1998.223603
1999.318838
2003.252745
1998.335361
1991.383969
1994.937896
1998.111844
1993.127405
1987.606524
1992.635666
2004.526794
2003.744483
1996.748387
1998.335361
2007.343114
2008.103074
1997.485995
1994.244992
1999.765873
2001.956344
1991.316914
1984.901963
1994.133233
2001.241088
1996.346056
1990.445195
1992.456852
1996.994257
1993.842661
1985.281943
1991.696893
1996.323704
1991.808652
1986.600695
1985.214887
1988.277076
1991.27221
1995.094358
2018.720152
2043.955272
2048.202103
2050.392574
2057.835705
2064.921208
2053.812391
2030.030135
2004.459739
1995.653152
1994.580268
1988.96998
1981.549201
1980.878649
1985.863088
1981.593905
1976.564762
1978.688178
1982.733844
1980.699835
1973.882553
1972.541448
1975.670692
1972.809669
1963.511343
1990.355789
2112.664534
2299.703932
2546.534246
2756.886513
2726.398733
2602.570069
2501.406074
2372.905895
2149.857837
1922.920575
1610.130264
1444.950872
1479.618428
1601.971877
1713.417675
1821.62247
1932.218901
2003.588021
2036.713307
2042.949443
2050.459629
2058.930941
2065.390595
2067.625769
2072.990188
2088.770519
2100.594592
2107.121302
2117.201938
2133.384601
2140.783029
2144.918101
2151.869494
2167.336901
2181.127927
2184.346579
2195.030712
2213.873233
2237.208454
2254.955739
2270.914885
2287.835155
2312.153853
2334.572653
2357.349081
2386.696921
2422.996154
2453.05925
2474.494573
2503.820062
2544.299071
2581.335912
2607.822729
2634.063677
2664.797326
2693.496966
2712.942983
2726.555196
2743.877798
2754.986615
2747.387021
2738.245158
2731.0926
2720.922556
2696.693265
2656.39307
2616.092875
2575.770328
2526.820007
2468.280788
2416.491797
2371.833011
2327.084819
2282.582496
2239.71185
2209.961678
2184.838317
2158.86559
2134.39043
2119.884148
2111.32343
2093.933772
2078.131089
2078.153441
2081.573258
2074.219534
2065.345891
2071.313807
2079.919229
2079.896877
2078.39931
2084.836612
2093.956124
2092.436205
2088.345836
2087.451766
2089.128147
2088.681112
2081.841479
2081.394444
2090.31279
2093.218516
2085.775386
2076.410005
2078.287551
2080.83565
2075.672397
2062.820144
2058.975644
2061.411984
2057.098097
2049.453801
2048.358565
2047.755068
2042.792981
2029.851321
2024.889234
2028.979603
2027.549091
2020.150664
2020.35183
2023.346963
2018.474283
2012.126388
2009.131254
2010.919393
2012.260498
2002.850414
1994.468509
1997.329533
2000.458777
1997.441292
1993.373274
1996.055483
1998.357713
1993.015646
1987.695931
1988.388835
1992.792129
1992.590963
1985.326646
1982.398567
1986.91362
1989.685236
1983.694969
1983.873783
1989.238201
1990.646361
1981.191573
1977.727053
1983.538506
1988.679408
1983.851431
1977.548239
1979.671655
1985.416053
1983.225582
1979.515192
1985.617219
1988.433538
1980.006931
1964.293654
1958.504553
1960.024471
1967.244085
1981.504498
2009.175957
2036.646251
2044.245844
2047.308033
2054.885275
2055.891103
2046.503371
2026.185635
1999.85528
1987.830041
1989.461719
1983.650265
1976.989445
1976.229486
1980.163393
1974.307236
1965.098317
1969.032224
1975.603637
1976.02832
1972.362634
1974.798974
1976.676521
1972.04971
1955.710585
1985.304294
2118.25247
2309.538699
2551.809257
2716.809835
2677.180192
2605.431092
2553.396231
2443.917387
2228.200701
1965.075966
1605.905784
1433.775
1492.33657
1628.861025
1751.013309
1865.610703
1963.310178
2014.182748
2032.712344
2041.295414
2053.365356
2066.686996
2073.437223
2074.577162
2083.070825
2096.437168
2104.215575
2106.629563
2114.027991
2127.595499
2136.715011
2142.280596
2149.500209
2164.677044
2181.440852
2188.481651
2196.416521
2216.331925
2238.080172
2251.692385
2265.505763
2285.555278
2309.739865
2328.582386
2344.496828
2371.631845
2408.713389
2439.715259
2467.543181
2500.936687
2539.582853
2570.718833
2594.881069
2621.166721
2653.867323
2683.416329
2698.302591
2709.344352
2722.822454
2731.98667
2728.65626
2715.669896
2704.8293
2689.294838
2657.667119
2616.830482
2578.117261
2536.34185
2485.402225
2430.707506
2385.735796
2347.827238
2306.320048
2259.671957
2223.015097
2199.568117
2178.535125
2149.343747
2125.248566
2116.732552
2110.697581
2095.230173
2081.081519
2081.21563
2086.669455
2081.059168
2072.207877
2078.064034
2084.121357
2082.444976
2075.493583
2076.499412
2083.763729
2084.747205
2079.092214
2079.762766
2087.250601
2087.362359
2083.741377
2080.075691
2088.748168
2087.898801
2079.896877
2078.086385
2082.176755
2081.975589
2074.375996
2070.397385
2069.592723
2070.799717
2065.524705
2055.175847
2052.583045
2058.059222
2055.734641
2048.067993
2047.084516
2048.135048
2044.715231
2035.260443
2031.594757
2031.907681
2030.298356
2021.692934
2018.340173
2023.525777
2022.698763
2014.2051
2010.092379
2011.165263
2012.573423
2007.499577
2002.559841
2002.582193
2006.404341
2005.711437
2001.755178
2004.102111
2011.187614
2011.634649
2004.102111
2001.352847
2004.370332
2004.437388
1998.111844
2000.168204
2007.790149
2005.823196
1996.502518
1991.920411
1999.743521
2004.862071
1998.782396
1992.948591
1994.669675
2001.218736
1995.943725
1988.947629
1991.205155
1996.65898
1993.19446
1988.098262
1989.685236
1994.848489
1994.870841
1990.311085
1988.634704
1988.075911
1977.592942
1970.753309
1976.073024
2001.285792
2025.202158
2041.407173
2052.895969
2069.168039
2079.740415
2066.843458
2050.481981
2041.429525
2026.163283
2006.873728
1994.155585
1993.641495
1998.156547
1993.976771
1986.041902
1986.265419
1994.423806
1992.16628
1984.142004
1985.103129
1990.020512
1989.305257
1980.409262
1976.877687
1974.418995
2000.123501
2110.697581
2295.680618
2540.298109
2664.886733
2594.948124
2524.942461
2543.829685
2497.785091
2319.41817
2031.818274
1641.042726
1442.961567
1512.229623
1661.047537
1798.399007
1922.451189
1998.156547
2028.219644
2044.469362
2057.791002
2065.815278
2069.078632
2075.001845
2087.094139
2097.733569
2103.321505
2109.356476
2122.655764
2135.977404
2139.151351
2145.968633
2158.753831
2174.981198
2184.637151
2187.140547
2201.669181
2221.964565
2233.319251
2239.778905
2257.839114
2285.376464
2306.498862
2321.921566
2342.686336
2370.178982
2398.319828
2419.710448
2447.918349
2484.552858
2519.198062
2545.640176
2571.903476
2608.940316
2641.976195
2662.226875
2681.024692
2703.599954
2724.722353
2734.087734
2733.886568
2739.250986
2743.2743
2731.852559
2704.091692
2675.99555
2649.374622
2610.750808
2561.040528
2511.933745
2468.593713
2421.856215
2368.860229
2321.049848
2284.705911
2252.005309
2216.220166
2186.224125
2169.728538
2153.322357
2133.295194
2118.297174
2112.083389
2110.205842
2104.327333
2095.408987
2095.073711
2099.968743
2098.426473
2088.926982
2091.899764
2101.779235
2101.153386
2098.046493
2099.499357
2104.28263
2105.444921
2100.326371
2100.751054
2104.66261
2108.037723
2102.315676
2098.091197
2101.712179
2103.120339
2095.677208
2087.697636
2086.624752
2089.55283
2084.836612
2075.694749
2073.236057
2074.375996
2068.296321
2059.087403
2055.064089
2058.618016
2055.488772
