 EMG Channel 
2028.286699
2069.235095
2068.139859
2029.337231
2002.761007
2007.253707
2016.842606
2010.3606
1999.207079
2002.962172
1991.27221
1999.698818
2034.165208
2066.329368
2057.612188
2013.087513
1992.479204
2004.772664
2008.483053
2012.79694
2018.161359
1988.657056
1985.416053
2020.418885
2026.945594
2018.094303
2022.519949
2001.084626
1999.274135
2011.433484
2014.786245
2013.556899
2010.226489
2000.682294
2009.310068
2015.389742
2014.58508
2003.364504
1998.782396
2004.795015
2007.097245
2028.733734
2042.033022
2019.055428
1984.767852
1977.659998
1988.120614
2017.848434
2029.650155
2042.52476
2014.920356
2002.202213
2011.277021
2003.923297
1998.558879
1995.317876
2018.474283
2037.562673
2027.929071
2007.946611
1996.323704
2002.693951
2009.690047
2008.684219
2020.530644
2024.621013
2043.128257
2024.822178
2005.309106
1997.396588
1975.625989
1983.672617
2026.856187
2049.990243
2003.69978
1980.63278
2016.395571
2033.248786
2042.077725
2021.089437
1986.332475
1971.379157
1982.912658
2024.375144
2036.89212
2038.613205
2048.112696
2068.698653
2057.433374
2027.772609
2019.122484
2025.716248
2035.34985
2052.158362
2044.648176
2041.876559
2035.707478
2033.695821
2065.211781
2062.529571
2037.406211
2020.575347
2038.948481
2057.835705
2057.165153
2037.78619
2020.86592
2048.000937
2060.026176
2048.649138
2022.363487
2029.627804
2044.022327
2036.176865
2030.834798
2052.761859
2087.250601
2044.82699
1992.702722
2016.037943
2033.718173
2049.073821
2046.503371
2044.558769
0.0
2020.508292
2001.241088
2004.102111
2012.238146
2019.949498
2030.588929
2016.283812
1999.899983
2004.102111
1995.11671
2018.966021
2026.76678
2016.239109
2011.478187
2027.325574
2024.263385
2008.840681
2011.344077
2032.91351
2025.470379
1993.552088
1981.884477
1996.949553
1999.140024
2020.597699
2042.658871
2001.285792
1985.371349
2006.806672
2023.637536
2026.811484
2031.952385
2049.051469
2061.635502
2046.995109
2022.139969
2047.285682
2063.893028
2047.173923
2031.214777
2047.956234
2069.68213
2077.169964
2088.278781
2070.19622
2027.057353
2037.115638
2037.607376
2044.44701
2055.555827
2059.579141
2052.583045
2048.358565
2036.75801
2042.770629
2033.159379
2031.237129
2051.912493
2064.094193
2057.411022
2049.140876
2050.929016
2073.213705
2091.028046
2100.482833
2107.255412
2100.371075
2067.134031
2058.908589
2078.198144
2081.483851
2098.180604
2090.715121
2058.215685
2064.831801
2093.442034
2090.536307
2054.43824
2046.279853
2074.465403
2082.087348
2090.581011
2086.378883
2091.005694
2099.186432
2103.120339
2072.096118
2041.384821
2056.204028
2067.290493
2095.654857
2077.326426
2043.307071
2052.761859
2056.963987
2046.168094
2074.219534
2100.43813
2105.087293
2106.763674
2089.753996
2074.107775
2053.03008
2051.711327
2060.20499
2058.729775
2074.979493
2086.624752
2059.154458
2089.306961
2102.539194
2060.495563
2071.090289
2066.597589
2055.377013
2048.872655
2061.322577
2061.210818
2057.500429
2073.593685
2065.167077
2053.991205
2059.802659
2068.653949
2055.8464
2042.167132
2066.99992
2045.654004
2017.714324
2009.377123
2010.114731
2011.679353
2014.450969
2030.119542
2016.552033
1986.198364
1951.396698
1941.628986
1941.226654
1948.490971
1952.693099
1949.608558
1970.686253
1984.052597
2000.637591
1961.969073
1930.140189
1929.760209
1955.487067
1976.251838
1989.72994
1971.490916
1952.179009
1948.334509
1959.711547
1971.736785
1968.384024
1973.301407
1968.026396
1940.489047
1940.354936
1950.346166
1968.138155
1976.363596
1966.640588
1945.875817
1954.74946
1955.643529
1942.456
1951.888436
1971.625027
1989.506422
1977.347073
1947.954529
1941.584282
1960.382099
1962.19259
1959.376271
1956.448192
1953.587169
1959.845657
1968.451079
1987.897097
1987.114786
1955.710585
1925.714544
1929.089657
1950.636739
1961.052652
1950.279111
1950.100297
1955.822343
1961.186762
1949.340337
1939.013831
1922.428837
1915.298631
1925.178102
1924.954584
1903.072226
1924.64166
1936.577491
1942.97009
1956.448192
1942.791276
1919.299593
1917.042067
1927.390924
1927.189759
1930.095485
1928.10618
1922.071209
1918.405523
1940.824323
1938.276224
1921.735933
1930.229596
1929.067305
1917.533805
1910.135378
1927.390924
1930.319003
1939.997308
1950.189704
1915.432741
1905.150939
1910.537709
1906.179119
1933.895282
1943.439477
1929.424933
1925.893358
1932.174198
1913.801064
1910.537709
1914.337506
1911.878814
1930.564872
1923.412314
1915.924479
1918.919613
1924.194625
1929.223767
1935.862236
1944.467657
1932.71064
1916.125645
1908.034314
1900.434721
1911.118854
1920.819512
1941.94191
1942.679518
1954.525942
1949.139172
1926.072171
1906.670857
1901.373494
1923.635831
1933.448247
1946.591073
1924.507549
1915.186872
1942.165427
1949.787372
1947.038108
1942.165427
1914.493968
1919.187834
1936.465733
1927.21211
1905.17329
1919.411352
1949.273282
1947.149866
1903.362799
1875.043139
1917.690267
1935.705773
1940.623157
1957.476372
1967.512306
1971.736785
1992.076873
2010.87469
1999.967039
1992.143928
2009.287716
2033.695821
2042.614167
2037.205045
2039.57433
2030.790094
2022.139969
2014.361562
2021.536472
2036.556844
2034.791056
2011.679353
2001.308143
2014.115693
2027.437333
2023.861053
2007.67839
2009.33242
2012.573423
2022.184673
2025.313917
2032.578234
2032.91351
2004.973829
2007.454873
2039.373164
2037.070934
2030.141894
1995.49669
1984.745501
2003.006876
2022.743466
2033.80758
2033.382897
2031.617109
2007.03019
1997.93303
2023.458722
2045.810467
2043.485885
2030.857149
1993.775605
1974.240181
1991.473376
2017.267289
2023.101094
2050.906664
2054.259426
2019.323649
2010.137082
2010.248841
2014.607431
2006.560803
2018.0496
2021.089437
2005.10794
2006.963135
1998.201251
2010.070027
2025.984469
2018.496635
2019.949498
2018.720152
2014.830949
2013.020457
2014.272155
2010.181786
2031.550054
2037.585025
2022.810521
2007.387818
2005.10794
2002.313972
1994.647323
2001.866937
2020.731809
2041.876559
2040.200179
2029.426638
2021.312955
2018.206062
2023.43637
2020.530644
2001.621068
1994.289696
2013.601603
2043.016498
2016.574385
2013.892175
2057.38867
2057.791002
2004.035056
1988.45589
1998.469472
2014.093341
2009.108902
1994.826137
2015.792074
2038.903777
2022.855225
1990.400492
2007.253707
2021.759989
2013.355734
2008.57246
2016.306164
2032.868806
2040.758972
1997.597754
1967.17703
1944.646471
1968.674596
1975.134251
1977.995274
1969.389852
1942.008965
1946.322852
1954.660053
1969.680425
1984.656094
1965.634759
1977.30237
1985.214887
1954.861218
1943.283015
1953.698928
1948.893303
1967.959341
1970.64155
1964.986559
1959.331567
1954.145962
1973.323759
1983.605562
1972.027358
1949.295634
1941.964262
1964.248951
1945.451134
1959.890361
1973.010835
1975.871858
1979.559896
1977.995274
1964.628931
1950.837904
1960.65032
1983.247934
1966.126498
1962.304349
1973.480221
1968.696948
1950.189704
1956.828172
1980.990408
1988.657056
1976.207134
1946.501666
1948.60273
1973.234352
1996.457815
1986.421881
1954.078907
1933.962337
1945.138209
1974.307236
2019.390705
1990.713416
1939.863198
1940.556102
1934.968166
1930.02843
1932.442419
1948.155695
1940.109067
1921.087732
1887.805985
1877.323017
1895.405578
1930.564872
1936.085753
1933.470599
1925.580433
1889.012979
1877.144203
1894.131529
1914.002229
1918.003192
1939.103238
1941.606634
1899.339485
1880.318151
1902.848709
1922.272375
1892.052816
1895.003247
1908.146072
1932.800047
1939.058535
1909.375418
1897.149014
1892.879831
1881.659255
1892.902183
1924.887529
1935.996346
1928.642622
1909.196604
1898.087787
1901.284087
1890.82347
1882.061587
1892.61161
1914.493968
1918.696096
1882.039235
1898.065436
1937.382154
1924.686363
1921.44536
1913.801064
1893.170404
1888.409482
1879.424081
1888.565944
1900.881755
1914.605727
1939.88555
1935.214035
1918.763151
1895.673799
1873.232648
1889.772938
1953.676576
1943.215959
1927.905015
1940.15377
1951.799029
1946.926349
1952.96132
1972.764966
1997.55305
1965.880628
1954.078907
1969.032224
1977.682349
1957.69989
1946.836942
1945.898169
1963.421936
1973.055538
1988.210021
1974.195477
1960.784431
1946.009928
1948.759192
1972.608503
1968.384024
1957.834
1974.955437
1966.975864
1958.661015
1950.547332
1962.013777
1966.975864
1946.412259
1969.568666
1984.007893
1968.071099
1952.648396
1943.260663
1966.685291
1978.129384
1969.769832
1969.166335
1960.449154
1960.829134
1962.080832
1951.620215
1946.322852
1947.820419
1977.838812
2001.241088
1985.818384
1962.281997
1966.037091
1970.216867
1966.528829
1959.62214
1955.643529
1953.408355
1960.918541
1951.866085
1943.104201
1956.984634
1972.966131
1975.223658
1975.625989
1981.750367
1982.778547
1970.395681
1960.158582
1975.89421
1970.507439
1962.349053
1965.120669
1975.38012
1959.957416
1956.537599
1944.355898
1949.452096
1965.925332
1985.88544
1990.579306
1983.404396
1965.567704
1951.016718
1955.330605
1974.530753
1990.355789
1988.098262
1980.096338
1954.861218
1932.46477
1923.524073
1921.333602
1921.937099
1924.909881
1934.521131
1940.936082
1945.093506
1938.186817
1920.707753
1905.17329
1918.047895
1947.753364
1942.165427
1935.392849
1941.159599
1923.121741
1919.143131
1924.64166
1912.079979
1913.24227
1975.290713
1962.036128
1899.92063
1905.530918
1918.025543
1920.595994
1935.728125
1927.502683
1927.726201
1942.277186
1936.711602
1924.418142
1917.60086
1906.246174
1931.481294
1934.275262
1920.953622
1910.783578
1912.638773
1929.51434
1929.357878
1915.410389
1921.579471
1949.720317
1959.666843
1947.887474
1925.021639
1910.67182
1924.842826
1938.320927
1925.513378
1916.349163
1927.301517
1937.605672
1929.044953
1913.75636
1928.329698
1941.181951
1924.596956
1912.459959
1913.286974
1925.15575
1949.161523
1955.91175
1916.617384
1907.900203
1901.105273
1927.547387
1960.784431
1943.908864
1918.249061
1905.240346
1914.046933
1928.441456
1908.056665
1906.313229
1949.340337
1986.421881
1978.84464
1919.813683
1878.060624
1890.443491
1909.710695
1928.732029
1965.143021
1956.917579
1928.039125
1917.422046
1907.028485
1919.210186
1929.670802
1963.354881
1963.176067
1909.77775
1892.723369
1897.305476
1921.780637
1933.962337
1936.935119
1942.388945
1938.633852
1916.662087
1913.957526
1917.131474
1924.909881
1935.594015
1929.89432
1909.420122
1889.080034
1879.044101
1909.487177
1943.193608
1947.373384
1923.948756
1908.324886
1893.617439
1891.941058
1903.563965
1938.47739
1944.422954
1934.856407
1913.175215
1918.137302
1948.289805
1935.750477
1926.18393
1942.366593
1941.94191
1960.940893
1967.065271
1957.163448
1949.675614
1935.191683
1935.012869
1937.136285
1948.647433
1967.82523
1975.581285
1973.323759
1950.122648
1924.887529
1931.727163
1946.658128
1947.641605
1985.438405
1994.356751
1939.818494
1925.021639
1952.223712
1954.682404
1939.662032
1932.442419
1948.379212
1957.588131
1957.31991
1946.836942
1947.082811
1949.4968
1959.443326
1946.211093
1940.265529
1932.665936
1939.50557
1942.232483
1958.772774
1956.42584
1928.173235
1927.636794
1970.865067
1969.009873
1943.461829
1928.150884
1929.13436
1938.164465
1947.909826
1960.382099
1971.245047
1983.985541
1972.787317
1942.903035
1941.181951
1933.291785
1936.577491
1942.187779
1958.616311
1980.878649
1985.930143
1950.502628
1937.113933
1939.036183
1951.620215
1977.838812
2010.584117
2007.477225
1988.925277
1980.655131
1974.48605
1975.178954
1987.830041
1995.49669
1999.609411
2002.80571
1999.050617
1974.016663
1959.152753
1962.103184
1960.985596
1979.291675
1993.663847
2010.248841
1985.103129
1987.092434
1975.424823
1967.378195
1975.715396
1979.112861
1981.504498
1984.410224
2011.791111
2016.50733
1979.895172
1968.160506
1979.22462
1989.439367
1988.880573
1966.350015
1955.129439
1967.981692
1987.740634
1993.596791
2001.241088
1987.450062
1975.134251
1965.880628
1966.662939
1981.169222
1996.949553
2008.326591
2020.508292
2017.781379
1977.056501
1966.506477
1969.658073
1978.755233
1985.080777
1961.075003
1955.352957
1971.267399
1984.745501
1975.983617
1991.562783
2018.340173
1996.435463
1966.081794
1979.001102
2028.711382
2020.620051
1985.594867
1979.828117
1980.945704
1997.664809
2007.387818
2024.173978
2016.64144
2003.655076
2008.103074
2001.129329
1988.210021
1996.077835
2019.07778
2021.38001
1999.899983
1971.513268
1981.951533
2002.023399
2014.450969
2007.656039
2024.017516
2020.86592
2000.414074
1982.622085
2004.146815
2024.576309
1996.994257
1984.566687
1975.134251
1965.612407
1979.939876
2004.459739
2018.720152
2033.829931
2013.556899
2001.799882
1998.380065
1993.641495
2022.430542
2020.329478
1987.114786
2003.766835
2028.890196
2039.730792
2015.479149
1995.094358
1999.899983
1998.804748
2000.726998
2011.679353
2006.5161
1990.869879
1992.702722
1994.848489
1992.859184
2023.548129
2027.124408
2014.607431
1992.501556
1977.995274
1977.704701
2008.125425
2006.784321
1984.298466
1968.316968
1959.309215
1963.287826
1955.375308
1949.787372
1943.126552
1950.837904
1967.378195
1982.398567
1952.760154
1945.249968
1955.934102
1955.978806
1957.655186
1963.421936
1974.709567
1982.487974
1960.426803
1940.891378
1949.317986
1956.582303
1971.446213
1987.606524
2009.578289
2010.517062
1959.890361
1943.640643
1959.800954
1970.239219
1966.327663
1959.890361
1954.324776
1977.503535
1999.810576
2002.313972
1977.995274
1971.379157
1957.454021
1963.533695
1967.065271
1967.020567
1964.427765
1965.321835
1958.146925
1965.545352
2000.704646
2010.181786
1975.067195
1951.03907
1954.123611
1950.212055
1962.974902
1986.667751
1996.65898
1960.963245
1932.397715
1952.44723
1964.49482
1946.881646
1926.742724
1950.055593
1989.21585
1978.777585
1958.057518
1950.770849
1944.311195
1938.566797
1936.286919
1947.887474
1958.437497
1978.397605
1978.062329
1955.464715
1941.383116
1954.50359
1938.276224
1940.064363
1956.582303
1968.942817
1958.057518
1931.95068
1943.283015
1961.410279
1964.159544
1959.845657
1956.828172
1960.449154
1960.896189
1951.664919
1957.208151
1959.175105
1954.637701
1961.633797
1974.128422
1978.308198
1953.296596
1939.952605
1932.397715
1939.259701
1946.971053
1961.410279
1965.075966
1957.901056
1942.545407
1930.050782
1942.500704
1970.730957
1996.502518
1969.278093
1935.616366
1923.479369
1937.605672
1946.367555
1947.418087
1955.934102
1992.255687
2003.118635
1964.539524
1909.151901
1906.156767
1917.846729
1935.079924
1954.481239
1955.151791
1945.607596
1946.099334
1939.527922
1947.932178
1940.332584
1928.217939
1940.667861
1960.672672
1959.331567
1950.569683
1934.521131
1928.240291
1947.105163
1947.57455
1929.51434
1939.50557
1948.401564
1926.809779
1947.619253
1959.800954
1951.977843
1941.383116
1935.79518
1936.801009
1946.479314
1942.947739
1943.238311
1946.144038
1928.284994
1907.900203
1916.751494
1925.736895
1943.640643
1951.217884
1929.715506
1947.798067
1973.949608
1954.078907
1930.833093
1925.692192
1931.458942
1939.282052
1958.325739
1963.46664
1936.421029
1934.565834
1946.635776
1957.744593
1961.969073
1951.441401
1939.282052
1950.949663
1953.721279
1934.476427
1942.567759
1949.988538
1951.799029
1935.14698
1919.813683
1927.480331
1930.833093
1943.953567
1954.74946
1963.109012
1943.461829
1930.587224
1938.633852
1935.236387
1938.6115
1951.687271
1956.358785
1935.705773
1936.30927
1933.627061
1929.715506
1935.728125
1929.871968
1936.353974
1944.624119
1962.818439
1971.043881
1953.676576
1925.043991
1924.239328
1935.705773
1939.282052
1939.840846
1932.777695
1940.936082
1952.000195
1946.635776
1937.06923
1920.685401
1932.84475
1928.039125
1940.511398
1976.385948
1969.591018
1957.31991
1940.042012
1929.447285
1939.080887
1941.494875
1949.943835
1948.535675
1938.432686
1925.446323
1942.031317
1947.753364
1941.42782
1943.752401
1938.633852
1934.968166
1939.88555
1953.698928
1938.879721
1952.916617
1964.986559
1945.965224
1942.187779
1942.679518
1926.899186
1933.403544
1952.357823
1966.998216
1958.191628
1948.155695
1938.410334
1927.860311
1934.901111
1930.341355
1952.96132
1968.004044
1961.656149
1961.991425
1920.730105
1910.493006
1937.024526
1960.717375
1970.440384
1942.344241
1930.54252
1947.306329
1952.96132
1936.018698
1933.515302
1947.306329
1951.396698
1935.973994
1947.596901
1961.276169
1947.32868
1943.238311
1957.051689
1902.893412
1896.433758
1924.418142
1931.973032
1917.354991
1904.860366
1919.612517
1923.881701
1911.163558
1919.478407
1906.916726
1903.720427
1909.330715
1920.774808
1922.138264
1919.612517
1923.725238
1932.017735
1943.35007
1910.537709
1907.47552
1930.095485
1905.620325
1905.732084
1917.869081
1920.618346
1923.591128
1925.625137
1927.234462
1911.811758
1910.135378
1930.587224
1927.234462
1918.003192
1919.590166
1920.104256
1924.060514
1916.818549
1904.770959
1909.598936
1934.364669
1920.886567
1916.147997
1922.495892
1926.496855
1940.176122
1931.078962
1904.055703
1896.858441
1903.899241
1929.760209
1938.633852
1945.920521
1922.674706
1920.998325
1939.550273
1928.955546
1899.875927
1904.256869
1916.416218
1924.887529
1923.144093
1952.402526
1959.599788
1955.643529
1951.351994
1935.705773
1924.12757
1932.442419
1948.714489
1950.480276
1928.754381
1922.182968
1927.390924
1944.177084
1952.58134
1932.174198
1908.280183
1908.995439
1926.988593
1930.117837
1930.274299
1941.763096
1940.220826
1953.47541
1951.128477
1944.288843
1949.005061
1969.61337
1969.278093
1958.72807
1937.337451
1933.984689
1935.258738
1936.935119
1954.592997
1939.416163
1927.525035
1948.98271
1965.455945
1939.393811
1926.876834
1944.624119
1949.653262
1948.60273
1955.822343
1957.31991
1954.794163
1953.3413
1946.099334
1947.261625
1970.64155
1994.267344
1997.396588
1992.143928
1991.808652
2003.140986
1987.673579
1988.277076
1971.692082
1963.019605
1983.426748
1988.053559
1977.81646
1977.905867
2010.226489
2027.370277
1991.696893
1961.857314
1980.275152
1993.909716
1980.051634
1959.309215
1956.470544
1971.915599
2013.020457
2002.515137
1967.82523
1964.986559
1970.529791
1992.143928
1983.739672
1976.497707
2000.123501
1985.550163
1981.124518
1980.565724
1968.093451
1949.608558
1978.866992
1967.936989
1943.238311
1973.569628
1973.033187
1942.523055
1927.100352
1939.796143
1957.543428
1955.576474
1950.457925
1961.432631
1950.212055
1940.846675
1959.823306
1954.88357
1961.432631
1973.368463
1962.729032
1971.848544
1949.385041
1931.168369
1930.40841
1938.387983
1946.747535
1949.452096
1948.647433
1959.264512
1958.437497
1935.906939
1933.805875
1948.714489
1954.972977
1959.957416
1971.803841
1992.792129
1977.034149
1926.630965
1901.820529
1933.22473
1952.96132
1935.616366
1945.719355
1980.006931
1962.483163
1927.726201
1939.326756
1963.041957
1973.234352
1960.493858
1944.512361
1923.412314
1930.564872
1951.262587
1952.804858
1965.634759
1943.327718
1946.81459
1971.28975
1965.634759
1949.787372
1953.967149
1944.959396
1934.610538
1950.927311
1960.873838
1970.485088
1949.586207
1941.338413
1948.647433
1937.20334
1936.063401
1951.597864
1964.36071
1976.587114
1998.245954
1983.404396
1967.333492
1968.831059
1975.603637
1985.259591
1980.141041
2018.42958
2038.412039
1982.756195
1967.534657
1974.307236
1992.30039
1974.86603
1968.786355
2006.225527
1997.106015
1970.909771
1986.153661
2006.158472
1998.692989
1989.238201
1978.218791
1977.145908
1987.606524
1986.310123
2000.302315
2025.626841
2001.844585
1982.68914
1980.2528
1949.899131
1961.075003
1993.283867
2007.54428
1983.605562
1984.276114
1999.721169
2012.484016
2014.540376
2004.482091
1991.160451
1977.391777
1983.851431
1996.748387
2007.119597
1990.400492
1975.983617
1960.449154
1960.247989
1987.092434
2012.998106
1997.798919
1992.903887
2009.690047
2005.934954
1991.898059
1986.824213
1982.443271
1977.592942
1973.368463
1975.782451
1983.96319
2013.936879
2012.260498
1983.359692
1976.631817
1993.820309
1998.715341
1985.88544
1980.789242
1986.265419
2005.75614
2004.973829
1982.957361
1975.38012
1982.68914
1980.275152
1991.473376
1984.320818
1993.440329
2008.326591
1992.233335
1986.891268
1982.756195
1988.053559
1993.686198
2007.209004
2011.0088
1981.035111
1961.522038
1978.866992
1975.156602
1974.731919
1975.715396
1978.777585
1982.398567
2012.126388
2013.646306
1974.933085
1957.208151
1970.887419
1977.637646
1981.839774
1990.355789
2007.633687
2033.137027
2011.187614
1964.092489
1937.58332
1964.405413
1995.228469
2016.686143
2003.409207
1971.736785
1957.923407
1978.487012
2015.702667
2005.152643
1985.080777
1977.548239
1992.792129
1994.937896
1991.853355
1986.623047
1978.19644
1976.385948
1976.005969
1986.555992
2004.772664
2019.614222
2013.869824
2002.470434
2010.338248
2041.362469
2048.693842
2031.661812
2010.450007
1997.664809
1995.384931
2004.817367
2023.972812
2024.71042
2053.499467
2043.463533
1995.161414
1977.883515
2007.54428
2033.561711
2046.592778
2042.14478
2035.595719
2024.889234
2006.158472
1980.968056
1998.335361
2013.981582
2028.845492
2043.999975
2054.795868
2017.446103
2019.524815
2012.79694
1977.369425
1995.831966
2044.44701
2028.465513
2020.642402
2023.30226
2026.029173
2011.589946
1999.631762
2008.170129
2018.161359
2031.997088
2016.820254
2030.946556
2032.377068
2020.977678
2001.26344
1993.19446
2011.075856
2035.148684
2036.6239
2018.340173
2021.044734
2003.208042
1988.992332
2007.566632
2033.472304
2022.363487
1997.888326
1992.948591
2023.101094
2059.109754
2051.532513
2027.772609
2046.771592
2049.364394
2038.590853
2050.325519
2037.003879
2017.177882
2021.916452
2039.239054
2053.54417
2056.651063
2043.731754
2038.076763
2038.412039
2029.873673
2032.488827
2052.828914
2055.958158
2068.005749
2047.732717
2026.900891
2016.373219
2022.40819
2040.960138
2067.961045
2087.742339
2047.39744
2025.60449
2021.290603
2015.143873
2032.01944
2056.718118
2060.361452
2040.736621
2032.53353
2027.258519
2038.456743
2048.470324
2045.028155
2042.323594
2040.535455
2029.471341
2042.256539
2057.142801
2055.33231
2039.015536
2035.260443
2048.67149
2061.881371
2071.73849
2050.459629
2007.656039
2013.154568
2031.930033
2045.363432
2067.916342
2061.344929
2023.726943
2015.948536
2021.469417
2035.171036
2067.066975
2081.953237
2053.588874
2026.789132
2011.858167
2011.76876
2012.998106
2000.570536
2011.299373
2000.861108
1988.545297
1986.220716
1989.506422
1975.693044
1972.519096
1988.634704
2012.193443
2024.978641
2024.017516
2035.819237
2014.875652
1987.80769
1980.521021
1976.587114
1993.507384
2021.961155
2041.764801
2006.381989
1982.465623
1979.962227
1991.674541
1999.408245
1999.698818
2004.750312
2009.913565
2023.659888
2030.052487
2033.137027
2004.415036
1968.764003
1981.906829
2021.625879
2045.229321
2012.975754
1977.95057
1973.413166
1993.753254
2003.900946
2004.482091
2008.795978
2016.283812
2022.855225
1997.709512
1985.818384
2009.243013
2001.375199
2000.23526
2014.227452
2025.448027
2017.133178
2009.913565
2015.054466
1968.093451
1976.832983
2026.275042
2031.103019
2000.391722
1992.076873
2006.381989
2015.769722
2016.552033
1994.312047
1992.769777
2009.488882
2019.949498
2028.219644
2003.69978
1982.622085
1999.452949
2003.453911
1997.173071
1991.361617
2010.740579
2047.039812
2034.679298
2013.109864
2016.149702
1997.597754
1987.718283
1989.707588
1997.687161
2015.769722
2005.666733
2003.923297
1992.881536
1985.974847
1988.165318
2006.024361
2031.818274
2003.230393
1977.704701
1977.458832
1998.871803
2014.495673
2005.24205
1996.033132
1981.817422
1981.415091
1986.332475
1997.731864
2003.029228
2034.813408
2042.480057
1991.741597
1960.851486
1977.682349
2011.589946
2017.110827
2001.174033
2012.41696
2006.113768
1965.612407
1968.294617
1982.063291
2006.717265
2019.636574
2008.639515
1995.988428
1984.633742
1983.270286
2004.660905
1996.65898
1997.977733
1993.820309
1990.400492
1995.764911
2014.026286
1994.312047
1984.231411
1996.055483
1990.802823
1994.334399
1998.245954
2005.599678
2010.785283
1984.544335
1954.861218
1954.481239
1975.469527
1981.28098
1980.230448
1990.221678
2009.690047
2000.816405
1979.783413
1997.955382
2010.606469
1994.60262
1989.461719
1990.780472
1998.268306
2017.043771
2007.387818
1997.329533
1991.1381
2006.672562
2026.677373
2038.769667
2015.367391
2006.851376
2018.541338
2018.071952
2018.518987
2031.527702
2026.11858
2036.333327
2035.886292
2031.751219
2019.234242
2000.414074
2010.695876
2018.653097
2036.6239
2021.804693
2017.133178
2038.54615
2027.14676
2013.713361
2009.354771
2002.828062
2032.645289
2032.421772
2012.79694
2004.973829
2014.674486
2032.041792
2018.675449
2020.776513
2024.062219
2020.418885
2018.787207
2009.041847
2008.43835
2019.390705
2026.051524
2030.588929
2035.126333
2024.039867
2023.659888
2021.715286
2016.216757
2026.029173
2047.509199
2044.022327
2035.841588
2024.755123
2018.407228
2006.784321
2007.901908
2031.527702
2046.726888
2038.836722
2040.356641
2036.6239
2020.508292
2036.288623
2050.191408
2023.279908
2008.483053
2006.270231
2011.321725
2009.421827
2032.801751
2059.735603
2044.871693
2019.793036
2031.840626
2017.66962
2000.592887
2003.409207
2010.226489
2016.395571
2028.823141
2051.957196
2050.906664
2042.413001
2012.93105
1985.952495
2006.829024
2029.44899
2031.706516
2030.812446
2042.770629
2057.031042
2045.98928
2013.467492
2025.716248
2039.57433
2046.346908
2061.74726
2061.769612
2056.785173
2046.615129
2037.517969
2043.977623
2053.298301
2055.421717
2073.258409
2063.602455
2041.027193
2019.904795
2017.647268
2033.360545
2054.661757
2061.970778
2062.820144
2055.622882
2048.537379
2043.664699
2046.905702
2058.170981
2060.517914
2058.975644
2040.244882
2026.990298
2032.377068
2040.133123
2069.279798
2078.242848
2055.041737
2042.435353
2027.437333
2039.999013
2080.679188
2072.967836
2038.970833
2017.826082
2033.94169
2041.429525
2044.625824
2051.152533
2055.265254
2060.58497
2071.827897
2067.648121
2043.910568
2030.834798
2053.655929
2068.475135
2050.861961
2049.029118
2065.211781
2058.193333
2050.794906
2042.658871
2035.595719
2060.026176
2074.443051
2069.190391
2038.523798
2030.231301
2022.207024
2035.506312
2011.500539
1988.880573
1989.439367
1977.056501
1962.840791
1991.898059
2010.829986
2000.838757
1995.273172
1993.395626
1985.863088
1984.946666
1985.997198
1976.631817
1985.371349
2006.247879
2019.189539
1997.262478
1975.313064
1981.459794
1983.382044
1989.282905
2008.684219
2009.287716
1992.233335
1993.70855
1987.651227
1996.52487
1986.086605
1988.902925
2001.084626
1998.022437
2010.338248
1999.184728
1991.629838
1976.54241
1981.370387
1992.68037
1995.027303
1999.229431
1988.657056
1993.57444
2008.05837
2021.201196
2016.708495
1975.156602
1965.970035
1960.829134
1987.383006
2000.637591
2008.505405
2042.413001
2017.222585
1994.557916
1987.830041
1992.434501
1973.793146
1967.69112
1981.459794
1995.519041
1990.37814
2003.476263
2018.071952
1993.261515
1966.595884
1965.478297
1984.0973
2005.264402
2034.433429
2044.022327
1997.150719
1960.940893
1979.246972
1993.865012
2006.381989
2010.315896
2003.230393
1989.774643
1982.644437
1974.463698
1985.974847
2002.917469
2005.532623
2015.389742
2003.655076
1971.580323
1973.100242
1993.127405
2010.315896
2012.484016
2013.735713
2010.852338
2002.224565
1967.109974
1976.453003
1995.49669
2001.330495
2000.570536
1969.568666
1970.12746
1980.63278
1987.04773
2009.667696
2018.675449
1997.776568
1997.843623
1997.106015
1990.221678
1998.938858
2004.504443
1977.458832
1976.453003
1982.622085
1984.186707
2006.13612
2010.852338
1998.223603
1990.981637
1981.973884
1990.959286
1976.989445
1972.586152
2002.850414
2004.415036
1992.68037
1991.473376
1966.79705
1971.200344
1965.701814
1972.474393
1981.057463
2006.359638
1997.597754
1959.398622
1981.951533
2006.672562
1991.27221
1969.121631
1991.115748
2018.250766
1985.661922
1955.643529
1953.386003
1985.326646
2011.522891
2012.126388
2004.951478
1996.927201
1973.256704
1974.798974
1982.443271
2001.151681
1998.670637
1994.580268
2000.726998
1991.383969
1964.36071
1969.389852
1979.381082
1990.221678
1999.497652
1988.120614
1977.637646
1973.122594
1976.251838
2013.042809
2031.594757
2009.131254
1965.210076
1965.00891
1961.075003
1963.690157
1977.30237
1982.152698
1980.744538
1977.168259
1941.628986
1940.869026
1987.695931
2006.046713
2014.898004
2005.174995
2014.987411
2022.676411
2046.458667
2026.945594
1985.214887
1990.713416
1999.788225
2024.732771
2027.973774
2004.124463
2014.227452
2030.231301
2035.372202
2031.035963
2010.159434
2003.409207
2013.020457
2007.991315
2012.573423
2005.376161
2007.209004
2009.287716
2018.250766
2015.277984
2018.295469
2028.398458
2031.594757
2014.674486
1998.06714
2015.121521
2028.063181
2023.190501
2034.053449
2025.492731
2017.468455
2013.422789
2015.725018
2020.083609
2013.802768
2006.225527
2001.732826
1999.028265
2042.681222
2047.062164
2024.553958
2011.746408
2016.864957
2015.166225
2004.392684
2034.366373
2070.19622
2032.131199
2005.040885
2024.375144
2026.476208
1997.575402
2013.042809
2051.800734
2051.48781
2024.151626
2022.765818
2033.651118
2035.72983
2023.81635
2019.010725
2035.551016
2025.828007
2032.824103
2064.965912
2094.470214
2076.633522
2020.061257
2003.386856
2011.411132
2038.032059
2032.578234
2016.484978
2056.226379
2086.669455
2055.198199
2041.340118
2022.966984
2008.728922
2035.171036
2064.809449
2028.979603
2027.79496
2040.870731
2040.311937
2026.655022
2042.211836
2039.171998
2030.253652
2032.421772
2022.631708
2038.121466
2070.978531
2053.052432
2043.55294
2043.776458
2034.142856
2040.513103
2044.022327
2047.799772
2058.126278
2042.413001
2038.076763
2045.117562
2042.502408
2042.100077
2055.287606
2046.615129
2045.609301
2054.81822
2044.223493
2049.476153
2044.894045
2044.938748
2053.074783
2043.351775
2029.516045
2046.771592
2058.170981
2048.067993
2050.258464
2037.965004
2032.801751
2037.093286
2046.950405
2070.978531
2083.182583
2054.05826
2033.405248
2030.99126
2053.588874
2081.34974
2047.710365
2007.209004
2021.983507
2046.793943
2035.171036
2024.285737
2038.009708
2042.681222
2017.200234
2036.310975
2028.890196
2009.220661
2016.887309
2031.88533
2025.22451
2024.442199
2021.402362
2033.002917
2035.483961
2051.510161
2049.163228
2039.015536
2036.981527
2043.03885
2026.163283
2046.123391
2045.050507
2023.525777
2015.367391
2037.383859
2058.461554
2058.059222
2026.431504
2036.6239
2049.073821
2028.621975
2030.99126
2036.780362
2056.181676
2062.104888
2028.867844
2014.428617
2012.618126
2016.194405
2048.403269
2055.242903
2047.39744
2051.420754
2033.181731
2022.676411
2021.022382
2023.145798
2028.063181
2045.609301
2056.718118
2035.260443
2043.41883
2028.420809
2004.795015
2028.621975
2030.164245
2039.328461
2056.673414
2044.603472
2036.400382
2016.484978
2001.91164
2016.663792
2013.601603
2027.124408
2029.516045
2040.066068
2061.032004
2057.567484
2011.545242
2001.822233
2019.837739
2014.428617
2018.206062
2030.588929
2034.276966
2049.029118
2037.830894
2031.482998
2022.810521
2017.379048
2023.034039
2044.603472
2061.523743
2031.684164
2031.706516
2040.758972
2028.845492
2020.240071
2019.569519
2019.301298
2027.772609
2054.102964
2037.517969
2030.566577
2039.261405
2038.054411
2023.972812
2022.676411
2020.552995
2026.319745
2051.934844
2048.313862
2038.30028
2026.051524
2023.682239
2016.104998
2035.886292
2059.221513
2064.04949
2037.115638
2026.25269
2026.431504
2035.193388
2042.413001
2030.655984
2018.720152
2037.696783
2022.40819
2025.984469
2045.072859
2067.737528
2041.362469
2010.405303
2016.395571
2031.751219
2024.352792
2029.784266
2059.489734
2046.324557
2032.53353
2039.171998
2022.676411
2019.010725
2037.2721
2034.053449
2030.141894
2039.663737
2041.027193
2038.054411
2042.681222
2016.50733
2021.916452
2037.517969
2031.594757
2034.768705
2046.011632
2035.282795
2029.985431
2029.739562
2040.021365
2047.732717
2041.49658
2021.022382
2006.65021
2028.286699
2047.129219
2043.888216
2041.027193
2039.954309
2040.60251
2045.654004
2048.850304
2035.72983
2015.725018
2004.929126
1993.015646
2008.192481
2037.942652
2069.324502
2049.632615
2022.765818
2019.502463
2031.304184
2042.748278
2058.394499
2067.022272
2049.31969
2021.245899
2020.083609
2032.377068
2043.910568
2052.292472
2053.968853
2045.542246
2028.912548
2009.690047
2026.565615
2049.230283
2060.763784
2056.047565
2045.631653
2042.368298
2044.245844
2044.715231
2048.626786
2057.075746
2045.899873
2026.431504
2036.713307
2042.077725
2008.125425
2033.315841
2060.875542
2059.333272
2027.616147
2000.838757
2003.655076
2026.900891
2052.717156
2045.922225
2030.566577
2028.241995
2035.86394
2038.501446
2035.998051
2048.738545
2047.576254
2043.977623
2053.968853
2050.303167
2038.68026
2037.965004
2033.606414
2041.585987
2040.937786
2035.707478
2032.801751
2054.706461
2045.98928
2033.382897
2036.445086
2043.93292
2053.343004
2040.647214
2036.154513
2037.853245
2031.304184
2031.862978
2050.034946
2066.128202
2051.040775
2023.726943
2022.251728
2030.588929
2036.310975
2063.15542
2062.194295
2030.99126
2024.263385
2042.949443
2050.929016
2031.594757
2018.764856
2027.325574
2040.289586
2050.996071
2058.126278
2064.608284
2059.288568
2037.361507
2018.742504
2025.60449
2035.595719
2029.001955
2027.549091
2050.973719
2057.791002
2061.74726
2042.413001
2034.724001
2032.041792
2031.572405
2035.059277
2040.200179
2044.111734
2055.444068
2053.745336
2056.338138
2058.059222
2063.311882
2062.440164
2028.711382
2012.059332
2025.246862
2040.066068
2042.256539
2032.846455
2051.756031
2096.683037
2064.652987
2032.310013
2040.289586
2037.674432
2026.900891
2045.095211
2071.939656
2046.704536
2017.267289
2020.195367
2029.896024
2031.840626
2039.641385
2046.36926
2062.663682
2082.064996
2057.38867
2033.94169
2033.494655
2050.638443
2057.90276
2035.103981
2023.615184
2026.878539
2042.033022
2046.592778
2049.252635
2050.638443
2041.429525
2040.960138
2033.695821
2027.102056
2037.048583
2069.659778
2056.472249
2026.073876
2019.770684
2010.114731
2013.467492
2051.912493
2070.822069
2064.988263
2055.309958
2058.997996
2042.413001
2052.359528
2062.373109
2046.056336
2060.517914
2046.346908
2012.528719
2023.995164
2040.334289
2049.409097
2064.876505
2075.985322
2062.775441
2039.037888
2037.517969
2040.244882
2059.735603
2056.561656
2042.167132
2055.645234
2049.342042
2040.08842
2038.68026
2033.360545
2036.467437
2035.148684
2038.054411
2050.07965
2052.270121
2070.464441
2063.960083
2032.91351
2035.21574
2045.899873
2031.818274
2036.668603
2045.765763
2045.788115
2034.276966
2037.316804
2040.60251
2039.999013
2040.513103
2039.976661
2034.478132
2054.95233
2056.963987
2054.929978
2039.171998
2034.589891
2059.646196
2054.95233
2050.07965
2064.720042
2063.088365
2052.046603
2047.978586
2030.588929
2047.889179
2069.257446
2083.562563
2088.032912
2058.238036
2051.979548
2059.735603
2065.614112
2045.519894
2036.109809
2042.994147
2053.655929
2069.30215
2087.138842
2080.254505
2059.534438
2043.083554
2041.429525
2039.082591
2048.000937
2071.582028
2082.266162
2067.558714
2056.896932
2044.223493
2051.532513
2041.295414
2043.865865
2055.399365
2070.933827
2069.749185
2043.105905
2024.442199
2030.030135
2065.725871
2085.551868
2052.381879
2055.734641
2053.052432
2048.090344
2051.376051
2033.092324
2018.071952
2036.176865
2044.670528
2028.264347
2054.371185
2045.72106
2027.951423
2046.101039
2074.778327
2061.23317
2061.859019
2060.182638
2056.338138
2033.382897
2023.548129
2045.251673
2073.973665
2050.370222
2020.754161
2031.795923
2037.495618
2043.619996
2058.483906
2074.599513
2043.776458
2041.831856
2040.066068
2029.627804
2035.506312
2023.503426
2030.09719
2046.346908
2032.824103
2043.821161
2074.107775
2083.562563
2084.009598
2061.881371
2018.831911
1999.430597
2003.811539
2024.732771
2055.33231
2059.601493
2046.570426
2056.047565
2042.055373
2029.96308
2041.921263
2043.821161
2040.736621
2052.672452
2058.036871
2062.194295
2056.718118
2040.736621
2029.20312
2017.781379
2026.856187
2072.341987
2079.338083
2047.017461
2049.856132
2029.5831
2021.715286
2040.513103
2044.44701
2050.750202
2047.956234
2044.715231
2034.500484
2001.308143
2014.383914
2038.456743
2055.488772
2054.013557
2040.244882
2030.186597
2036.221568
2048.135048
2042.636519
2049.856132
2078.9134
2108.529461
2067.51401
2007.834853
1979.559896
1992.81448
2038.81437
2046.033984
2037.942652
2055.958158
2065.211781
2070.911476
2065.100022
2042.100077
2017.736675
2003.923297
1998.156547
2019.435408
2058.483906
2083.562563
2061.076708
2044.089382
2068.341025
2057.791002
2029.650155
2022.631708
2014.71919
2003.923297
2021.648231
2041.094248
2060.71908
2065.882333
2056.785173
2023.861053
2008.550108
2020.284774
2043.865865
2036.780362
2030.186597
2050.616092
2057.679243
2059.512086
2029.784266
2004.303277
2008.348943
2036.780362
2048.738545
2056.226379
2050.034946
2037.853245
2043.172961
2038.948481
2034.992222
2030.410115
2019.301298
2035.21574
2034.724001
2044.201141
2065.681167
2063.825973
2043.575292
2016.395571
2017.401399
2016.686143
2025.202158
2031.795923
2035.171036
2067.737528
2079.919229
2041.071897
2030.052487
2028.577272
2037.227397
2055.8464
2051.398403
2027.66085
2025.582138
2034.880463
2039.70844
2041.585987
2040.98249
2031.348888
2012.573423
2005.599678
2035.148684
2079.919229
2049.18558
2012.41696
2017.781379
2044.514065
2054.102964
2028.286699
2019.748332
2025.380972
2022.810521
2025.87271
2049.252635
2033.606414
2019.614222
2029.001955
2049.632615
2070.33033
2063.334234
2025.403324
2022.363487
2043.262368
2036.154513
2033.695821
2063.870676
2092.212688
2061.791964
2026.63267
2018.496635
2040.848379
2032.53353
2044.268196
2057.880409
2047.77742
2022.072914
2021.51412
2041.429525
2059.6909
2072.140821
2063.490696
2025.895062
2008.237184
2042.882388
2053.92415
2031.259481
2009.310068
2019.770684
2050.638443
2046.436315
2038.836722
2066.418775
2085.19424
2042.547112
2006.13612
2022.519949
2044.894045
2031.415943
2010.159434
2017.267289
2013.199271
1994.60262
2006.493748
2014.71919
2020.687106
2044.379955
2022.855225
1988.299428
2010.405303
2013.713361
2005.532623
2014.249803
2024.106923
2002.984524
1980.789242
2016.596737
2042.569464
2020.061257
2003.364504
2015.590908
2014.674486
2019.882443
2034.254615
2014.830949
2018.139007
2024.218681
2010.204138
2011.969925
2011.679353
2022.765818
2039.171998
2020.955327
2012.774588
2021.916452
2033.360545
2029.605452
2016.484978
2001.889289
2008.795978
2014.58508
1984.298466
1981.437442
2019.010725
2044.201141
2032.980565
2026.386801
2023.190501
2015.702667
2008.795978
2024.33044
2044.268196
2028.68903
2016.082646
2021.067085
2007.946611
2014.160396
2035.953347
2025.805655
2027.705553
2029.694859
2012.618126
2005.554975
2028.309051
2033.315841
2029.024306
2032.511179
2048.649138
2077.527592
2059.892066
2040.110772
2029.337231
1999.944687
2018.407228
2043.41883
2050.638443
2048.447972
2039.753144
2030.879501
2031.527702
2036.489789
2065.07767
2044.201141
2026.900891
2034.724001
2039.529626
2032.980565
2046.458667
2059.802659
2059.981472
2041.876559
2021.536472
2034.031097
2047.889179
2043.262368
2062.104888
2049.006766
2032.377068
2012.863995
2008.036018
2033.740524
2031.147722
2020.575347
2043.977623
2053.588874
2051.644272
2070.263275
2058.28274
2030.141894
2027.839664
2024.352792
2032.578234
2048.224455
2045.005804
2023.905757
2029.918376
2032.958213
2037.517969
2060.428507
2054.527647
2031.482998
2029.247824
2051.867789
2056.293435
2040.244882
2039.619033
2053.678281
2062.618978
2064.56358
2047.688013
2020.955327
2016.060295
2029.739562
2057.209856
2077.080557
2062.64133
2030.723039
2039.641385
2044.871693
2052.873618
2053.633577
2028.733734
2028.644327
2030.231301
2021.581176
2040.490751
2060.830839
2072.163173
2052.203065
2040.043716
2037.629728
2065.323539
2074.666569
2041.541283
2023.011687
2031.728867
2028.577272
2037.450914
2062.753089
2062.864848
2052.761859
2030.454818
2008.103074
2029.44899
2059.646196
2068.095156
2062.574275
2062.50722
2054.326481
2050.21376
2056.472249
2064.273007
2051.688975
2037.160341
2051.264292
2047.375089
2035.059277
2038.412039
2042.748278
2076.231191
2081.573258
2068.40808
2059.266217
2027.727905
2029.06901
2040.960138
2026.990298
2027.727905
2049.006766
2078.01933
2071.827897
2045.251673
2051.308996
2056.382842
2047.91153
2028.577272
2018.496635
2045.497542
2057.455725
2070.509144
2074.778327
2046.190446
2031.639461
2054.080612
2063.311882
2053.141839
2046.056336
2053.588874
2052.873618
2027.817312
2017.066123
2026.230338
2045.452839
2051.130182
2049.520856
2055.287606
2040.60251
2029.627804
2031.907681
2045.542246
2057.500429
2055.824048
2041.63069
2057.858057
2042.100077
2031.840626
2040.60251
2057.791002
2051.845438
2010.293545
2017.781379
2048.29151
2059.132106
2051.24194
2046.23515
2049.051469
2041.742449
2035.618071
2039.328461
2048.023289
2066.10585
2081.305037
2080.656836
2076.722929
2046.324557
2031.617109
2043.284719
2024.755123
2025.828007
2051.130182
2060.897894
2065.278836
2067.558714
2066.508182
2082.914362
2059.601493
2061.881371
2050.72785
2027.66085
2013.378085
2035.618071
2071.35851
2037.830894
2019.793036
2047.062164
2059.6909
2054.393536
2045.966929
2056.919283
2052.784211
2047.933882
2037.160341
2065.167077
2060.182638
2046.88335
2068.721005
2068.542191
2047.620958
2075.672397
2071.917304
2042.90474
2025.202158
2032.91351
2040.60251
2039.06024
2051.197237
2074.286589
2077.482888
2078.444013
2063.289531
2024.933937
2021.067085
2043.843513
2047.486847
2065.390595
2080.098042
2061.255522
2051.353699
2042.971795
2046.995109
2072.386691
2069.905647
2038.792019
2023.30226
2019.860091
2049.252635
2064.42947
2064.004786
2064.697691
2056.159324
2038.322632
2035.618071
2043.619996
2041.071897
2051.197237
2080.254505
2071.291455
2046.279853
2037.048583
2033.092324
2070.375034
2075.493583
2049.073821
2046.525722
2038.568501
2035.662775
2043.150609
2068.296321
2063.267179
2048.470324
2040.200179
2076.432356
2066.530534
2042.591815
2050.392574
2063.334234
2060.808487
2050.124353
2038.456743
2044.357603
2052.024251
2044.9611
2038.344984
2050.705499
2074.264237
2060.517914
2073.951313
2084.277819
2058.238036
2032.980565
2032.53353
2044.268196
2049.632615
2070.062109
2052.560693
2025.939766
2044.335251
2046.212798
2046.23515
2054.013557
2061.076708
2063.602455
2054.43824
2057.142801
2073.772499
2056.271083
2035.975699
2025.760952
2025.515083
2050.794906
2062.954255
2044.692879
2045.162266
2058.483906
2078.958104
2049.520856
2032.689993
2026.655022
2033.651118
2036.512141
2045.34108
2075.717101
2066.99992
2036.556844
2017.826082
2030.834798
2042.368298
2049.677318
2029.314879
2019.122484
2042.323594
2050.280815
2036.37803
2048.470324
2051.174885
2046.391612
2045.832818
2034.388725
2044.469362
2067.491659
2058.506257
2038.568501
2039.015536
2022.587004
2030.276004
2045.318728
2050.034946
2059.892066
2045.050507
2044.670528
2049.476153
2051.018423
2038.903777
2032.175902
2034.008745
2046.168094
2044.111734
2047.732717
2065.83763
2058.573313
2052.337176
2054.997033
2076.633522
2075.739452
2070.911476
2059.757955
2051.599568
2044.335251
2050.034946
2053.566522
2064.652987
2072.431394
2054.102964
2025.828007
2025.336269
2035.506312
2037.741487
2039.641385
2053.365356
2083.450804
2079.092214
2042.636519
2030.365411
2041.854208
2041.206007
2048.984414
2069.168039
2074.93479
2066.932865
2070.755013
2070.442089
2049.766725
2047.106868
2051.845438
2042.971795
2037.674432
2043.307071
2056.382842
2075.270066
2060.361452
2066.86581
2037.428562
1999.385893
1992.747425
2005.48792
2021.38001
2008.728922
1989.774643
2009.444178
2039.507275
2042.994147
2020.754161
2017.177882
2020.128312
2028.443161
2015.792074
1989.640533
2000.168204
2019.413056
2031.818274
2034.858112
2036.735658
2046.481019
2041.697746
2037.987356
2025.917414
2005.10794
2015.032114
2009.399475
2002.80571
2023.30226
2046.726888
2046.905702
2033.002917
2017.513158
2006.337286
2010.382952
2008.348943
2008.43835
2023.548129
2029.918376
2017.490806
2006.985486
2013.042809
2011.478187
2009.153606
2011.0088
2006.404341
2003.096283
2014.227452
2036.668603
2035.327498
2023.369315
2020.307126
2003.69978
2015.389742
2043.709403
2032.622937
2010.897042
2022.832873
2026.051524
2027.035001
2057.813353
2062.864848
2062.529571
2026.543263
2035.506312
2049.967891
2057.76865
2044.983452
2026.342097
2027.303222
2032.757048
2024.799827
2045.318728
2042.994147
2032.175902
2031.281833
2036.936824
2058.997996
2066.99992
2051.130182
2036.310975
2040.177827
2050.59374
2035.238091
2007.119597
2033.4276
2087.340008
2055.175847
2014.607431
2022.519949
2036.154513
2051.823086
2039.350812
2039.127295
2045.050507
2028.398458
2022.810521
2029.292527
2010.204138
2032.175902
2065.301188
2050.638443
2045.654004
2032.131199
2004.683257
2013.914527
2044.715231
2045.117562
2014.33921
2003.409207
2010.807635
2028.599623
2043.597644
2055.019385
2055.555827
2044.82699
2033.695821
2028.018478
2036.6239
2034.478132
2028.376106
2045.452839
2047.553903
2044.268196
2045.788115
2020.977678
2022.005859
2047.77742
2036.735658
2018.116655
2038.456743
2048.962062
2034.45578
2020.86592
2018.720152
2016.552033
2010.897042
2006.5161
2015.970888
2042.591815
2061.657853
2046.548074
2037.294452
2034.768705
2033.628766
2021.536472
2020.687106
2014.942707
2041.831856
2042.703574
2042.14478
2044.357603
2061.657853
2053.611225
2014.495673
2010.673524
2037.473266
2022.430542
2021.603527
2026.878539
2032.01944
2023.078742
2009.153606
2019.480112
2040.311937
2039.842551
2039.462571
2039.149647
2025.850359
2015.836777
2023.749295
2050.012594
2035.528664
2011.858167
2020.642402
2041.250711
2051.711327
2034.32167
2036.445086
2032.310013
2004.817367
2002.023399
1998.916507
2016.395571
2034.522836
2033.94169
2050.370222
2062.663682
2058.774478
2044.82699
2017.893138
2024.84453
2028.443161
2034.433429
2043.776458
2034.276966
2031.103019
2026.900891
2020.86592
2032.354716
2059.087403
2076.946447
2078.131089
2026.967946
1991.674541
2011.522891
2026.11858
2027.236167
2013.288678
2037.875597
2045.542246
2028.733734
2034.478132
2034.791056
2022.296431
2019.368353
2018.876614
2008.885385
2036.936824
2063.5354
2057.053394
2053.41006
2052.806563
2015.702667
1998.96121
1999.832928
2007.611335
2027.258519
2036.176865
2046.346908
2057.969815
2040.021365
2036.735658
2021.089437
2002.068103
2002.313972
2018.742504
2043.150609
2047.285682
2035.014574
2041.49658
2039.864902
2015.143873
2025.448027
2034.142856
2019.100132
2021.290603
2035.014574
2028.778437
2032.39942
2037.942652
2047.620958
2046.793943
2031.192426
2016.909661
1985.997198
2008.214832
2046.23515
2046.615129
2052.337176
2058.014519
2019.346001
2007.790149
2002.045751
2006.761969
2030.298356
2044.9611
2015.568556
2018.653097
2023.481074
2028.465513
2046.324557
2047.017461
2024.598661
2006.069065
1999.98939
2024.33044
2027.906719
2032.488827
2038.434391
2035.34985
2035.707478
2037.719135
2028.577272
2008.728922
2000.794053
2023.123446
2025.380972
2016.753199
2035.103981
2060.920246
2054.617054
2022.966984
2010.740579
2007.521928
1996.189594
2004.660905
2039.06024
2061.255522
2041.250711
2015.523853
2002.559841
2035.707478
2045.47519
2042.189484
2021.558824
2013.199271
2030.007783
2029.918376
2030.320708
2050.146705
2056.226379
2022.765818
2010.785283
2004.929126
2015.657963
2031.862978
2038.792019
2038.68026
2031.415943
2030.365411
2063.893028
2058.908589
2015.501501
2027.884367
2035.059277
2030.164245
2036.020402
2003.476263
1980.141041
2008.885385
2013.355734
2021.335306
2054.304129
2049.409097
2036.780362
2023.481074
2042.770629
2032.086495
2021.469417
2015.389742
2031.684164
2058.305092
2043.128257
2038.434391
2024.19633
2018.094303
2023.861053
2027.79496
2049.856132
2054.102964
2044.603472
2040.289586
2030.343059
2027.169112
2028.55492
2041.049545
2040.781324
2036.646251
2025.760952
2025.939766
2038.948481
2033.382897
2012.126388
2015.993239
2039.641385
2034.947519
2014.607431
2006.605507
2037.003879
2055.309958
2064.205952
2036.869769
2015.300335
2005.867899
2013.556899
2001.799882
2018.966021
2039.797847
2044.648176
2032.287661
2037.674432
2048.8056
2045.274025
2026.543263
1999.564707
1999.631762
2018.384876
2022.519949
2049.520856
2087.340008
2059.869714
2022.430542
2010.986449
2016.529681
2021.961155
2028.845492
2030.007783
2023.481074
2037.070934
2015.993239
2017.624917
2039.57433
2048.872655
2041.161304
2042.01067
2033.338193
2010.517062
2015.881481
2025.269213
2028.890196
2053.499467
2050.07965
2010.025324
2010.047675
2036.109809
2042.994147
2018.0496
2008.080722
2031.952385
2060.249693
2062.037833
2033.986394
2018.787207
2014.898004
2018.18371
2046.816295
2047.866827
2001.732826
1996.65898
2024.039867
2062.864848
2048.693842
2024.084571
2019.010725
2030.052487
2047.866827
2040.714269
2028.353754
2018.56369
2017.043771
2016.596737
2021.983507
2015.032114
2004.862071
2016.395571
2041.921263
2073.839554
2071.425566
2039.239054
2035.171036
2018.6978
2002.313972
2019.97185
2042.413001
2061.322577
2067.3799
2034.500484
2000.548184
2015.479149
2016.328516
2048.582083
2057.813353
2023.726943
2006.158472
2008.863033
1992.859184
1991.518079
1996.860146
2015.322687
2034.388725
2053.253597
2047.889179
2020.195367
1993.753254
1997.55305
2007.767797
2019.390705
2021.759989
2010.047675
2005.644382
2012.908699
2000.525832
2002.716303
2017.133178
2021.022382
2018.720152
2008.192481
2005.532623
2007.611335
2027.750257
2022.363487
2008.974792
2030.074838
2045.654004
2010.964097
1980.11869
1967.735823
1969.903942
1985.393701
2013.780417
2048.045641
2048.895007
2008.147777
1988.120614
2006.449045
2028.756085
2015.970888
2007.499577
2038.948481
2012.953402
1988.165318
1998.268306
2015.143873
2020.061257
2023.905757
2019.122484
2001.196385
2001.174033
1995.764911
1990.847527
2031.237129
2050.571388
2048.760897
2010.897042
1989.439367
1977.391777
1995.608448
2017.446103
2007.320763
2002.29162
2017.915489
2023.861053
2011.411132
1994.356751
1984.074948
2005.48792
2028.331402
2052.381879
2051.756031
2022.810521
1992.859184
1975.737748
1989.171146
2027.325574
2038.769667
2009.444178
2006.449045
1999.832928
1985.348998
1981.459794
2003.655076
2013.31103
2019.994202
2014.942707
2017.043771
2018.0496
1991.562783
1983.06912
1997.329533
1999.676466
2032.332365
2054.81822
2041.518932
2018.675449
1991.406321
1995.049655
2025.269213
1996.211946
1975.044844
1986.645399
1995.474338
1993.350922
1999.877632
2030.834798
2065.770574
2032.01944
1993.015646
1982.957361
1977.458832
1974.508402
1990.802823
2031.840626
2033.025269
2007.946611
2003.744483
2023.257556
2030.343059
2009.33242
1986.868916
1994.826137
2009.33242
2014.562728
2005.778492
1999.721169
2005.264402
2021.491769
2014.2051
1997.284829
2009.622992
2007.588983
1984.47728
1997.508347
2044.491714
2048.738545
2027.14676
2001.844585
1999.922335
2014.674486
2031.594757
2022.519949
2015.210928
2000.302315
1973.435518
1992.725073
2021.581176
2033.025269
2024.866882
1994.155585
1988.858222
2017.110827
2039.686089
2032.846455
2004.146815
2000.950515
2024.308088
2020.396533
2022.184673
2033.092324
2020.262423
1986.600695
1980.275152
2012.79694
2016.484978
1992.412149
1999.072969
2045.609301
2055.8464
2013.17692
1996.033132
2001.688123
1999.967039
2007.253707
2005.219699
2010.785283
2025.22451
2017.915489
2012.975754
2012.484016
2003.900946
2007.812501
2007.54428
2024.33044
2027.124408
2008.103074
2004.862071
2020.754161
2027.459684
2023.190501
1993.239164
1991.562783
2030.119542
2060.026176
2021.447065
1985.103129
2007.611335
2019.07778
1997.55305
1994.781434
2011.791111
2021.089437
2006.963135
1983.493803
2002.001047
2013.914527
2024.643365
2040.133123
2028.890196
2020.798864
2008.505405
1981.79507
1976.54241
1984.142004
2032.086495
2038.590853
2012.036981
2016.976716
2002.29162
1989.037036
1993.283867
2000.302315
2015.389742
2039.797847
2041.63069
2017.624917
2017.423751
2002.336324
1993.417978
2004.862071
2028.063181
2005.554975
1999.34119
2000.190556
2018.496635
2035.528664
2032.779399
2009.108902
1983.091472
1986.332475
2021.201196
2048.917359
2044.938748
2015.076818
1978.956399
1964.159544
2001.866937
2056.405193
2044.916397
1972.139117
1955.688233
1972.854373
2000.436425
2024.464551
2055.555827
2040.557807
1989.461719
1991.071044
2007.901908
2015.836777
2015.054466
2044.514065
2067.066975
2027.169112
1998.849451
1986.958323
1993.529736
2012.863995
2042.01067
2033.181731
2013.981582
2012.484016
2014.540376
1999.452949
2002.626896
2002.269268
2004.526794
2024.084571
2025.068048
2021.871748
2019.167187
2018.6978
2035.394554
2021.536472
2000.525832
2022.698763
2050.370222
2044.759935
2020.552995
2017.133178
2029.71721
2020.374181
2012.595774
2020.508292
2007.566632
2035.930995
2078.846345
2051.979548
2016.596737
2003.409207
1986.332475
2020.150664
2045.788115
2034.053449
2043.575292
2056.271083
2016.797902
1985.304294
2015.188577
2078.801641
2077.50524
1988.96998
1975.246009
1977.034149
2022.519949
2060.517914
2047.129219
2047.442144
2041.518932
2011.589946
1999.631762
2020.284774
2040.289586
2042.278891
2031.482998
2010.204138
2022.341135
2089.821051
2040.736621
1968.160506
1992.568611
2032.310013
2068.162211
2050.616092
2011.299373
2007.320763
2043.105905
2041.965966
2015.657963
2010.785283
2019.301298
2023.749295
2031.818274
2071.537324
2085.238944
2021.022382
1995.317876
2039.551978
2047.285682
1993.529736
2000.905812
2048.246807
2050.236112
2045.430487
2041.384821
2015.479149
2017.848434
2003.342152
2026.140931
2038.970833
2050.347871
2065.435298
2045.98928
2012.640478
1976.251838
2038.389687
2074.264237
2012.662829
2035.86394
2040.356641
2014.58508
2030.454818
2006.225527
2024.799827
2050.303167
2022.430542
2019.033077
2029.985431
2048.537379
2024.933937
2023.458722
2045.139914
2034.612243
2032.354716
2002.582193
2015.345039
2026.878539
2037.093286
2066.776403
2054.393536
2009.555937
2003.029228
2040.423696
2046.838647
2031.952385
2041.451876
2042.055373
2026.319745
2000.23526
2025.962117
2036.802713
2024.911585
2041.764801
2056.226379
2039.19435
2044.379955
2065.07767
2000.74935
1979.962227
1986.354826
2004.906774
2077.840516
2106.808377
2061.277874
2022.430542
1985.952495
1987.42771
2010.517062
2033.204083
2066.843458
2049.476153
2045.631653
2030.410115
2032.108847
2054.661757
2030.298356
1991.763948
2004.862071
2021.312955
2045.922225
2033.539359
1992.926239
2015.367391
2082.042644
2088.256429
2025.000992
1994.692027
2007.387818
2022.296431
2016.328516
2033.919338
2048.67149
2035.774533
2068.631598
2059.512086
2003.252745
2000.972867
2060.830839
2057.634539
2021.134141
2024.822178
2029.672507
2028.309051
2018.295469
2039.037888
2047.26333
2016.932013
2024.799827
2059.512086
2061.523743
2052.873618
1994.379103
2000.123501
2029.158417
2047.173923
2038.076763
2025.112751
2034.344022
2017.244937
2025.760952
2051.308996
2059.065051
2051.711327
1996.726036
2018.518987
2034.299318
2019.167187
2035.662775
2063.200124
2021.558824
2029.136065
2026.655022
2002.582193
1985.974847
2060.853191
2055.824048
1997.508347
2017.759027
2083.763729
2040.647214
2006.940783
2009.555937
2014.58508
2049.610263
2056.896932
2025.336269
2018.0496
2018.340173
2013.646306
2048.403269
2075.337121
2063.870676
2017.423751
2012.484016
1992.747425
2005.532623
2082.713197
2054.773516
1982.867954
1977.771756
2024.442199
2075.158307
2048.626786
2050.794906
2064.384766
2032.310013
1958.795125
1984.030245
2069.30215
2063.848324
2001.956344
2028.420809
2045.408135
2019.189539
2014.808597
2037.450914
2042.301243
2038.568501
2037.294452
2035.930995
2007.231356
1982.68914
2023.861053
2027.571443
2003.431559
2032.645289
2064.138897
2043.888216
2021.51412
2029.270176
2042.234187
2026.029173
2042.211836
2032.645289
2038.903777
2030.678336
2004.258574
2033.539359
2020.821216
1998.670637
2009.220661
2021.983507
2049.342042
2044.044679
2069.369205
2091.85506
2065.144725
1993.395626
1966.819402
2005.979658
2004.035056
2009.578289
1994.200289
1991.071044
2033.204083
2045.788115
2040.401344
2007.209004
2004.146815
1995.720207
1991.808652
1997.865975
2024.598661
2044.201141
1999.296486
1985.997198
1985.371349
1999.654114
2039.753144
2056.718118
1986.757158
1969.456907
1975.916562
1984.700797
1985.393701
2015.434446
2071.693787
2049.453801
1981.348035
1963.84662
1975.849506
1992.836832
2001.978696
2005.554975
2017.110827
2019.658925
2028.845492
2041.518932
2000.816405
1976.184783
1983.426748
2005.823196
2020.642402
2000.704646
1983.940838
2008.326591
2043.463533
2017.848434
2014.003934
2034.858112
2043.664699
2028.331402
2015.836777
2026.833835
2013.17692
2003.945649
2016.149702
2035.081629
2039.753144
2021.804693
2000.324667
2010.159434
2039.57433
2061.411984
2049.677318
2007.54428
1998.871803
2031.527702
2040.915434
2046.212798
2029.225472
1996.90485
2016.932013
2022.676411
2036.37803
2032.01944
2038.277929
2045.676356
2018.787207
2008.237184
2027.482036
2029.001955
2041.809504
2027.839664
2009.220661
2010.070027
2038.121466
2060.406156
2056.963987
2019.323649
2011.344077
2022.072914
2023.592833
2021.759989
2040.624862
2047.39744
2051.532513
2024.442199
1996.971905
1997.329533
2032.39942
2046.615129
2043.642347
2019.927146
2011.25467
2028.17494
2059.489734
2054.05826
2034.500484
2025.671545
2004.571498
2000.726998
2034.83576
2032.041792
2035.21574
2047.933882
2077.751109
2050.146705
2025.403324
2023.30226
1992.948591
1998.290658
2013.735713
2024.419847
2034.656946
2025.87271
2045.095211
2074.890086
2074.375996
2033.919338
2012.372257
1996.636629
2003.364504
2023.726943
2075.940618
2079.494545
2044.44701
2002.582193
1989.685236
2016.999068
2052.6501
2069.793888
2042.971795
2006.00201
2025.336269
2033.382897
2049.967891
2048.090344
2059.042699
2029.06901
2033.80758
2021.00003
2015.814425
2038.054411
2040.535455
2029.180769
2001.643419
2023.43637
2038.68026
2035.103981
2021.558824
2034.992222
2064.42947
2061.859019
2031.147722
1994.200289
1978.531716
2002.962172
2040.311937
2062.842496
2064.317711
2063.289531
2042.435353
2030.141894
2029.44899
2064.94356
2101.220441
2101.958049
2084.255467
2072.431394
2062.238999
2052.203065
2053.857095
2076.566467
2075.113603
2075.851211
2058.930941
2076.678226
2093.665551
2080.790947
2084.188412
2084.03195
2068.810412
2041.340118
2044.82699
2065.636464
2071.000883
2070.307978
2080.612133
2074.577162
2075.694749
2079.025159
2076.298246
2094.067883
2089.03874
2067.983397
2079.092214
2076.968798
2045.944577
2046.436315
2047.308033
2069.413909
2058.640368
2076.85704
2068.050452
2064.116545
2069.279798
2079.628656
2088.949333
2105.623735
2095.587801
2066.888162
2022.497597
2019.502463
2054.170019
2104.841424
2104.126168
2081.327388
2055.175847
2053.722984
2050.370222
2053.41006
2061.993129
2077.12526
2096.07954
2100.728703
2113.603307
2085.685979
2042.614167
2045.564597
2045.430487
2079.092214
2109.043552
2077.974627
2062.775441
2072.386691
2060.495563
2061.791964
2085.06013
2117.067828
2085.395406
2036.556844
2035.014574
2044.290548
2057.053394
2084.434281
2072.364339
2072.811374
2060.115583
2056.047565
2062.015481
2072.699615
2088.211726
2086.915325
2049.945539
2060.316749
2061.791964
2053.700632
2062.931903
2080.656836
2084.54604
2057.858057
2046.615129
2052.873618
2082.62379
2105.020238
2059.6909
2028.353754
2029.493693
2077.460537
2088.077615
2066.418775
2060.808487
2072.543153
2065.211781
2055.779345
2075.851211
2074.666569
2044.916397
2048.67149
2090.715121
2099.633467
2092.704426
2041.228359
2025.269213
2038.859074
2070.643255
2084.389577
2100.505185
2059.512086
2038.68026
2082.735548
2061.367281
2064.742394
2049.342042
2025.112751
2047.598606
2063.334234
2097.063017
2106.361342
2065.122374
2060.920246
2080.656836
2068.162211
2058.930941
2034.545187
2018.116655
2046.346908
2067.402252
2092.324447
2117.336049
2110.272898
2042.569464
2019.793036
2045.788115
2063.244827
2064.116545
2060.741432
2067.916342
2070.933827
2074.107775
2051.510161
2019.524815
2055.667586
2097.286534
2098.761749
2111.546947
2105.959011
2094.581973
2039.171998
2024.822178
2023.034039
2031.728867
2084.54604
2105.735493
2087.451766
2082.154403
2051.308996
2049.029118
2060.853191
2068.005749
2072.990188
2057.634539
2056.449897
2064.56358
2074.353644
2063.222475
2092.346798
2108.797682
2059.400327
2043.977623
2058.573313
2072.140821
2077.952275
2052.51599
2029.896024
2055.265254
2059.109754
2061.032004
2079.181621
2100.147557
2093.464386
2053.901798
2050.839609
2065.994092
2054.170019
2053.968853
2081.237981
2069.235095
2025.671545
2048.470324
2087.87645
2076.99115
2072.744319
2054.393536
2053.767688
2089.7987
2078.9134
2056.87458
2095.900726
2090.603362
2030.208949
2020.10596
2058.729775
2088.323484
2081.550906
2086.691807
2080.902705
2063.088365
2062.797792
2057.925112
2046.928054
2042.502408
2042.457705
2039.261405
2030.030135
2011.187614
2007.67839
2030.700687
2060.048528
2088.815223
2073.52663
2013.467492
1993.932068
2025.716248
2050.124353
2042.591815
2055.824048
2064.787098
2034.008745
2035.841588
2063.580103
2060.20499
2024.129274
2018.18371
2035.886292
2056.829877
2057.209856
2017.200234
2031.460647
2051.666624
2060.517914
2064.340063
2051.443106
2039.686089
2027.571443
2002.381027
2018.809559
2057.031042
2075.96297
2057.455725
2061.702557
2010.405303
2002.112806
2020.307126
2042.971795
2067.424603
2062.417813
2033.382897
2012.349905
2020.798864
2028.934899
2032.332365
2035.72983
2060.026176
2089.731644
2072.029063
2010.740579
2005.934954
2014.272155
2020.307126
2044.402307
2064.652987
2068.519839
2038.188522
2010.114731
2015.143873
2057.299263
2047.106868
2038.747315
2041.094248
2047.509199
2039.171998
2005.62203
2023.525777
2035.103981
2034.232263
2054.639406
2055.734641
2058.081574
2052.314824
2033.271138
2027.213815
2048.269158
2037.607376
2026.319745
2007.186652
2031.527702
2057.679243
2061.032004
2040.624862
2041.49658
2031.482998
2025.582138
2046.011632
2045.452839
2035.461609
2038.076763
2052.583045
2036.020402
2029.896024
2041.876559
2051.264292
2030.521873
2044.06703
2072.185525
2081.237981
2098.694694
2068.564542
2040.423696
2034.545187
2065.122374
2061.926074
2057.411022
2071.537324
2075.96297
2038.032059
2030.745391
2048.626786
2053.141839
2048.045641
2049.453801
2057.366318
2062.686034
2069.168039
2082.847307
2057.858057
2049.587911
2043.776458
2038.792019
2068.586894
2078.131089
2061.277874
2050.191408
2056.271083
2083.249638
2062.931903
2024.241033
2039.283757
2042.994147
2051.912493
2060.629673
2077.013502
2093.754958
2090.4469
2072.543153
2051.420754
2032.466475
2010.964097
2028.756085
2052.381879
2074.510106
2060.897894
2053.946501
2066.418775
2056.226379
2046.033984
2052.359528
2057.098097
2063.289531
2074.375996
2082.333217
2072.319635
2021.916452
1997.843623
2013.042809
2060.540266
2073.101946
2062.618978
2055.913455
2090.245734
2098.828804
2070.598551
2063.378938
2060.830839
2066.35172
2085.887144
2100.147557
2091.47508
2073.839554
2066.86581
2057.120449
2101.175738
2131.976441
2087.250601
2051.666624
2038.859074
2067.849287
2077.080557
2084.858964
2097.197127
2102.449787
2098.024142
2089.910458
2069.056281
2069.011577
2069.369205
2068.452784
2061.724909
2068.363377
2074.375996
2084.434281
2097.331237
2108.976496
2087.87645
2054.840571
2038.501446
2044.022327
2064.04949
2080.813298
2101.399255
2121.426418
2079.94158
2041.787153
2030.298356
2034.96987
2059.579141
2067.536362
2067.692824
2099.141729
2105.959011
2075.314769
2038.121466
2041.518932
2044.625824
2045.050507
2057.90276
2060.71908
2057.880409
2091.162156
2058.640368
2040.758972
2036.646251
2042.323594
2067.692824
2071.559676
2070.777365
2073.548981
2069.838592
2049.520856
2034.83576
2035.327498
2049.923187
2072.140821
2070.442089
2053.03008
2052.918321
2063.602455
2058.305092
2036.154513
2036.959176
2042.90474
2061.121411
2074.93479
2074.331292
2094.514918
2127.237872
2088.859926
2026.565615
1993.306219
2006.5161
2027.236167
2034.545187
2061.769612
2072.11847
2073.593685
2076.141784
2050.794906
2053.879446
2023.81635
2008.751274
2039.619033
2065.122374
2050.638443
2063.825973
2083.227287
2075.337121
2043.93292
2037.2721
2065.502353
2067.581066
2031.684164
2043.150609
2056.025214
2056.628711
2035.774533
2033.561711
2037.160341
2041.809504
2050.996071
2046.726888
2068.676301
2083.406101
2058.595664
2060.920246
2048.000937
2073.303112
2081.573258
2046.860998
2020.709457
2036.087458
2040.066068
2040.557807
2048.515028
2033.092324
2073.571333
2092.74913
2071.447917
2068.184563
2052.583045
2037.205045
2041.898911
2038.993184
2063.311882
2082.087348
2077.102909
2071.269103
2055.667586
2055.444068
2080.947409
2083.070825
2049.118525
2033.919338
2050.59374
2058.41685
2074.443051
2065.278836
2039.283757
2043.888216
2025.515083
2048.8056
2081.617961
2055.824048
2070.129164
2074.487755
2052.851266
2034.724001
2020.262423
2051.24194
2079.472194
2093.285572
2078.466365
2090.089272
2118.811264
2125.29327
2104.215575
2104.506147
2111.479892
2111.234023
2103.880299
2084.68015
2067.223438
2089.351665
2123.37102
2137.296157
2138.145523
2113.066866
2104.439092
2073.392519
2049.789077
2072.029063
2094.045531
2110.898746
2113.782121
2117.023124
2097.979438
2100.594592
2124.600366
2113.200976
2107.009543
2122.052267
2129.227177
2100.236964
2097.130072
2102.561546
2083.361397
2089.731644
2121.985212
2112.262203
2107.054246
2109.311773
2101.399255
2115.68202
2132.512883
2130.612985
2114.564432
2100.885165
2107.99302
2113.133921
2109.91527
2091.385673
2100.840461
2102.807415
2105.109645
2093.509089
2103.679133
2104.439092
2116.598441
2123.88511
2114.340915
2117.023124
2097.152424
2084.501336
2072.833726
2092.637371
2099.655819
2120.308831
2133.965747
2127.595499
2107.478929
2091.653894
2088.412891
2079.315731
2108.238889
2158.418555
2141.095953
2112.955107
2092.324447
2074.085423
2067.178734
2093.710255
2092.056226
2099.298191
2131.931738
2139.106648
2082.981418
2023.30226
2031.751219
2077.751109
2097.420644
2102.673304
2100.81811
2080.433319
2058.41685
2049.587911
2070.419737
2080.500374
2057.947464
2085.507165
2118.073656
2110.496415
2057.947464
2030.141894
2053.655929
2072.341987
2077.751109
2094.559621
2101.242793
2097.733569
2096.012485
2081.081519
2065.390595
2062.194295
2080.254505
2089.239906
2099.92404
2097.24183
2069.30215
2066.642292
2095.341932
2083.026121
2068.117507
2087.429415
2068.944522
2068.162211
2090.648066
2071.336159
2053.365356
2072.856077
2067.3799
2095.833671
2108.998848
2081.930886
2052.359528
2037.965004
2067.670473
2088.859926
2087.071787
2067.469307
2061.859019
2066.686996
2091.810357
2120.599403
2082.333217
2055.622882
2056.226379
2057.299263
2066.597589
2088.658761
2097.912383
2074.130127
2081.595609
2071.157345
2058.439202
2060.875542
2080.075691
2082.7579
2083.830784
2097.532403
2087.764691
2077.751109
2070.486792
2067.402252
2081.662665
2077.929923
2076.007673
2076.186487
2065.83763
2081.081519
2092.167985
2084.747205
2090.648066
2117.201938
2099.856985
2063.043661
2051.867789
2046.659833
2054.549999
2106.562508
2128.578976
2086.267124
2065.815278
2062.350757
2058.349795
2055.913455
2101.600421
2117.537214
2070.039757
2050.303167
2050.280815
2066.239961
2084.568391
2068.341025
2074.979493
2086.669455
2087.697636
2104.79672
2094.023179
2063.557752
2082.266162
2102.986229
2095.341932
2070.911476
2070.218571
2052.314824
2044.759935
2066.754051
2095.118415
2100.192261
2082.154403
2072.923133
2050.906664
2047.688013
2077.12526
2088.077615
2102.829767
2127.819017
2134.859816
2085.842441
2052.113658
2062.171943
2095.498394
2118.207767
2098.158252
2067.290493
2067.89399
2060.115583
2067.648121
2066.48583
2087.228249
2107.009543
2076.141784
2069.81624
2086.200069
2082.355569
2069.413909
2060.875542
2064.317711
2078.444013
2101.756883
2102.159214
2098.448825
2099.432301
2076.901743
2063.557752
2047.330385
2057.969815
2061.926074
2058.685071
2076.924095
2081.237981
2082.37792
2088.479947
2111.144616
2104.349685
2094.112586
2100.326371
2123.907462
2078.53342
2049.69967
2046.972757
2064.384766
2087.965857
2093.26322
2099.164081
2083.048473
2095.006656
2091.698598
2072.051414
2075.940618
2099.521708
2110.474063
2071.917304
2070.978531
2065.167077
2057.656891
2066.664644
2078.086385
2093.978476
2102.87447
2098.873508
2086.736511
2085.685979
2085.238944
2081.908534
2076.745281
2085.440109
2094.961953
2095.252525
2092.615019
2077.50524
2072.76667
2064.608284
2084.613095
2096.548926
2083.763729
2097.979438
2108.350647
2090.201031
2080.768595
2079.762766
2076.253542
2078.846345
2085.305999
2087.854098
2080.410967
2084.322522
2089.888107
2092.056226
2099.186432
2081.34974
2074.219534
2075.404176
2102.87447
2081.975589
2078.846345
2085.283647
2081.059168
2070.777365
2098.582935
2142.191189
2083.78608
2060.428507
2087.183545
2091.519784
2078.01933
2088.01056
2089.575182
2089.128147
2080.053339
2073.258409
2078.756938
2098.314714
2104.327333
2070.240923
2062.931903
2079.539249
2092.994999
2082.266162
2106.294287
2115.704371
2081.975589
2081.036816
2069.145688
2051.264292
2089.55283
2112.597479
2107.411874
2072.498449
2057.343967
2072.699615
2073.817202
2093.240868
2092.950296
2081.819127
2088.703464
2079.606304
2067.111679
2076.901743
2085.395406
2078.309903
2082.936714
2110.541118
2122.61106
2081.439147
2062.976606
2058.528609
2070.33033
2079.80747
2088.681112
2071.716138
2069.68213
2073.14665
2086.445938
2093.062054
2085.57422
2051.420754
2059.020347
2086.110662
2079.29338
2078.801641
2094.045531
2090.82688
2079.360435
2069.905647
2096.861851
2100.035799
2070.687958
2073.906609
2080.880354
2087.563525
2075.918266
2071.693787
2071.649083
2070.375034
2063.624807
2093.062054
2124.622717
2117.872491
2101.198089
2074.465403
2056.159324
2071.827897
2097.912383
2087.921153
2082.579086
2070.933827
2067.290493
2083.048473
2077.281723
2073.683092
2075.895915
2072.520801
2081.908534
2091.944467
2112.329258
2101.667476
2074.845383
2075.58299
2072.76667
2096.750092
2090.536307
2076.946447
2088.167022
2078.712234
2060.964949
2061.411984
2064.56358
2079.382787
2093.799662
2093.106758
2088.323484
2106.07077
2121.426418
2082.355569
2069.749185
2044.268196
2054.728813
2098.64999
2092.659723
2064.161249
2056.382842
2075.96297
2109.468235
2134.368078
2106.808377
2079.360435
2068.743356
2062.820144
2054.527647
2073.057243
2089.530479
2106.696618
2097.845328
2103.723836
2098.717046
2084.233115
2082.869659
2089.597534
2063.5354
2049.230283
2054.304129
2065.725871
2068.0281
2091.139804
2097.063017
2095.945429
2084.099005
2073.593685
2088.748168
2091.028046
2096.683037
2083.316694
2069.123336
2073.638388
2090.737473
2074.778327
2078.220496
2120.085313
2111.390485
2068.318673
2064.965912
2072.587856
2050.370222
2065.234132
2085.015426
2099.02997
2105.936659
2094.537269
2092.570316
2067.134031
2074.465403
2089.016389
2068.676301
2077.974627
2103.746188
2092.458557
2078.153441
2063.490696
2055.354661
2067.715176
2089.642237
2115.860834
2111.792816
2069.145688
2056.047565
2075.0689
2086.267124
2093.442034
2083.808432
2055.444068
2081.930886
2108.931793
2096.191299
2087.921153
2065.636464
2093.576144
2094.403159
2073.951313
2077.840516
2098.180604
2094.961953
2081.372092
2067.245789
2054.549999
2075.292417
2067.692824
2050.705499
2070.822069
2093.933772
2082.646141
2103.500319
2099.588764
2054.527647
2061.479039
2091.206859
2079.986284
2090.625714
2081.014464
2073.884258
2085.305999
2097.510051
2089.262258
2091.698598
2092.659723
2058.305092
2069.525667
2109.781159
2073.258409
2061.188467
2083.227287
2077.50524
2091.765653
2083.674322
2087.183545
2088.859926
2067.446955
2064.675339
2061.635502
2075.247714
2082.7579
2087.63058
2081.34974
2071.917304
2081.416795
2097.957086
2097.353589
2084.881316
2087.004732
2083.27199
2072.610208
2099.208784
2096.236002
2062.596627
2071.023234
2083.629618
2070.509144
2082.7579
2087.49647
2074.778327
2092.771482
2140.715973
2110.496415
2084.322522
2062.931903
2065.010615
2075.091252
2075.96297
2097.577107
2131.037668
2094.917249
2045.430487
2019.97185
2037.517969
2105.668438
2136.290328
2135.55272
2096.97361
2063.423641
2049.476153
2063.244827
2098.672342
2114.296212
2073.817202
2048.403269
2068.676301
2104.237927
2100.43813
2064.742394
2048.559731
2053.54417
2089.284609
2100.05815
2067.782231
2090.178679
2106.249584
2071.760842
2073.437223
2085.507165
2085.909496
2067.51401
2080.567429
2102.986229
2088.412891
2073.750147
2077.751109
2075.627694
2082.087348
2098.64999
2066.35172
2074.800679
2115.726723
2095.006656
2060.786135
2053.052432
2062.171943
2081.439147
2088.368188
2057.366318
2073.169002
2089.083444
2078.511069
2081.260333
2092.525612
2109.982325
2134.569244
2095.69956
2045.519894
2072.431394
2078.622827
2087.474118
2090.871583
2108.820034
2106.964839
2066.776403
2064.876505
2089.753996
2118.520691
2125.963822
2074.063071
2035.528664
2045.944577
2044.134086
2084.54604
2110.652877
2104.103816
2110.630525
2081.327388
2060.428507
2059.82501
2080.053339
2097.688865
2091.698598
2095.118415
2076.61117
2090.111624
2097.644162
2097.10772
2089.642237
2069.927999
2066.686996
2073.705444
2075.739452
2073.14665
2101.533365
2094.000828
2060.20499
2049.923187
2059.489734
2081.416795
2102.270973
2103.656781
2109.334124
2091.653894
2079.583952
2083.65197
2082.042644
2067.335196
2060.070879
2064.1836
2063.580103
2065.703519
2082.936714
2109.043552
2112.038685
2102.606249
2084.188412
2072.699615
2091.609191
2097.398293
2100.661647
2084.099005
2090.916287
2113.89388
2109.356476
2094.269048
2084.926019
2088.189374
2095.029008
2130.434171
2124.130979
2091.095101
2083.495508
2088.636409
2096.168947
2119.079485
2116.173758
2105.780197
2081.059168
2062.64133
2069.838592
2080.008636
2101.354551
2118.006601
2106.003714
2108.663572
2099.454653
2092.480909
2102.203918
2113.357438
2120.599403
2113.938584
2097.308886
2097.577107
2103.612078
2106.249584
2123.125151
2146.527427
2126.857892
2080.813298
2055.153496
2066.754051
2066.552885
2092.816185
2113.178624
2120.420589
2108.685924
2101.421607
2104.863775
2105.646086
2104.79672
2099.477005
2115.793778
2113.491549
2095.207822
2089.262258
2093.531441
2104.260278
2117.22429
2109.892918
2074.666569
2061.121411
2091.564487
2124.510959
2131.216482
2109.691752
2106.33899
2097.733569
2096.07954
2086.580048
2087.518822
2104.372037
2085.730682
2076.275894
2083.741377
2099.700522
2095.408987
2110.697581
2126.18734
2099.856985
2062.328406
2056.271083
2099.92404
2122.879281
2113.268031
2083.383749
2083.115528
2077.281723
2097.085368
2105.131996
2122.767523
2105.1767
2102.606249
2095.006656
2084.702502
2085.283647
2079.762766
2094.939601
2116.531386
2089.105796
2079.986284
2095.744264
2101.421607
2099.856985
2112.172796
2127.059058
2115.68202
2085.753034
2087.921153
2110.518767
2084.948371
2081.997941
2075.605342
2086.803566
2120.062962
2129.13777
2094.134938
2075.337121
2082.221458
2088.301133
2099.477005
2112.552775
2123.773351
2156.965692
2133.11638
2058.506257
2037.562673
2037.495618
2019.278946
2044.871693
2081.327388
2106.115473
2103.90265
2098.448825
2109.043552
2060.20499
2041.63069
2035.036926
2019.301298
2032.757048
2066.016443
2080.187449
2078.980455
2078.801641
2080.656836
2070.933827
2056.74047
2061.300225
2093.374979
2081.081519
2055.287606
2042.658871
2025.336269
2038.121466
2066.508182
2079.114566
2075.96297
2084.613095
2096.72774
2071.626731
2055.265254
2029.605452
2042.480057
2085.037778
2088.681112
2031.035963
2023.257556
2043.642347
2068.721005
2075.404176
2079.561601
2081.21563
2047.352737
2030.320708
2046.726888
2059.735603
2063.825973
2069.212743
2083.674322
2069.592723
2085.216592
2074.823031
2040.08842
2033.584062
2046.860998
2060.540266
2065.144725
2065.167077
2101.063979
2089.753996
2051.823086
2046.212798
2025.939766
2051.308996
2084.210763
2068.341025
2065.323539
2072.811374
2048.962062
2045.72106
2066.798755
2079.628656
2057.187504
2038.076763
2034.388725
2073.571333
2089.977514
2092.413854
2073.884258
2049.811429
2046.391612
2060.987301
2060.316749
2070.933827
2060.249693
2062.440164
2050.906664
2060.093231
2060.897894
2043.664699
2039.864902
2042.591815
2059.802659
2092.972647
2082.914362
2065.278836
2048.470324
2009.399475
2009.913565
2040.98249
2060.026176
2071.425566
2092.570316
2102.449787
2083.584915
2062.037833
2044.983452
2045.72106
2045.810467
2052.314824
2053.767688
2052.873618
2048.067993
2056.785173
2076.789984
2065.904685
2060.652025
2069.413909
2074.331292
2064.362414
2050.884312
2058.349795
2069.860944
2066.10585
2061.277874
2061.61315
2061.74726
2039.619033
2036.065106
2035.483961
2055.377013
2084.434281
2119.325354
2075.560638
2041.071897
2057.38867
2040.781324
2044.178789
2082.020293
2081.148574
2045.050507
2036.89212
2040.826027
2054.147667
2060.964949
2070.240923
2060.58497
2073.101946
2060.875542
2056.069917
2061.389632
2061.814316
2056.941635
2052.583045
2085.440109
2092.436205
2069.324502
2041.407173
2018.518987
2027.392629
2051.845438
2065.301188
2110.921098
2123.013392
2077.460537
2071.380862
2081.237981
2064.764746
2066.955217
2113.960935
2105.579031
2042.077725
2048.917359
2079.472194
2076.253542
2082.824955
2101.890993
2069.212743
2050.705499
2068.966874
2069.235095
2079.002807
2090.581011
2097.912383
2095.498394
2084.724854
2082.847307
2110.094084
2075.717101
2062.037833
2086.289476
2080.433319
2065.345891
2053.432411
2064.720042
2067.335196
2073.258409
2090.804528
2111.83752
2097.24183
2065.390595
2055.33231
2079.896877
2085.395406
2074.197182
2085.775386
2090.625714
2067.89399
2059.556789
2073.817202
2064.161249
2066.686996
2062.686034
2064.675339
2088.457595
2088.658761
2084.233115
2088.837575
2073.14665
2065.815278
2075.247714
2093.419682
2083.383749
2071.894952
2064.652987
2073.593685
2087.541173
2086.892973
2083.316694
2068.005749
2062.395461
2078.53342
2072.856077
2061.009653
2073.392519
2089.016389
2088.502298
2097.532403
2125.673249
2120.264127
2076.521763
2037.473266
2039.775496
2052.471286
2067.670473
2097.912383
2129.875377
2119.370058
2039.686089
2028.443161
2043.351775
2053.320653
2086.356531
2077.549944
2076.566467
2093.978476
2092.480909
2051.308996
2043.083554
2065.770574
2086.669455
2094.783139
2104.997886
2107.545985
2069.905647
2051.24194
2063.960083
2051.197237
2053.92415
2075.471231
2087.071787
2080.209801
2086.311827
2082.087348
2064.988263
2073.504278
2056.74047
2073.839554
2088.926982
2085.797737
2084.568391
2058.975644
2072.386691
2068.050452
2049.766725
2047.062164
2065.97174
2089.195202
2089.619886
2076.253542
2078.153441
2082.981418
2064.898856
2053.700632
2059.400327
2097.085368
2078.466365
2027.414981
2026.789132
2050.839609
2082.1097
2104.953182
2094.492566
2046.525722
2027.392629
2064.027138
2084.501336
2070.687958
2075.44888
2078.622827
2063.468345
2048.693842
2051.979548
2066.10585
2110.764636
2119.414761
2053.097135
2027.996126
2069.257446
2084.858964
2075.717101
2078.823993
2048.000937
2023.771646
2055.153496
2094.514918
2080.276856
2063.66951
2056.248731
2063.624807
2054.482943
2065.480002
2078.823993
2084.054301
2086.714159
2085.082482
2068.698653
2050.817257
2048.515028
2052.13601
2052.404231
2053.387708
2065.502353
2075.851211
2089.977514
2089.150499
2064.004786
2037.2721
2059.847362
2098.024142
2064.921208
2038.277929
2061.255522
2069.168039
2064.161249
2056.628711
2051.085478
2051.197237
2073.370167
2079.606304
2052.0019
2057.723946
2089.03874
2069.81624
2058.618016
2053.54417
2059.646196
2069.883295
2093.732607
2078.064034
2045.251673
2035.774533
2031.237129
2060.629673
2075.761804
2064.764746
2051.823086
2076.275894
2114.385618
2094.269048
2065.502353
2043.240016
2051.711327
2074.957141
2073.548981
2057.791002
2049.878484
2033.874635
2032.980565
2049.140876
2071.559676
2094.380807
2103.433264
2080.947409
2057.925112
2059.065051
2036.042754
2053.052432
2097.063017
2089.284609
2048.179751
2043.821161
2056.449897
2056.829877
2069.860944
2079.896877
2061.210818
2068.944522
2082.601438
2123.818055
2121.873453
2098.202956
2074.353644
2046.391612
2062.529571
2077.728758
2079.025159
2100.371075
2087.384711
2067.916342
2065.681167
2062.708385
2087.854098
2102.829767
2094.2914
2084.858964
2090.625714
2079.203973
2063.557752
2070.598551
2071.939656
2072.878429
2076.119432
2079.695711
2099.521708
2079.986284
2075.359473
2079.628656
2085.887144
2094.693732
2113.268031
2093.285572
2067.111679
2037.517969
2070.218571
2095.788967
2087.652932
2072.274932
2068.117507
2079.606304
2085.238944
2088.144671
2092.927944
2076.834688
2065.703519
2074.331292
2103.075636
2086.490641
2081.372092
2099.365246
2100.460482
2085.663627
2071.112641
2065.949388
2059.534438
2065.614112
2093.330275
2110.652877
2090.022217
2065.323539
2052.717156
2074.93479
2067.89399
2060.808487
2079.025159
2083.27199
2097.644162
2112.575127
2103.053284
2115.883185
2117.134883
2086.624752
2048.850304
2039.06024
2056.584007
2064.831801
2064.787098
2062.417813
2062.775441
2059.959121
2053.790039
2067.558714
2081.416795
2074.68892
2067.961045
2090.938639
2081.752072
2033.092324
2028.331402
2040.200179
2043.463533
2048.67149
2095.230173
2077.616999
2053.03008
2055.131144
2061.166115
2062.976606
2062.753089
2061.970778
2081.126223
2076.722929
2097.130072
2078.108737
2029.158417
2033.002917
2066.530534
2068.899819
2072.096118
2069.413909
2044.290548
2061.255522
2094.492566
2061.881371
2041.340118
2041.854208
2045.452839
2076.722929
2090.268086
2091.542136
2072.543153
2054.326481
2056.628711
2058.483906
2058.685071
2053.946501
2063.043661
2075.739452
2074.755976
2065.368243
2067.692824
2053.991205
2057.25456
2072.386691
2063.133068
2063.893028
2073.772499
2054.795868
2050.526685
2087.675284
2070.822069
2053.633577
2042.100077
2040.60251
2044.938748
2064.608284
2086.423586
2078.086385
2064.161249
2082.042644
2081.260333
2064.161249
2073.727795
2089.910458
2076.320598
2051.979548
2052.381879
2044.625824
2054.035908
2096.191299
2076.879391
2034.478132
2017.513158
2044.648176
2083.897839
2068.609246
2075.851211
2112.061037
2124.957994
2084.68015
2057.947464
2093.084406
2123.303965
2094.626676
2080.187449
2091.966819
2104.036761
2115.637316
2109.132959
2107.054246
2121.694639
2126.433209
2125.181511
2111.725761
2092.078578
2095.297229
2089.485775
2098.761749
2124.622717
2139.218407
2118.923023
2095.096063
2084.747205
2086.110662
2098.024142
2106.406046
2124.287441
2148.807305
2142.168837
2129.13777
2110.027028
2077.818165
2066.418775
2102.785063
2129.27188
2122.85693
2107.545985
2094.112586
2095.878374
2103.76854
2117.760732
2122.365191
2136.849122
2117.537214
2081.86383
2077.751109
2102.114511
2120.68881
2124.3992
2100.862813
2090.178679
2093.77731
2096.168947
2118.610098
2137.609081
2129.78597
2109.490586
2085.57422
2098.314714
2112.709238
2108.395351
2101.667476
2112.418665
2128.198997
2122.253433
2108.350647
2078.131089
2078.645179
2104.103816
2120.889976
2088.189374
2043.374126
2020.597699
2030.410115
2046.324557
2067.558714
2077.751109
2039.641385
2013.333382
2006.046713
2027.727905
2024.263385
2055.824048
2058.640368
2052.113658
2044.178789
2031.460647
2024.553958
2031.997088
2077.348778
2095.632505
2033.204083
2023.034039
2044.849341
2064.116545
2057.00869
2033.360545
2026.76678
2029.605452
2034.925167
2023.726943
2019.59187
2027.906719
2052.426583
2068.363377
2071.60438
2038.747315
2002.783358
2014.652135
2042.569464
2047.017461
2047.240978
2059.601493
2051.063126
2045.631653
2053.186542
2058.79683
2028.599623
2019.45776
2020.061257
2024.933937
2038.881426
2072.856077
2066.575237
2026.63267
2029.5831
2058.081574
2054.661757
2028.644327
2011.679353
2009.377123
2018.295469
2033.651118
2049.587911
2062.50722
2077.929923
2073.750147
2032.846455
2027.616147
2052.203065
2031.147722
2006.337286
2031.527702
2057.567484
2056.718118
2050.794906
2029.493693
2038.926129
2046.615129
2045.430487
2053.968853
2029.024306
2016.283812
2018.608394
2035.327498
2034.656946
2010.740579
1991.227507
1969.725128
1967.869934
1992.345094
2025.202158
2013.489844
1941.003137
1927.323869
1961.16441
1989.305257
1984.633742
1958.482201
1983.337341
2026.655022
1994.60262
1946.16639
1950.502628
1970.77566
1975.447175
1973.524925
1967.646416
1978.151736
1979.135213
1986.980675
2036.37803
2015.590908
1941.56193
1922.227671
1943.752401
1965.075966
1965.433593
1974.977788
1984.030245
2001.643419
1989.841698
1981.571553
1960.829134
1981.124518
1975.737748
1951.597864
1953.900093
1974.530753
2006.560803
1996.033132
1978.487012
1976.475355
1967.601713
1967.534657
1956.269378
1973.793146
1972.519096
1969.278093
1979.448137
1993.596791
1970.529791
1950.189704
1961.522038
1970.887419
1954.123611
1940.936082
1953.184837
1958.258683
1947.261625
1945.875817
1943.685346
1941.181951
1945.339375
1942.299538
1943.528884
1951.03907
1963.46664
1960.605617
1960.851486
1972.496745
1974.083719
1960.00212
1940.287881
1933.448247
1945.428782
1967.668768
1966.439422
1933.627061
1938.835018
1945.540541
1964.248951
1975.424823
1967.378195
1936.264567
1923.389962
1948.110991
1971.245047
1968.764003
1979.783413
1949.407393
1921.82534
1938.812666
1967.981692
1987.9418
1993.328571
1944.422954
1920.752456
1922.495892
1926.854483
1943.215959
1968.987521
2003.565669
2010.025324
1958.258683
1906.402636
1902.021694
1925.15575
1973.010835
1990.802823
1982.085643
1966.662939
1978.911695
1990.780472
1995.809614
2014.8533
2025.582138
2035.238091
2062.574275
2071.962008
2039.19435
2021.737638
2035.998051
2034.366373
2058.595664
2087.11649
2062.775441
2031.326536
2031.304184
2041.876559
2041.206007
2035.506312
2033.539359
2053.074783
2079.628656
2051.286644
2043.530589
2062.440164
2065.345891
2031.035963
2028.957251
2028.532568
2033.248786
2018.206062
2012.662829
2028.845492
2063.445993
2055.555827
2042.927091
2057.656891
2056.561656
2058.014519
2057.276911
2027.616147
2035.595719
2061.054356
2042.055373
2030.343059
2036.89212
2042.413001
2055.622882
2075.560638
2058.640368
2034.478132
2026.431504
2042.256539
2058.170981
2054.840571
2075.828859
2040.781324
2005.934954
2023.861053
2029.493693
2034.142856
2046.503371
2042.502408
2024.442199
2028.778437
2046.458667
2041.250711
2041.518932
2049.431449
2067.178734
2066.172906
2059.981472
2051.688975
2044.983452
2055.622882
2060.629673
2068.296321
2056.338138
2045.095211
2050.996071
2036.37803
2037.339155
2034.724001
2059.556789
2066.910513
2048.850304
2063.15542
2066.731699
2032.332365
2038.121466
2039.551978
2048.626786
2056.829877
2036.310975
2035.394554
2063.781269
2073.772499
2057.746298
2037.808542
2049.207932
2056.606359
2048.492676
2040.870731
2040.110772
2070.151516
2076.566467
2074.308941
2074.219534
2015.367391
2005.152643
2031.080667
2063.200124
2045.050507
2025.984469
2033.29349
2047.576254
2059.869714
2044.715231
2049.632615
2062.64133
2055.734641
2030.074838
2032.220606
2026.006821
2027.705553
2066.910513
2076.432356
2067.849287
2059.065051
2063.557752
2082.512031
2092.145633
2094.716083
2066.239961
2069.235095
2092.413854
2105.579031
2104.237927
2092.994999
2084.456633
2118.364229
2091.34097
2051.756031
2066.552885
2084.635447
2099.074674
2112.709238
2101.46631
2060.093231
2056.047565
2083.763729
2083.629618
2080.992112
2082.154403
2114.162101
2117.380752
2066.731699
2051.174885
2074.957141
2097.353589
2089.508127
2106.026066
2129.830674
2096.861851
2042.90474
2033.069972
2067.357548
2081.573258
2066.10585
2101.9804
2144.00168
2095.006656
2064.407118
2064.295359
2075.471231
2088.859926
2110.339953
2120.711162
2070.039757
2046.726888
2061.881371
2097.957086
2137.474971
2104.059113
2077.952275
2064.764746
2066.396423
2086.803566
2124.198034
2111.636354
2072.207877
2091.47508
2066.172906
2057.411022
2071.939656
2089.865755
2092.88324
2105.914307
2115.190281
2093.889069
2070.397385
2060.540266
2047.978586
2064.787098
2101.131034
2105.69079
2086.691807
2067.692824
2091.408025
2098.314714
2082.310865
2073.034891
2103.925002
2095.543098
2055.891103
2076.007673
2120.085313
2061.255522
2013.221623
2045.430487
2076.052377
2097.532403
2092.011522
2088.457595
2059.288568
2026.900891
2045.385783
2076.566467
2088.368188
2117.559566
2097.510051
2045.698708
2047.598606
2055.108792
2061.411984
2094.425511
2115.503206
2085.440109
2069.905647
2061.568446
2084.724854
2068.966874
2028.286699
2054.57235
2079.203973
2100.929868
2088.703464
2085.417758
2072.409042
2070.576199
2073.705444
2080.366263
2071.917304
2066.239961
2060.830839
2074.241885
2069.525667
2062.686034
2054.929978
2063.5354
2103.38856
2113.558604
2067.983397
2054.281778
2076.588819
2079.382787
2062.775441
2060.920246
2073.347816
2078.175792
2083.78608
2084.769557
2066.731699
2061.166115
2056.159324
2077.102909
2092.033874
2085.440109
2073.213705
2070.240923
2075.851211
2085.663627
2088.971685
2073.794851
2065.211781
2066.10585
2083.897839
2088.926982
2079.069862
2060.629673
2081.528554
2080.478022
2080.656836
2088.770519
2096.057188
2098.091197
2088.971685
2073.571333
2060.249693
2063.490696
2101.041627
2087.787043
2063.825973
2095.677208
2113.983287
2071.023234
2044.782286
2053.499467
2084.881316
2094.604325
2065.614112
2041.295414
2046.011632
2064.04949
2072.386691
2074.197182
2065.949388
2066.061147
2105.601383
2101.756883
2049.766725
2060.20499
2078.287551
2069.860944
2076.655874
2089.93281
2102.382732
2092.167985
2060.316749
2046.928054
2066.776403
2063.423641
2073.996016
2075.359473
2076.566467
2103.433264
2094.894897
2058.349795
2039.082591
2043.240016
2059.757955
2079.315731
2110.295249
2088.479947
2061.546095
2052.694804
2051.890141
2052.895969
2078.153441
2080.030987
2079.315731
2098.158252
2084.099005
2054.326481
2050.504333
2043.888216
2038.903777
2057.321615
2076.074728
2074.666569
2069.883295
2079.80747
2087.697636
2072.543153
2038.277929
2029.471341
2033.606414
2044.156437
2058.170981
2072.654912
2103.612078
2110.921098
2080.813298
2066.597589
2038.032059
2041.809504
2076.320598
2080.992112
2052.448935
2065.748223
2062.797792
2049.096173
2034.388725
2068.206914
2094.649028
2089.977514
2059.020347
2048.447972
2055.600531
2042.52476
2061.188467
2087.272952
2082.713197
2087.250601
2054.594702
2024.531606
2027.549091
2049.207932
2062.820144
2073.951313
2058.439202
2046.682185
2055.198199
2071.045586
2073.14665
2064.831801
2061.054356
2055.600531
2052.359528
2062.887199
2061.210818
2049.520856
2063.445993
2061.590798
2043.910568
2046.928054
2056.092269
2053.722984
2055.891103
2080.120394
2058.752127
2060.406156
2074.331292
2070.464441
2048.224455
2035.975699
2065.032967
2063.66951
2036.668603
2031.706516
2041.854208
2046.682185
2064.831801
2084.68015
2107.054246
2097.353589
2073.973665
2025.246862
2016.082646
2048.000937
2067.625769
2056.986339
2044.9611
2051.845438
2050.034946
2054.81822
2083.942543
2113.066866
2083.026121
2031.639461
2030.879501
2050.481981
2028.957251
2029.44899
2047.956234
2055.309958
2072.721967
2064.809449
2063.66951
2069.905647
2074.487755
2088.345836
2060.786135
2023.861053
2034.768705
2058.573313
2048.336214
2050.794906
2071.023234
2078.958104
2074.845383
2066.575237
2051.353699
2038.747315
2051.264292
2043.79881
2062.440164
2098.627639
2080.969761
2044.871693
2036.556844
2065.167077
2084.747205
2070.71031
2034.746353
2036.579196
2054.594702
2068.78806
2054.102964
2052.918321
2059.154458
2084.233115
2090.536307
2040.4684
2028.845492
2065.502353
2076.879391
2065.815278
2054.237074
2071.783194
2057.656891
2045.497542
2045.72106
2048.380917
2048.29151
2063.043661
2052.918321
2061.344929
2074.666569
2061.970778
2044.737583
2052.158362
2085.104833
2087.138842
2077.50524
2040.155475
2050.526685
2055.8464
2057.232208
2063.66951
2095.207822
2083.607266
2044.9611
2029.225472
2036.556844
2041.921263
2067.469307
2077.594647
2074.107775
2073.683092
2073.325464
2083.897839
2068.676301
2034.947519
2031.684164
2052.560693
2062.417813
2070.33033
2061.635502
2058.483906
2065.569409
2062.462516
2052.337176
2050.303167
2051.577217
2058.729775
2061.74726
2060.182638
2069.793888
2080.120394
2078.198144
2088.167022
2065.792926
2060.20499
2040.155475
2027.459684
2045.654004
2068.475135
2064.496525
2076.499412
2119.705334
2100.81811
2046.503371
2030.253652
2037.920301
2063.893028
2092.257391
2087.474118
2049.096173
2034.83576
2029.113713
2041.675394
2055.041737
2064.831801
2068.542191
2072.945484
2084.233115
2088.748168
2086.580048
2057.969815
2061.993129
2060.137935
2054.885275
2044.983452
2030.365411
2050.169057
2071.269103
2064.854153
2032.622937
2007.276059
2006.00201
2020.843568
2043.597644
2067.022272
2057.343967
2039.507275
2032.310013
2037.920301
2037.093286
2034.746353
2038.389687
2040.535455
2041.764801
2044.648176
2045.564597
2044.424658
2055.08644
2048.000937
2036.176865
2051.197237
2063.334234
2055.399365
2056.718118
2061.23317
2070.084461
2043.03885
2017.15553
2028.465513
2029.605452
2034.142856
2030.298356
2032.868806
2023.30226
2036.199216
2066.597589
2080.902705
2058.170981
2027.884367
2006.381989
2025.582138
2041.943615
2051.018423
2054.080612
2044.178789
2036.89212
2044.335251
2049.163228
2055.913455
2049.56556
2050.683147
2050.817257
2039.127295
2051.62192
2049.18558
2036.176865
2020.240071
2017.781379
2033.449952
2058.66272
2038.836722
2019.860091
1996.256649
2008.728922
2042.234187
2053.208894
2048.224455
2060.450859
2060.093231
2055.488772
2064.384766
2060.942598
2029.851321
2037.048583
2045.117562
2044.871693
2043.351775
2036.020402
2040.915434
2024.889234
2032.064144
2063.758917
2069.771537
2060.3391
2054.348833
2040.535455
2027.66085
2024.419847
2050.705499
2044.536417
2055.220551
2046.503371
2036.221568
2060.741432
2045.519894
2018.407228
2026.990298
2042.14478
2069.43626
2079.203973
2074.443051
2034.433429
2010.025324
2023.391667
2043.754106
2068.430432
2056.382842
2055.868752
2043.575292
2041.63069
2035.014574
2042.323594
2048.000937
2047.442144
2052.270121
2040.937786
2048.447972
2048.492676
2040.110772
2022.207024
2023.30226
2043.240016
2070.755013
2064.496525
2029.806617
2032.712344
2042.345946
2030.365411
2024.151626
2031.684164
2029.851321
2030.879501
2038.747315
2045.72106
2080.70154
2061.546095
2025.984469
2044.044679
2047.553903
2062.216647
2025.045696
2028.733734
2044.089382
2041.764801
2031.862978
2041.429525
2028.778437
2012.081684
2034.098152
2058.550961
2071.2244
2050.929016
2004.482091
2014.048638
2035.21574
2058.081574
2070.464441
2054.147667
2061.680205
2076.186487
2064.608284
1998.402417
1992.859184
2033.651118
2053.16419
2051.130182
2068.296321
2067.290493
2026.543263
2002.068103
2028.331402
2056.427545
2048.962062
2034.031097
2048.313862
2036.6239
2039.328461
2066.10585
2055.667586
2018.630745
2024.464551
2050.59374
2048.447972
2032.310013
2036.780362
2050.146705
2059.132106
2070.665606
2056.159324
2018.831911
2001.174033
2017.937841
2048.470324
2069.81624
2097.063017
2091.363322
2050.839609
2050.07965
2012.685181
1994.714379
2019.837739
2044.268196
2050.236112
2055.488772
2076.387653
2065.167077
2027.504388
2026.006821
2053.588874
2048.135048
2004.817367
1999.050617
2017.557862
2052.940673
2090.849232
2093.26322
2055.46642
2031.393591
2018.518987
2024.598661
2060.853191
2068.564542
2046.36926
2035.372202
2014.048638
2031.281833
2062.864848
2052.314824
2012.081684
2024.777475
2074.577162
2100.214613
2059.892066
2038.568501
2083.830784
2126.924947
2110.339953
2038.233225
2056.941635
2071.403214
2054.080612
2062.842496
2066.709348
2048.827952
2063.647159
2086.244772
2081.081519
2094.67138
2094.626676
2070.978531
2038.389687
2044.603472
2075.292417
2091.966819
2110.764636
2130.143598
2094.917249
2078.086385
2079.248676
2102.092159
2113.491549
2121.158197
2132.065848
2135.150389
2104.483796
2103.567374
2125.539139
2104.170871
2073.392519
2100.43813
2133.719877
2132.155255
2110.56347
2094.961953
2106.227232
2121.001735
2119.079485
2116.039648
2117.60427
2103.477967
2097.532403
2125.583842
2118.297174
2133.205787
2150.416631
2133.339898
2102.22627
2087.675284
2090.089272
2101.712179
2116.017296
2107.255412
2103.343857
2124.846235
2136.737363
2122.208729
2111.010505
2107.076598
2086.736511
2101.712179
2121.649935
2118.855967
2106.227232
2131.529406
2127.997831
2121.940508
2101.645124
2071.649083
2096.571278
2113.111569
2114.944412
2120.889976
2136.245625
2114.40797
2132.110552
2124.77918
2116.240813
2103.38856
2100.460482
2125.360325
2099.208784
2096.571278
2116.173758
2125.337973
2138.503151
2151.802439
2135.306851
2106.137825
2113.536252
2096.72774
2085.618923
2092.391502
2085.440109
2077.751109
2067.715176
2056.427545
2079.628656
2097.174775
2118.341877
2104.103816
2060.897894
2053.812391
2073.52663
2056.785173
2068.92217
2092.927944
2098.270011
2083.249638
2070.173868
2090.715121
2103.276801
2085.507165
2077.415833
2090.201031
2089.441072
2097.711217
2085.082482
2089.374016
2082.869659
2078.77929
2055.645234
2058.618016
2107.657743
2146.05804
2116.263165
2073.370167
2079.80747
2080.723891
2059.266217
2053.16419
2073.124298
2102.382732
2096.057188
2092.480909
2102.583897
2093.77731
2091.832708
2082.7579
2060.361452
2056.785173
2069.033929
2077.907572
2074.420699
2068.452784
2068.92217
2075.113603
2088.323484
2085.216592
2061.61315
2066.709348
2070.129164
2079.740415
2120.264127
2128.578976
2070.397385
2035.618071
2051.711327
2069.749185
2064.496525
2061.300225
2095.386636
2092.927944
2064.831801
2065.435298
2080.679188
2062.50722
2052.381879
2086.334179
2090.692769
2096.571278
2064.787098
2054.393536
2054.192371
2035.595719
2046.011632
2055.891103
2070.486792
2097.130072
2079.740415
2074.890086
2054.773516
2042.815333
2014.138045
2009.444178
2046.168094
2071.917304
2060.562618
2056.561656
2045.274025
2037.316804
2057.723946
2073.481926
2074.778327
2076.007673
2068.341025
2069.525667
2081.372092
2087.317656
2048.582083
2024.375144
2021.089437
2043.55294
2076.722929
2059.355624
2040.177827
2045.765763
2056.561656
2068.653949
2070.263275
2057.321615
2064.697691
2078.935752
2056.181676
2043.329423
2067.916342
2085.216592
2060.003824
2038.948481
2038.456743
2056.673414
2060.450859
2054.43824
2081.193278
2077.840516
2078.846345
2056.002862
2032.935862
2019.189539
2032.108847
2047.39744
2053.454763
2065.59176
2057.90276
2076.655874
2094.067883
2040.781324
2022.609356
2039.842551
2043.664699
2080.142746
2077.773461
2029.113713
2014.607431
2058.863885
2074.398348
2046.525722
2047.486847
2053.432411
2061.657853
2071.090289
2051.979548
2015.993239
2017.244937
2044.424658
2075.292417
2083.562563
2054.840571
2027.057353
2040.513103
2027.951423
2033.718173
2058.752127
2080.410967
2110.585822
2068.586894
2020.687106
2039.686089
2066.642292
2048.8056
2058.081574
2044.536417
2023.011687
2048.202103
2041.697746
2035.886292
2056.651063
2085.842441
2087.854098
2044.804638
2024.084571
2057.791002
2070.442089
2070.442089
2063.5354
2006.158472
2011.232318
2042.927091
2068.475135
2050.817257
2052.940673
2074.487755
2051.756031
2036.869769
2029.404286
2023.30226
2028.018478
2044.670528
2088.211726
2098.270011
2093.911421
2030.521873
2005.130292
2032.622937
2074.331292
2077.281723
2053.879446
2054.57235
2054.929978
2039.931958
2045.430487
2073.303112
2095.18547
2049.297339
2026.163283
2033.986394
2039.775496
2046.212798
2082.780252
2090.82688
2075.225362
2057.567484
2020.977678
2048.112696
2102.986229
2100.549889
2053.275949
2055.578179
2035.260443
2030.052487
2054.773516
2085.238944
2080.522726
2055.108792
2043.776458
2030.790094
2030.812446
2044.894045
2062.417813
2100.371075
2134.971575
2066.284664
2019.748332
2032.488827
2066.552885
2080.746243
2060.20499
2053.92415
2071.984359
2078.645179
2080.522726
2067.625769
2051.711327
2035.059277
2052.024251
2070.307978
2062.820144
2067.916342
2050.370222
2055.824048
2060.808487
2068.206914
2079.651008
2080.992112
2071.403214
2048.962062
2044.379955
2070.307978
2076.99115
2069.413909
2072.163173
2062.417813
2055.153496
2031.304184
2052.13601
2090.648066
2086.289476
2083.070825
2069.123336
2077.751109
2060.026176
2045.966929
2048.336214
2047.956234
2064.675339
2084.724854
2076.298246
2052.895969
2037.316804
2038.903777
2050.21376
2083.070825
2095.163118
2048.693842
2049.230283
2079.516897
2108.462406
2115.637316
2086.021255
2050.973719
2074.063071
2062.082536
2055.019385
2070.509144
2087.049435
2093.710255
2122.164026
2103.120339
2066.932865
2074.17483
2092.659723
2109.602345
2069.413909
2046.548074
2059.601493
2051.063126
2064.474173
2105.69079
2135.887997
2106.786025
2061.300225
2049.476153
2075.96297
2088.994037
2106.294287
2075.247714
2056.069917
2052.583045
2062.440164
2065.59176
2100.505185
2119.772389
2102.270973
2057.835705
2030.186597
2036.802713
2062.373109
2096.124243
2122.566357
2149.76843
2110.205842
2046.860998
2040.177827
2063.468345
2077.527592
2088.725816
2068.832763
2055.555827
2079.472194
2109.445883
2084.456633
2064.04949
2084.948371
2100.214613
2089.910458
2067.737528
2080.790947
2081.148574
2064.764746
2062.26135
2072.610208
2110.541118
2112.664534
2066.619941
2069.81624
2075.270066
2076.879391
2071.693787
2089.195202
2108.462406
2061.411984
2045.117562
2069.458612
2098.158252
2115.100874
2087.988208
2063.557752
2079.718063
2070.486792
2055.33231
2069.905647
2045.162266
2066.530534
2079.248676
2064.541228
2097.398293
2097.644162
2062.12724
2052.471286
2055.377013
2055.287606
2043.776458
2050.21376
2082.936714
2074.93479
2062.484868
2074.644217
2074.845383
2063.602455
2053.879446
2062.216647
2047.665661
2053.477115
2087.898801
2109.043552
2101.3322
2063.848324
2075.694749
2072.006711
2062.775441
2051.085478
2087.451766
2059.422679
2024.621013
2041.518932
2082.24381
2072.945484
2042.569464
2075.426528
2099.499357
2060.137935
2059.735603
2061.568446
2067.871638
2099.477005
2070.017406
2045.810467
2055.511124
2071.917304
2073.034891
2042.278891
2055.220551
2098.940563
2117.112531
2085.998903
2046.23515
2062.417813
2093.531441
2045.519894
2038.099115
2063.311882
2090.916287
2107.456578
2075.046548
2063.15542
2050.973719
2047.956234
2057.38867
2053.901798
2047.352737
2061.076708
2066.083499
2054.147667
2056.941635
2070.419737
2085.909496
2087.921153
2057.411022
2063.468345
2044.648176
2043.329423
2072.565505
2074.890086
2064.407118
2071.716138
2086.356531
2091.251563
2103.030932
2075.650045
2046.346908
2048.067993
2069.637426
2072.096118
2085.9542
2102.405083
2095.856022
2051.48781
2066.195257
2081.640313
2089.843403
2077.684054
2060.741432
2099.879336
2098.918211
2044.648176
2063.893028
2054.661757
2030.030135
2038.657908
2082.087348
2099.097025
2092.167985
2060.652025
2064.451821
2065.658816
2071.157345
2058.729775
2065.144725
2082.780252
2087.787043
2073.437223
2058.863885
2075.985322
2065.256484
2066.038795
2061.523743
2073.258409
2072.319635
2082.735548
2068.631598
2060.026176
2051.174885
2050.102001
2075.96297
2069.927999
2067.111679
2080.276856
2066.195257
2079.963932
2095.476043
2102.963877
2082.869659
2075.761804
2073.392519
2095.520746
2115.68202
2100.326371
2073.437223
2084.389577
2109.132959
2099.342894
2088.234077
2063.490696
2072.498449
2097.577107
2097.532403
2108.954145
2103.343857
2084.16606
2077.974627
2072.878429
2078.131089
2108.194185
2120.465293
2087.250601
2053.588874
2061.501391
2075.96297
2080.142746
2077.952275
2075.627694
2085.685979
2076.633522
2084.456633
2102.49449
2107.210709
2118.185415
2088.345836
2055.46642
2055.220551
2072.833726
2101.041627
2124.622717
2062.417813
2028.152588
2057.791002
2088.591705
2111.949278
2108.976496
2107.009543
2099.186432
2059.243865
2036.780362
2056.338138
2073.66074
2086.6024
2071.783194
2083.093176
2102.941525
2080.880354
2086.557697
2098.314714
2083.428452
2088.368188
2062.529571
2055.399365
2063.222475
2069.235095
2088.859926
2104.841424
2092.615019
2077.639351
2087.809394
2087.138842
2099.365246
2084.635447
2076.99115
2090.223383
2071.962008
2081.439147
2104.394389
2099.275839
2069.235095
2052.784211
2059.780307
2056.114621
2064.317711
2109.937621
2138.391392
2079.539249
2050.750202
2066.530534
2067.737528
2071.917304
2086.803566
2108.104778
2117.134883
2075.515935
2047.64331
2079.136917
2102.49449
2089.888107
2083.540211
2089.530479
2091.430377
2089.888107
2070.33033
2069.480964
2069.033929
2066.888162
2057.612188
2059.892066
2087.87645
2068.855115
2085.06013
2095.878374
2118.543043
2092.994999
2055.555827
2054.102964
2049.610263
2061.836667
2084.836612
2096.683037
2091.609191
2078.064034
2062.373109
2025.313917
2026.610318
2069.324502
2093.330275
2123.728648
2127.416686
2106.786025
2085.440109
2066.798755
2071.716138
2065.323539
2061.702557
2065.59176
2074.733624
2101.421607
2094.939601
2060.875542
2065.792926
2096.839499
2096.906554
2069.927999
2074.621865
2076.410005
2087.742339
2066.754051
2075.515935
2093.240868
2075.895915
2072.207877
2070.017406
2073.593685
2087.742339
2090.066921
2084.836612
2072.587856
2056.047565
2045.050507
2087.652932
2095.788967
2046.033984
2039.864902
2044.402307
2044.111734
2059.17681
2073.169002
2063.5354
2064.273007
2058.550961
2057.366318
2080.32156
2074.845383
2045.095211
2050.616092
2067.066975
2053.834743
2038.322632
2045.654004
2056.74047
2061.590798
2040.647214
2034.32167
2071.112641
2074.599513
2039.529626
2048.403269
2055.824048
2044.201141
2044.424658
2055.175847
2077.304074
2081.372092
2054.035908
2044.134086
2054.974682
2060.383804
2019.122484
2039.350812
2055.198199
2059.355624
2068.721005
2067.201086
2046.950405
2064.094193
2064.720042
2043.642347
2044.469362
2046.481019
2059.914417
2067.603417
2090.804528
2091.117453
2036.266272
2006.00201
2011.098207
2044.424658
2076.365301
2076.946447
2058.573313
2046.190446
2050.034946
2027.772609
2020.10596
2018.56369
2038.747315
2054.527647
2039.015536
2045.98928
2039.171998
2009.578289
2014.383914
2028.085533
2027.347926
2039.306109
2051.152533
2072.431394
2048.447972
2030.633632
2009.511234
2012.618126
2046.23515
2046.905702
2051.644272
2039.909606
2032.488827
2015.814425
2014.115693
2014.160396
2010.561765
2023.905757
2045.72106
2062.998958
2065.748223
2030.61128
2023.749295
2033.94169
2036.668603
2035.72983
2037.987356
2035.282795
2023.972812
2027.772609
2049.207932
2066.731699
2076.499412
2081.886182
2061.769612
2024.553958
2003.565669
2021.089437
2015.635611
2051.711327
2073.392519
2032.354716
2032.578234
2042.770629
2032.153551
2028.085533
2039.306109
2024.084571
2037.965004
2047.442144
2060.048528
2058.930941
2044.670528
2038.367336
2029.985431
2018.94367
2023.145798
2031.639461
2042.211836
2062.082536
2091.586839
2065.994092
2040.200179
2015.479149
2010.740579
2049.274987
2042.971795
2027.303222
2040.22253
2073.973665
2075.96297
2059.959121
2034.791056
2017.066123
2017.66962
2028.107885
2031.237129
2042.301243
2071.917304
2061.61315
2037.2721
2042.301243
2055.868752
2056.941635
2029.627804
2003.453911
2020.374181
2038.501446
2056.941635
2054.95233
2043.709403
2050.951368
2028.890196
2029.359583
2019.167187
2023.101094
2052.203065
2064.161249
2055.689938
2031.952385
2028.890196
2038.412039
2067.335196
2063.423641
2035.260443
2048.1574
2054.661757
2022.40819
2032.622937
2047.889179
2045.72106
2048.604435
2047.330385
2058.79683
2051.845438
2045.72106
2068.78806
2080.790947
2059.6909
2038.657908
2058.215685
2091.184508
2080.723891
2080.075691
2093.39733
2068.385728
2066.239961
2129.540101
2119.66063
2070.531496
2075.404176
2080.70154
2104.170871
2127.371982
2110.384656
2073.66074
2094.269048
2115.838482
2110.339953
2110.094084
2108.909441
2120.68881
2114.877357
2106.115473
2084.501336
2098.627639
2142.995851
2157.435078
2089.195202
2070.486792
2096.191299
2104.550851
2121.761694
2119.973555
2116.7102
2140.514808
2126.924947
2119.884148
2137.653784
2116.285517
2093.442034
2070.509144
2092.950296
2116.531386
2101.287496
2102.22627
2111.301078
2101.555717
2108.194185
2124.622717
2119.258299
2101.108682
2100.549889
2128.310755
2123.37102
2104.349685
2100.259316
2111.524595
2130.411819
2115.480854
2105.802549
2121.135845
2129.473046
2125.025049
2099.320543
2093.173813
2086.803566
2091.586839
2115.637316
2157.32332
2161.346634
2099.387598
2075.180659
2079.874525
2085.9542
2097.934735
2125.740305
2093.240868
2065.323539
2088.234077
2077.348778
2078.01933
2097.130072
2118.319526
2104.461444
2063.937731
2062.797792
2095.252525
2097.130072
2098.806453
2106.20488
2108.596517
2084.322522
2080.589781
2101.3322
2105.266107
2093.151461
2077.058205
2110.250546
2111.949278
2074.599513
2069.525667
2090.737473
2093.598496
2109.758807
2104.819072
2097.085368
2104.79672
2083.607266
2069.503316
2069.033929
2083.808432
2098.985267
2097.353589
2109.468235
2104.506147
2083.093176
2057.612188
2082.310865
2100.706351
2108.372999
2111.032857
2093.151461
2085.529516
2087.49647
2094.716083
2100.326371
2106.406046
2107.255412
2087.787043
2080.142746
2097.755921
2095.967781
2075.426528
2099.365246
2097.331237
2089.128147
2081.707368
2084.724854
2111.926927
2116.889014
2063.893028
2071.827897
2105.355514
2085.261295
2108.372999
2129.629508
2082.333217
2052.13601
2060.987301
2085.618923
2108.283592
2128.601328
2146.370965
2099.342894
2067.3799
2063.602455
2073.14665
2086.937676
2110.541118
2108.082427
2104.819072
2102.87447
2100.639296
2105.69079
2087.943505
2093.754958
2119.727685
2114.229156
2102.22627
2082.199106
2058.193333
2073.370167
2100.751054
2106.294287
2108.015371
2109.892918
2102.427435
2106.495453
2105.8249
2094.738435
2091.832708
2103.567374
2103.835595
2098.381769
2095.453691
2083.830784
2086.960028
2102.472139
2115.011467
2118.230119
2128.981308
2106.20488
2073.034891
2068.676301
2096.191299
2080.142746
2085.70833
2096.459519
2087.585877
2088.479947
2117.917194
2115.011467
2084.210763
2075.560638
2080.232153
2087.742339
2098.761749
2092.503261
2088.055264
2105.668438
2131.730572
2121.493473
2050.839609
2049.140876
2074.085423
2069.659778
2075.851211
2078.958104
2074.353644
2085.641275
2079.069862
2063.513048
2054.728813
2051.308996
2067.089327
2104.886127
2090.625714
2062.238999
2081.975589
2094.000828
2075.985322
2059.199161
2060.093231
2064.697691
2070.240923
2086.065958
2109.378828
2137.072639
2090.31279
2034.388725
2029.985431
2062.551923
2089.664589
2121.225252
2103.38856
2055.399365
2041.161304
2073.213705
2075.381824
2050.59374
2064.675339
2082.199106
2083.026121
2064.004786
2067.312845
2085.395406
2117.581918
2109.870566
2064.652987
2040.870731
2049.69967
2070.017406
2070.307978
2069.056281
2080.187449
2099.633467
2112.575127
2084.076653
2070.19622
2057.835705
2087.63058
2100.214613
2099.186432
2092.36915
2070.822069
2060.540266
2045.609301
2055.265254
2079.472194
2107.925964
2093.442034
2073.213705
2066.35172
2045.85517
2051.174885
2085.730682
2080.880354
2081.886182
2087.965857
2099.253487
2096.146595
2084.769557
2086.736511
2104.707313
2094.179642
2090.603362
2107.300116
2137.162046
2118.520691
2062.149592
2045.452839
2065.100022
2071.984359
2084.54604
2085.797737
2105.333162
2113.335087
2109.647049
2079.159269
2061.166115
2086.758862
2111.055209
2086.736511
2076.678226
2081.662665
2073.996016
2082.221458
2100.549889
2113.156273
2103.165043
2085.484813
2105.534328
2094.693732
2083.227287
2081.640313
2090.424548
2116.374924
2112.35161
2107.121302
2075.560638
2054.974682
2073.616037
2086.423586
2098.962915
2083.942543
2089.597534
2094.67138
2076.454708
2062.998958
2051.018423
2062.149592
2088.792871
2104.841424
2093.822014
2085.373054
2087.161194
2095.163118
2106.517804
2105.064941
2109.624697
2102.22627
2086.714159
2089.105796
2087.518822
2082.847307
2083.339045
2062.976606
2070.375034
2099.40995
2101.041627
2077.393481
2089.865755
2104.908479
2097.577107
2081.081519
2081.796775
2086.244772
2093.732607
2092.816185
2073.839554
2057.120449
2085.909496
2101.622772
2099.812281
2102.427435
2108.50711
2079.762766
2066.061147
2065.345891
2073.057243
2086.580048
2081.662665
2075.717101
2075.493583
2084.68015
2093.062054
2101.041627
2127.237872
2132.289366
2082.735548
2043.619996
2064.340063
2095.31958
2104.215575
2085.171888
2067.983397
2066.35172
2082.936714
2085.238944
2091.609191
2108.350647
2114.005639
2095.029008
2095.967781
2086.669455
2064.273007
2077.460537
2081.014464
2078.287551
2106.406046
2105.69079
2088.547002
2073.236057
2092.123281
2092.346798
2080.165098
2086.848269
2121.44877
2125.069752
2081.305037
2060.71908
2069.927999
2098.784101
2095.788967
2075.225362
2081.305037
2082.37792
2088.591705
2061.411984
2041.407173
2056.852228
2080.433319
2113.156273
2122.275784
2087.943505
2070.866772
2080.254505
2088.144671
2105.981363
2115.123226
2090.916287
2076.588819
2053.253597
2053.253597
2066.016443
2073.52663
2101.511014
2092.212688
2093.665551
2108.909441
2100.482833
2083.830784
2088.815223
2070.576199
2089.128147
2055.600531
2052.538342
2079.338083
2086.803566
2099.208784
2099.231136
2107.277764
2078.466365
2059.154458
2076.186487
2073.996016
2088.502298
2088.636409
2081.774423
2086.08831
2092.637371
2068.050452
2079.29338
2062.730737
2066.642292
2082.936714
2108.909441
2092.726778
2073.28076
2058.238036
2079.092214
2099.02997
2109.244717
2089.642237
2078.39931
2081.305037
2071.582028
2072.923133
2088.479947
2097.442996
2095.945429
2110.585822
2089.239906
2055.220551
2040.937786
2047.933882
2077.348778
2119.14654
2122.208729
2101.600421
2087.585877
2082.154403
2081.282685
2082.534383
2100.81811
2118.140712
2127.751962
2116.374924
2103.76854
2114.497377
2126.544967
2106.383694
2110.161139
2144.806343
2146.639186
2132.848159
2136.849122
2135.172741
2133.541063
2116.84431
2117.000773
2138.279633
2152.495343
2144.448715
2143.331128
2137.810247
2133.317546
2112.99981
2121.918156
2126.18734
2122.432246
2148.047346
2161.324282
2120.889976
2091.273915
2096.191299
2104.014409
2113.715066
2119.817092
2125.047401
2114.743246
2106.741322
2121.538177
2149.880189
2141.788857
2133.161084
2117.917194
2116.866662
2136.290328
2137.519674
2123.013392
2139.508979
2170.689663
2148.986119
2126.790837
2142.168837
2159.469087
2154.305834
2100.95222
2102.270973
2145.02986
2149.410802
2126.880244
2136.983232
2151.355404
2143.331128
2150.28252
2144.493418
2122.275784
2116.173758
2142.280596
2190.493308
2182.647846
2146.974462
2130.568281
2134.949223
2142.72763
2160.989006
2148.36027
2120.107665
2144.404011
2149.857837
2157.166857
2172.097823
2194.695436
2172.790727
2146.125096
2135.083334
2144.336956
2158.9997
2185.77709
2186.648808
2171.136698
2167.403956
2169.639131
2178.222201
2193.890774
2194.22605
2191.745006
2221.763399
2235.979108
2186.894678
2149.209636
2151.891846
2182.267866
2190.739178
2163.827677
2167.269846
2188.906335
2222.456303
2187.453471
2167.538067
2179.049215
2192.683779
2195.880079
2207.771207
2204.150224
2210.833396
2185.710035
2160.541971
2176.277599
2172.120174
2169.639131
2157.479782
2161.033709
2168.163916
2201.222146
2206.295992
2199.858689
2187.855803
2173.237762
2201.445663
2197.958791
2170.846125
2171.203753
2170.488497
2155.803401
2143.6217
2154.149372
2185.933552
2205.580736
2194.807195
2183.810137
2204.463149
2177.372834
2136.625604
2147.041517
2163.581808
2161.145468
2163.179477
2174.62357
2187.475823
2218.097713
2198.696399
2199.61282
2178.60218
2145.298081
2141.900616
2148.852008
2169.214448
2171.449622
2179.205677
2194.695436
2213.761474
2181.150279
2149.90254
2166.465183
2179.384491
2183.921895
2190.113329
2171.695491
2173.34952
2180.345616
2177.037558
2199.411654
2202.876175
2185.330055
2177.216372
2168.633302
2147.667366
2148.36027
2161.503096
2171.315512
2185.687683
2190.605067
2199.925745
2182.469032
2150.081354
2152.361232
2169.840296
2196.416521
2189.263962
2157.569189
2176.322302
2178.46807
2172.231933
2188.07932
2170.287331
2155.244607
2151.042479
2139.307814
2130.948261
2155.334014
2155.40107
2135.016279
2123.527482
2102.628601
2111.278726
2126.410857
2137.519674
2118.923023
2099.700522
2100.706351
2110.317601
2123.616889
2150.975424
2155.445773
2145.40984
2118.163063
2121.672287
2115.972592
2110.384656
2130.322412
2151.221293
2147.890883
2146.460372
2125.80736
2098.068845
2106.20488
2118.073656
2122.409895
2135.463314
2142.258244
2117.023124
2105.467272
2112.955107
2127.103761
2148.896712
2138.167875
2139.196055
2136.290328
2108.484758
2107.680095
2126.120284
2122.700467
2118.520691
2114.564432
2134.412782
2144.694584
2146.035689
2145.298081
2117.73838
2110.339953
2112.284555
2116.173758
2139.441924
2149.276692
2134.546892
2138.078468
2161.346634
2183.228991
2130.434171
2097.040665
2102.807415
2126.768485
2146.505075
2132.714049
2101.511014
2089.686941
2099.342894
2134.122209
2169.192096
2160.184343
2121.337011
2109.736456
2098.359418
2089.776348
2096.705389
2108.194185
2138.726668
2104.774368
2091.810357
2097.130072
2102.338028
2119.481816
2109.15531
2090.424548
2110.541118
2108.283592
2110.094084
2108.775331
2089.575182
2087.004732
2095.990133
2092.838537
2068.318673
2074.130127
2109.781159
2114.385618
2110.608174
2125.025049
2119.52652
2110.921098
2111.703409
2100.035799
2099.588764
2099.208784
2084.16606
2082.780252
2107.054246
2126.410857
2127.036706
2117.179587
2089.686941
2087.11649
2095.274877
2104.617906
2110.384656
2122.544005
2108.708275
2082.646141
2075.292417
2105.780197
2105.400217
2080.187449
2086.691807
2101.645124
2105.959011
2113.111569
2121.024087
2117.403104
2115.234985
2118.341877
2099.208784
2111.59165
2153.389413
2120.867624
2086.267124
2093.933772
2101.309848
2112.441017
2099.454653
2100.885165
2118.878319
2105.266107
2096.347761
2086.356531
2105.713142
2123.326316
2123.661592
2094.224345
2084.993075
2112.530424
2106.920136
2097.331237
2122.432246
2130.009488
2105.467272
2101.712179
2107.74715
2089.217554
2084.523688
2079.181621
2072.453746
2066.664644
2046.458667
2044.268196
2058.841534
2049.252635
2036.825065
2033.762876
2033.181731
2040.758972
2044.871693
2048.29151
2050.526685
2023.145798
2033.852283
2046.950405
2048.67149
2055.354661
2062.26135
2082.869659
2056.293435
2030.074838
2025.336269
2007.343114
2001.755178
2020.016553
2039.686089
2036.936824
2042.636519
2054.639406
2062.931903
2063.267179
2059.892066
2040.244882
2039.06024
2033.315841
2023.391667
2023.101094
2047.866827
2047.710365
2034.098152
2055.667586
2068.899819
2039.529626
2033.360545
2025.984469
2026.63267
2052.359528
2058.126278
2030.030135
2011.947574
2023.81635
2033.226434
2038.054411
2046.659833
2043.329423
2032.689993
2035.662775
2055.108792
2073.996016
2052.918321
2041.138952
2041.921263
2051.018423
2042.435353
2044.514065
2071.380862
2061.032004
2012.461664
1999.363542
2012.081684
2024.643365
2040.021365
2051.912493
2068.0281
2069.704481
2064.630635
2056.382842
2048.962062
2043.083554
2043.821161
2045.318728
2036.310975
2040.244882
2049.207932
2046.257501
2037.339155
2031.974737
2035.439257
2052.180714
2049.789077
2046.548074
2050.861961
2060.629673
2056.271083
2033.606414
2037.13799
2079.874525
2081.640313
2018.116655
2022.207024
2049.56556
2060.763784
2043.597644
2054.371185
2072.185525
2043.888216
2004.437388
1993.485033
2019.658925
2034.209911
2024.71042
2017.602565
2042.435353
2047.464496
2056.181676
2047.598606
2038.635557
2023.458722
2011.031152
2032.131199
2008.013667
2024.822178
2042.703574
2040.513103
2055.108792
2029.225472
2025.537434
2027.213815
2021.536472
2016.104998
2013.758065
2016.172053
2043.619996
2071.045586
2035.662775
2021.804693
2000.905812
2013.065161
2041.295414
2018.18371
2012.059332
2021.961155
2045.206969
2052.471286
2056.4946
2063.222475
2027.79496
1993.976771
2014.383914
2023.659888
2020.307126
2033.986394
2047.553903
2034.031097
2015.523853
2023.481074
2022.676411
2043.240016
2047.039812
2033.695821
2015.322687
2005.130292
2016.909661
2026.63267
2055.488772
2044.178789
2011.187614
2010.226489
2017.334344
2034.45578
2041.675394
2038.993184
2042.033022
2077.527592
2031.728867
2000.972867
2024.241033
2024.978641
2012.349905
2045.609301
2033.539359
1995.899021
2004.370332
2023.324612
2048.693842
2042.994147
2050.414926
2039.395516
2007.052542
1997.195422
2008.125425
2033.4276
2047.240978
2050.571388
2058.707423
2043.709403
2012.372257
2012.014629
2045.184618
2062.395461
2064.004786
2026.364449
2004.102111
2007.387818
2016.954364
2017.624917
2054.706461
2097.152424
2032.287661
2002.582193
2016.976716
2014.383914
2019.860091
2032.265309
2027.057353
2038.836722
2037.830894
2028.063181
2016.77555
2024.71042
2032.91351
2033.695821
2022.698763
2012.238146
2015.143873
2023.481074
2025.135103
2029.426638
2042.323594
2046.279853
2042.971795
2044.715231
2057.947464
2055.913455
2032.466475
1993.283867
2002.202213
2022.095266
2035.059277
2046.123391
2009.131254
1988.120614
2020.083609
2047.308033
2045.72106
2062.484868
2013.914527
1990.802823
2010.271193
2011.38878
1998.000085
2014.875652
2035.327498
2018.451931
2021.178844
2033.159379
2028.331402
2038.523798
2028.286699
2020.262423
2020.798864
2027.325574
2026.342097
2016.015591
2006.65021
2009.578289
2024.553958
2020.530644
2024.039867
2030.745391
2024.665716
2021.402362
2019.614222
2024.84453
2026.386801
2037.495618
2038.635557
2005.376161
1997.106015
2000.279963
1996.189594
2003.632725
2039.551978
2062.328406
2054.773516
2021.827045
2011.0088
2010.070027
2017.66962
2004.817367
1999.005914
2021.759989
2057.969815
2051.554865
2003.588021
2004.862071
2025.515083
2030.767742
1994.08853
2001.464606
2017.602565
2025.157455
2046.101039
2054.549999
2052.203065
2042.52476
2032.511179
2028.085533
2044.268196
2055.399365
2041.138952
2022.855225
2021.827045
2047.799772
2058.349795
2037.316804
2028.934899
2045.408135
2053.655929
2048.984414
2022.385838
2016.596737
2037.965004
2060.160286
2032.53353
2000.950515
2009.84651
2019.07778
2034.768705
2064.764746
2075.873563
2038.948481
2025.582138
2049.587911
2060.450859
2025.179806
2019.323649
2017.490806
2024.643365
2035.21574
2019.100132
2048.559731
2074.957141
2049.163228
2029.024306
2030.365411
2054.81822
2064.116545
2056.092269
2045.072859
2028.979603
2009.310068
2012.908699
2028.197292
2042.927091
2050.012594
2069.458612
2046.033984
2019.502463
2032.846455
2030.723039
2029.44899
2038.836722
2036.512141
2045.095211
2062.26135
2055.153496
2036.936824
2024.151626
1998.268306
2009.578289
2039.529626
2053.208894
2044.290548
2046.23515
2053.588874
