Detector 2,,,,,,,,Detector 4,,,,,,,,Detector 6,,,,,,,,Detector 8,,,,,,,,Detector 10,,,,,,,,Detector 12,,,,,,,,Detector 14,,,,,,,,Detector 16,,,,,,,
"RED1,2,3,4","IR1,2,3,4 ","RED5,6,7,8","IR5,6,7,8 ","RED9,10,11,12","IR9,10,11,12 ","RED13,14,15,16","IR13,14,15,16 ","RED1,2,3,4","IR1,2,3,4 ","RED5,6,7,8","IR5,6,7,8 ","RED9,10,11,12","IR9,10,11,12 ","RED13,14,15,16","IR13,14,15,16 ","RED1,2,3,4","IR1,2,3,4 ","RED5,6,7,8","IR5,6,7,8 ","RED9,10,11,12","IR9,10,11,12 ","RED13,14,15,16","IR13,14,15,16 ","RED1,2,3,4","IR1,2,3,4 ","RED5,6,7,8","IR5,6,7,8 ","RED9,10,11,12","IR9,10,11,12 ","RED13,14,15,16","IR13,14,15,16 ","RED1,2,3,4","IR1,2,3,4 ","RED5,6,7,8","IR5,6,7,8 ","RED9,10,11,12","IR9,10,11,12 ","RED13,14,15,16","IR13,14,15,16 ","RED1,2,3,4","IR1,2,3,4 ","RED5,6,7,8","IR5,6,7,8 ","RED9,10,11,12","IR9,10,11,12 ","RED13,14,15,16","IR13,14,15,16 ","RED1,2,3,4","IR1,2,3,4 ","RED5,6,7,8","IR5,6,7,8 ","RED9,10,11,12","IR9,10,11,12 ","RED13,14,15,16","IR13,14,15,16 ","RED1,2,3,4","IR1,2,3,4 ","RED5,6,7,8","IR5,6,7,8 ","RED9,10,11,12","IR9,10,11,12 ","RED13,14,15,16","IR13,14,15,16 "
3680,23116,481,163,159,160,157,155,680,3466,189,159,157,157,152,152,3183,24380,579,294,272,274,271,273,366,1439,187,192,179,181,183,183,715,975,7012,15188,65535,65535,3458,790,671,675,5758,17172,15704,16874,839,695,1023,7429,31917,38288,27738,26243,38308,40681,304,1595,6329,30721,23401,32454,44942,31490
3638,23195,481,164,157,156,157,159,674,3480,187,159,157,157,156,155,3151,24431,578,294,273,275,272,271,359,1443,187,192,179,183,185,184,730,988,7025,15225,65535,65535,3449,793,675,677,5774,17247,15746,16947,840,698,1473,7460,31939,38317,27785,26311,38353,40749,646,1616,6358,30835,23431,32519,44967,31525
3643,23260,486,164,159,160,159,160,673,3493,191,163,159,157,157,156,3155,24483,581,294,274,275,272,271,366,1445,187,190,180,182,188,181,734,987,7039,15257,65535,65535,3455,793,677,678,5796,17334,15783,17018,850,705,1474,7479,31943,38349,27835,26371,38384,40798,650,1621,6384,30961,23445,32578,44991,31564
3652,23302,479,166,160,157,160,155,675,3495,187,161,158,157,156,152,3160,24502,578,294,275,275,273,271,366,1447,187,196,179,182,183,183,733,988,7025,15229,65535,65535,3448,793,683,683,5804,17327,15765,16940,842,699,1478,7495,31957,38365,27815,26323,38395,40762,651,1625,6386,30951,23473,32579,45019,31545
3633,23012,481,166,161,159,153,156,674,3439,188,158,157,159,158,159,3142,24245,577,293,272,275,271,272,367,1436,186,191,179,181,186,182,731,984,7013,15185,65535,65535,3456,791,678,680,5763,17118,15665,16752,835,695,1475,7447,31946,38334,27783,26281,38347,40693,652,1607,6371,30814,23461,32485,45007,31505
3629,22980,479,162,160,159,156,156,671,3431,186,157,159,159,160,153,3140,24232,573,293,275,274,273,271,366,1438,188,191,179,185,184,184,730,982,7017,15177,65535,65535,3450,788,674,676,5758,17073,15647,16715,839,699,1475,7432,31969,38348,27818,26306,38335,40672,650,1602,6383,30799,23447,32461,44977,31491
3627,22972,483,164,158,161,160,158,670,3430,187,159,157,156,147,153,3141,24219,577,293,273,274,270,270,365,1434,189,195,180,183,184,182,729,983,7013,15175,65535,65535,3454,788,679,678,5756,17066,15644,16722,841,701,1475,7425,31968,38341,27827,26301,38321,40662,649,1603,6378,30754,23453,32458,44979,31490
3629,23008,482,164,158,157,156,155,670,3437,190,158,158,153,153,155,3143,24258,575,293,277,276,272,270,366,1435,189,193,179,182,185,184,734,984,7019,15200,65535,65535,3449,792,679,681,5765,17091,15663,16759,842,699,1479,7428,31967,38338,27841,26311,38323,40671,652,1607,6358,30711,23459,32477,44987,31499
3635,23044,481,163,159,156,155,157,672,3441,189,157,157,156,155,156,3142,24255,577,293,273,275,271,270,367,1439,189,194,178,184,184,182,731,984,7026,15209,65535,65535,3452,790,679,680,5766,17107,15679,16781,842,700,1475,7435,31955,38335,27863,26332,38329,40683,652,1609,6362,30727,23477,32493,44987,31501
3637,23065,477,168,159,161,157,154,670,3444,188,163,153,160,153,157,3143,24267,574,294,273,275,270,272,365,1439,188,195,179,185,186,182,730,984,7030,15225,65535,65535,3449,793,679,679,5767,17130,15705,16826,841,698,1477,7440,31962,38356,27896,26375,38338,40709,651,1609,6358,30743,23483,32523,44991,31516
3642,23125,482,163,162,157,159,156,674,3451,187,158,157,160,157,159,3146,24312,577,292,275,278,271,274,366,1442,188,194,177,183,184,182,730,983,7036,15244,65535,65535,3455,791,682,678,5778,17185,15739,16895,843,699,1474,7452,31958,38371,27933,26423,38352,40743,651,1613,6368,30804,23500,32562,44982,31531
3645,23187,478,164,161,160,159,156,673,3466,188,171,158,158,156,157,3148,24355,575,293,274,275,272,271,366,1445,187,193,179,186,185,183,731,987,7050,15287,65535,65535,3450,793,680,680,5792,17246,15774,16962,846,703,1479,7464,31973,38397,27974,26465,38372,40789,653,1619,6372,30854,23518,32612,45010,31563
3650,23255,485,167,157,158,157,155,673,3477,189,159,160,153,156,153,3151,24409,581,293,274,274,272,274,365,1447,188,193,179,183,185,183,733,989,7056,15311,65535,65535,3457,795,679,685,5806,17309,15817,17039,853,703,1478,7479,31964,38399,28007,26507,38397,40830,651,1621,6368,30875,23549,32678,45025,31588
3658,23326,482,163,159,157,159,159,676,3489,188,158,157,154,157,151,3156,24464,577,297,275,276,273,274,367,1451,188,192,180,182,183,182,735,992,7071,15347,65535,65535,3453,796,683,687,5816,17375,15855,17110,853,707,1481,7499,31964,38418,28055,26567,38433,40893,654,1627,6369,30927,23571,32738,45054,31632
3664,23391,491,168,161,157,156,158,677,3501,190,158,158,156,155,155,3162,24516,583,295,275,277,274,273,367,1453,188,193,179,186,185,183,738,993,7087,15379,65535,65535,3460,798,687,688,5833,17447,15895,17179,859,711,1483,7510,31971,38446,28107,26631,38469,40942,653,1631,6383,31020,23593,32797,45075,31662
3670,23396,485,164,159,157,159,156,678,3494,192,159,158,154,154,156,3164,24494,578,296,278,274,274,274,369,1456,190,192,179,185,186,182,739,995,7077,15348,65535,65535,3453,798,691,688,5832,17391,15844,17042,852,707,1486,7521,31938,38391,28057,26526,38451,40864,656,1634,6388,31004,23608,32749,45102,31623
3649,23122,486,161,161,158,159,155,675,3445,190,161,152,152,155,153,3146,24260,579,295,275,274,271,273,368,1444,187,192,179,183,184,183,736,993,7075,15320,65535,65535,3464,795,685,685,5797,17217,15757,16892,846,702,1480,7464,31915,38357,28049,26518,38425,40819,655,1613,6384,30899,23592,32687,45093,31596
3645,23114,479,167,159,156,157,155,675,3440,187,162,158,156,153,155,3143,24262,575,295,274,277,273,275,369,1443,188,192,180,182,188,182,735,989,7079,15318,65535,65535,3461,795,681,686,5791,17192,15755,16883,847,705,1481,7452,31963,38390,28091,26554,38415,40805,655,1613,6385,30874,23590,32662,45066,31573
3646,23122,482,161,157,156,156,154,672,3445,187,158,158,156,156,156,3145,24271,580,294,274,272,272,272,369,1445,188,193,180,184,185,187,737,989,7081,15330,65535,65535,3462,799,684,685,5795,17207,15765,16904,849,706,1480,7452,31930,38358,28110,26546,38399,40797,654,1613,6379,30869,23599,32669,45051,31581
3648,23174,481,164,158,158,157,156,673,3452,188,157,155,160,156,155,3151,24305,574,295,275,276,274,277,369,1447,191,191,180,185,185,184,735,993,7085,15340,65535,65535,3456,798,688,688,5808,17243,15782,16935,853,711,1481,7455,31914,38337,28134,26559,38406,40809,656,1616,6381,30873,23615,32699,45061,31585
3651,23181,485,165,157,157,157,155,674,3455,189,161,160,155,172,153,3148,24307,580,296,277,277,277,275,367,1446,188,191,179,182,184,181,738,993,7089,15343,65535,65535,3465,797,688,691,5811,17255,15797,16963,851,706,1484,7460,31909,38342,28155,26599,38416,40827,653,1619,6383,30899,23630,32718,45069,31593
3654,23211,479,167,161,156,155,155,675,3457,189,162,162,154,158,157,3151,24334,575,294,274,275,280,274,368,1448,187,194,182,181,184,183,737,991,7094,15354,65535,65535,3457,799,685,687,5812,17285,15823,17012,850,706,1483,7470,31922,38351,28189,26633,38422,40849,655,1617,6381,30906,23646,32755,45081,31611
3657,23272,485,163,160,160,159,155,675,3469,188,155,161,158,159,154,3153,24382,579,294,281,277,274,275,368,1451,188,193,179,183,185,184,740,993,7098,15370,65535,65535,3465,798,686,687,5827,17343,15859,17077,854,709,1483,7480,31921,38359,28228,26682,38443,40878,655,1622,6387,30978,23664,32799,45081,31629
3665,23341,482,165,159,155,158,157,678,3480,188,163,156,153,160,159,3157,24429,578,294,277,276,273,273,367,1454,188,195,180,182,185,182,738,992,7104,15390,65535,65535,3459,802,689,690,5838,17413,15898,17146,858,711,1485,7494,31921,38366,28263,26724,38463,40931,657,1627,6407,31065,23683,32849,45095,31654
3669,23408,490,165,162,163,160,155,676,3489,189,158,157,155,155,156,3162,24487,580,295,275,275,274,277,369,1455,191,193,179,183,186,182,742,995,7107,15399,65535,65535,3465,801,690,694,5853,17476,15932,17221,859,713,1485,7511,31914,38361,28297,26771,38486,40976,655,1633,6414,31134,23697,32900,45117,31683
3677,23477,486,165,157,155,158,155,677,3500,191,159,155,153,159,155,3162,24533,581,294,275,273,275,273,369,1461,189,193,181,182,185,181,740,993,7087,15367,65535,65535,3461,800,691,694,5863,17530,15977,17286,859,714,1486,7527,31899,38331,28337,26834,38518,41027,658,1636,6411,31161,23722,32959,45158,31723
3679,23535,492,164,157,158,158,156,677,3511,189,155,157,153,156,153,3169,24594,583,291,276,275,272,281,369,1464,188,194,179,183,186,183,740,997,7067,15330,65535,65535,3465,801,695,695,5872,17575,15994,17299,864,713,1486,7543,31876,38276,28345,26830,38539,41030,658,1641,6405,31164,23757,33007,45209,31728
3671,23303,481,164,161,157,157,158,679,3459,188,158,157,156,154,155,3157,24364,577,295,273,276,273,274,371,1455,189,188,179,183,185,183,739,995,7040,15250,65535,65535,3460,797,691,693,5844,17387,15893,17089,855,708,1485,7508,31827,38169,28265,26718,38480,40923,660,1627,6400,31037,23741,32895,45210,31683
3655,23209,487,167,158,159,158,156,675,3449,189,158,157,159,156,158,3150,24301,578,293,275,277,272,271,367,1453,191,193,182,181,185,182,735,990,7026,15207,65535,65535,3466,796,690,684,5830,17325,15868,17053,852,708,1482,7475,31831,38158,28283,26751,38474,40907,655,1619,6410,31042,23736,32875,45195,31663
3657,23225,482,166,161,156,157,156,675,3450,187,162,160,152,159,155,3151,24315,574,292,273,275,276,273,369,1452,188,202,181,183,185,183,734,987,7007,15167,65535,65535,3458,795,686,688,5830,17329,15878,17069,853,710,1481,7475,31831,38124,28291,26749,38454,40897,659,1617,6401,31018,23732,32871,45185,31657
3659,23268,488,166,161,156,156,156,673,3462,188,158,157,159,157,152,3154,24358,578,292,274,279,271,274,367,1455,191,195,179,183,186,184,737,989,7012,15181,65535,65535,3463,795,688,689,5839,17370,15898,17105,854,707,1481,7479,31818,38105,28299,26747,38450,40902,657,1622,6406,31048,23750,32905,45207,31681
3664,23284,483,164,160,161,160,156,677,3461,189,159,157,159,156,153,3155,24354,578,295,275,276,273,269,370,1456,187,192,179,183,184,186,735,988,7006,15169,65535,65535,3455,797,687,689,5843,17376,15912,17122,855,710,1485,7483,31814,38096,28299,26754,38450,40905,659,1625,6409,31063,23768,32920,45207,31681
3664,23301,487,165,163,157,158,157,674,3469,192,158,157,161,157,157,3154,24373,581,294,275,281,271,273,371,1458,189,191,178,182,185,182,737,990,7002,15161,65535,65535,3463,799,686,686,5841,17387,15928,17159,851,703,1479,7487,31827,38111,28325,26803,38460,40928,661,1627,6415,31083,23781,32957,45226,31695
3665,23349,489,164,161,158,156,155,674,3475,193,158,159,155,160,156,3156,24415,578,296,273,275,270,272,371,1459,190,192,180,182,184,181,736,992,7003,15174,65535,65535,3457,797,683,685,5845,17427,15958,17215,852,707,1484,7501,31818,38111,28335,26817,38463,40958,659,1629,6407,31104,23790,32979,45231,31714
3669,23409,489,163,157,157,157,159,674,3486,189,156,161,156,158,155,3158,24456,579,292,276,277,272,273,375,1462,188,193,179,187,185,183,739,991,7008,15194,65535,65535,3467,799,685,687,5857,17487,15990,17278,854,709,1481,7509,31801,38107,28354,26846,38478,40991,661,1633,6414,31159,23816,33038,45263,31744
3675,23475,486,167,157,157,160,156,676,3498,185,156,155,155,157,155,3161,24515,580,295,274,277,273,273,369,1466,187,194,179,183,185,183,740,995,7019,15222,65535,65535,3463,801,686,686,5865,17543,16004,17318,847,700,1486,7525,31799,38124,28376,26883,38503,41037,660,1639,6425,31238,23829,33080,45293,31770
3681,23551,491,163,161,158,160,156,677,3506,189,158,158,157,156,154,3167,24567,584,294,272,277,271,273,373,1470,189,197,179,184,186,184,741,998,7024,15249,65535,65535,3472,803,676,676,5860,17591,16007,17358,842,694,1483,7536,31849,38183,28401,26919,38528,41081,662,1644,6442,31346,23848,33133,45291,31793
3685,23615,492,166,158,161,158,159,679,3521,189,162,152,161,159,156,3171,24623,579,296,276,273,276,276,372,1471,191,197,179,185,185,176,742,1001,7036,15291,65535,65535,3470,805,672,671,5871,17667,16002,17381,839,689,1487,7549,31917,38268,28435,26960,38555,41127,662,1648,6471,31484,23846,33159,45297,31818
3691,23589,493,164,159,159,155,155,681,3511,188,161,155,157,157,155,3169,24573,583,296,275,276,274,274,374,1473,192,194,182,181,186,183,744,999,7019,15241,65535,65535,3477,801,669,669,5865,17610,15927,17215,833,684,1484,7544,31933,38253,28357,26838,38521,41029,659,1643,6487,31490,23845,33095,45292,31763
3669,23307,483,163,157,157,157,158,682,3462,187,159,157,155,153,157,3151,24337,576,294,285,278,271,275,373,1459,194,192,180,183,183,181,740,995,7006,15195,65535,65535,3474,799,663,667,5839,17444,15819,17039,826,680,1481,7483,31945,38232,28315,26787,38479,40961,661,1626,6500,31421,23829,33010,45260,31723
3664,23285,490,164,159,158,156,159,676,3461,187,158,157,156,159,155,3149,24330,580,294,275,276,279,274,373,1462,187,193,186,186,189,183,739,994,7003,15181,65535,65535,3478,799,659,659,5834,17430,15808,17018,825,681,1478,7467,31993,38257,28327,26786,38458,40929,658,1625,6510,31426,23820,32984,45234,31699
3663,23285,482,164,160,158,156,156,677,3467,187,157,159,156,157,155,3150,24331,576,294,274,276,273,273,373,1459,188,189,183,182,188,183,736,994,7006,15187,65535,65535,3471,800,660,658,5841,17449,15805,17029,826,683,1480,7462,31993,38245,28315,26762,38435,40921,660,1625,6526,31451,23823,32989,45200,31697
3670,23333,490,166,161,154,157,155,679,3481,190,154,157,157,155,153,3154,24371,581,294,274,277,272,275,371,1460,192,194,176,184,185,184,740,996,7008,15189,65535,65535,3478,801,661,662,5840,17464,15811,17047,826,681,1479,7465,31972,38231,28315,26746,38431,40920,658,1627,6529,31476,23837,33012,45211,31703
3669,23334,484,166,160,158,157,156,677,3481,192,163,159,156,153,155,3152,24356,576,295,275,276,272,271,370,1461,189,197,176,179,185,183,742,997,7007,15192,65535,65535,3473,800,659,659,5841,17458,15819,17061,825,679,1481,7462,31995,38246,28304,26758,38429,40925,659,1633,6519,31437,23862,33039,45243,31714
3669,23363,487,165,162,158,156,155,677,3486,193,157,157,156,159,157,3152,24382,580,292,275,276,272,275,372,1466,190,196,179,183,188,181,740,993,7005,15192,65535,65535,3474,801,659,659,5843,17483,15840,17104,828,681,1479,7470,32015,38261,28312,26771,38420,40938,661,1634,6524,31479,23864,33057,45227,31715
3674,23421,485,167,162,158,158,156,679,3496,189,161,159,155,153,155,3156,24430,577,294,274,276,272,274,376,1469,188,193,192,183,185,182,740,996,7007,15212,65535,65535,3469,799,660,661,5850,17543,15879,17182,834,690,1482,7478,32006,38267,28314,26790,38436,40973,659,1636,6532,31524,23869,33099,45250,31745
3678,23471,488,166,158,162,157,157,684,3506,193,159,156,157,155,159,3159,24459,582,294,275,275,274,274,372,1470,188,197,184,184,186,183,739,995,7004,15217,65535,65535,3471,801,668,670,5880,17634,15930,17253,838,690,1482,7490,32024,38297,28320,26810,38446,41006,659,1640,6531,31540,23885,33130,45255,31763
3681,23533,490,163,159,158,154,157,679,3519,189,159,156,159,159,153,3160,24505,580,298,278,278,275,274,371,1473,187,193,180,187,184,187,740,998,7017,15243,65535,65535,3466,803,669,671,5895,17698,15959,17316,839,691,1483,7504,32015,38303,28331,26837,38461,41046,662,1646,6542,31609,23891,33171,45263,31783
3688,23596,491,165,158,157,160,155,683,3531,189,158,159,156,156,157,3165,24558,583,295,278,276,273,275,375,1474,190,195,179,185,186,187,741,999,7019,15261,65535,65535,3474,804,670,672,5907,17759,15990,17377,841,693,1483,7517,32021,38314,28355,26880,38491,41098,659,1651,6549,31683,23897,33213,45275,31813
3691,23651,488,167,159,157,159,158,682,3544,191,162,155,156,155,158,3168,24603,582,296,276,277,275,275,373,1478,189,196,179,184,184,182,743,1001,7025,15256,65535,65535,3463,801,672,673,5919,17804,16009,17380,845,694,1486,7532,32001,38305,28348,26848,38512,41081,662,1655,6539,31647,23918,33227,45319,31814
3679,23369,488,165,159,157,158,158,682,3475,188,160,155,155,155,155,3154,24343,580,295,276,278,273,273,375,1465,189,195,180,179,186,182,741,995,6997,15176,65535,65535,3468,797,674,674,5885,17572,15893,17143,838,691,1481,7489,31974,38233,28241,26707,38437,40955,661,1635,6525,31473,23898,33099,45295,31745
3667,23279,483,166,162,157,157,157,680,3464,188,160,159,155,156,155,3145,24279,575,295,273,277,273,273,373,1461,190,193,181,178,187,187,737,992,6993,15155,65535,65535,3464,797,669,669,5868,17493,15857,17082,833,691,1480,7454,31996,38245,28249,26719,38415,40932,661,1626,6523,31399,23878,33045,45279,31715
3668,23271,487,161,152,157,157,158,682,3468,189,160,160,160,152,155,3151,24277,578,294,276,278,275,273,371,1462,189,192,180,184,185,181,736,989,6982,15125,65535,65535,3468,797,666,669,5863,17471,15857,17079,835,691,1480,7450,31983,38215,28235,26689,38390,40896,658,1625,6522,31370,23884,33028,45263,31703
3667,23298,483,167,160,157,161,157,678,3474,191,159,161,155,155,160,3151,24307,576,297,276,278,273,273,372,1463,191,194,183,183,191,184,739,992,6976,15106,65535,65535,3455,797,671,672,5880,17511,15887,17122,844,695,1481,7451,31978,38199,28226,26665,38377,40895,660,1628,6512,31319,23886,33047,45261,31707
3672,23325,487,165,151,156,158,156,679,3480,189,159,159,156,160,156,3151,24305,579,294,275,279,273,276,373,1462,189,193,177,183,189,182,735,992,6977,15116,65535,65535,3459,797,676,675,5880,17503,15891,17131,843,693,1478,7450,31975,38199,28212,26655,38375,40895,659,1628,6499,31270,23895,33047,45267,31707
3672,23332,484,167,159,156,155,155,679,3479,187,163,157,153,157,155,3152,24315,575,295,275,275,275,273,371,1463,188,195,179,183,179,183,735,989,6970,15100,65535,65535,3454,796,673,675,5878,17518,15907,17163,841,694,1480,7454,31968,38192,28209,26668,38373,40911,660,1629,6505,31288,23889,33055,45253,31710
3675,23381,487,165,159,160,159,158,682,3489,193,160,162,157,157,156,3153,24352,582,293,277,276,272,272,374,1466,188,194,183,184,184,186,735,991,6971,15109,65535,65535,3459,795,673,674,5887,17561,15927,17211,842,694,1479,7463,31958,38190,28208,26682,38378,40931,660,1632,6517,31347,23888,33075,45246,31719
3682,23441,485,164,159,158,157,159,680,3498,188,159,155,155,153,157,3160,24401,578,293,275,276,272,275,372,1468,190,192,184,183,185,185,735,990,6977,15131,65535,65535,3457,796,673,675,5899,17615,15957,17265,845,695,1483,7474,31959,38194,28221,26707,38392,40971,661,1636,6526,31405,23895,33105,45246,31738
3685,23507,489,165,159,157,156,156,681,3510,190,160,159,155,159,153,3159,24449,583,297,276,279,272,276,373,1470,189,193,179,182,185,183,737,994,6985,15158,65535,65535,3460,797,675,677,5911,17678,15987,17328,847,696,1480,7487,31961,38209,28233,26737,38409,41016,661,1641,6535,31447,23895,33130,45247,31754
3690,23575,489,165,161,156,157,155,681,3521,189,159,154,156,152,156,3165,24515,579,295,276,280,271,276,373,1472,193,193,178,182,186,183,739,995,6996,15191,65535,65535,3461,803,678,677,5915,17716,15991,17364,839,689,1485,7503,31948,38209,28255,26784,38439,41066,662,1643,6542,31504,23904,33177,45290,31802
3695,23639,492,164,158,154,155,153,682,3530,189,157,157,160,156,154,3170,24582,583,295,275,277,274,273,375,1476,188,194,184,182,185,182,743,996,7010,15214,65535,65535,3464,801,668,669,5898,17703,16010,17384,840,690,1484,7519,31971,38248,28265,26788,38463,41079,664,1647,6504,31397,23935,33209,45347,31808
3689,23427,487,164,165,157,156,156,682,3474,190,155,157,157,155,154,3164,24375,578,293,275,278,273,273,374,1465,189,193,179,183,187,185,741,994,6991,15137,65535,65535,3455,797,668,667,5861,17482,15898,17155,831,685,1485,7489,31915,38147,28151,26627,38390,40946,663,1631,6479,31205,23916,33084,45342,31741
3673,23283,486,163,159,156,158,157,679,3454,189,162,156,155,156,156,3154,24284,577,296,274,277,271,273,373,1461,188,193,181,185,184,186,739,991,6981,15099,65535,65535,3465,798,664,664,5834,17365,15854,17072,828,681,1481,7447,31917,38131,28154,26641,38367,40906,659,1621,6472,31101,23888,33021,45313,31709
3672,23279,481,162,158,157,160,159,681,3455,188,158,157,157,156,159,3153,24277,574,295,275,279,273,277,375,1458,189,193,181,184,185,183,736,989,6973,15075,65535,65535,3455,796,662,663,5829,17329,15847,17052,827,682,1481,7442,31909,38104,28153,26616,38345,40882,662,1617,6468,31042,23887,32993,45301,31694
3675,23309,489,163,155,158,160,159,677,3463,188,160,156,155,156,155,3155,24322,579,294,275,277,271,272,375,1461,191,193,179,183,185,184,739,993,6981,15084,65535,65535,3461,798,662,665,5822,17328,15853,17081,831,685,1480,7447,31905,38099,28143,26595,38335,40883,660,1624,6453,30984,23899,32997,45315,31697
3679,23336,483,167,159,158,154,156,679,3464,189,162,156,155,155,159,3161,24317,575,293,275,275,273,273,372,1461,192,194,179,184,188,183,738,994,6980,15090,65535,65535,3457,798,666,665,5821,17318,15862,17090,830,685,1484,7451,31881,38060,28135,26595,38333,40879,661,1621,6444,30940,23907,33007,45320,31693
3679,23331,486,166,162,158,155,156,680,3467,186,158,153,152,156,157,3160,24317,578,295,276,278,273,274,373,1461,189,193,180,183,186,182,737,991,6971,15065,65535,65535,3462,798,661,665,5824,17326,15872,17111,835,689,1481,7451,31844,38029,28145,26627,38331,40897,660,1622,6449,30978,23886,32994,45284,31684
3679,23370,486,164,158,159,151,156,680,3478,187,156,156,157,157,151,3159,24332,575,297,274,276,274,273,373,1462,188,193,181,183,185,186,741,990,6958,15052,65535,65535,3453,800,673,673,5855,17414,15915,17176,841,694,1482,7460,31843,38037,28137,26623,38327,40913,661,1624,6470,31033,23894,33019,45281,31696
3686,23431,488,164,162,158,157,158,681,3489,191,158,158,159,155,154,3161,24379,583,295,276,276,273,273,373,1465,189,193,180,182,185,183,737,995,6973,15083,65535,65535,3459,800,673,675,5864,17458,15935,17225,843,697,1483,7466,31871,38078,28142,26639,38342,40943,660,1626,6474,31054,23883,33029,45269,31707
3689,23488,486,164,159,157,157,160,681,3499,189,159,157,159,156,153,3166,24424,581,294,277,276,275,274,374,1467,188,193,181,186,187,183,738,995,6990,15114,65535,65535,3456,800,675,677,5871,17506,15963,17282,845,696,1485,7480,31880,38106,28157,26674,38362,40994,663,1632,6465,31078,23894,33067,45276,31722
3694,23551,491,165,158,156,158,156,680,3509,192,156,157,155,156,159,3169,24478,582,297,276,277,273,275,375,1469,188,193,183,186,186,184,744,999,6995,15151,65535,65535,3462,805,674,679,5881,17559,15993,17339,851,699,1483,7495,31905,38149,28182,26710,38387,41042,661,1636,6469,31115,23906,33112,45287,31747
3702,23585,488,164,160,162,156,159,685,3509,188,157,157,155,149,155,3173,24495,577,295,278,278,273,274,378,1470,191,192,180,183,186,185,742,999,6990,15125,65535,65535,3453,803,678,681,5885,17539,15965,17260,851,701,1486,7504,31900,38121,28131,26611,38378,40973,660,1637,6465,31081,23916,33080,45332,31723
3681,23288,487,163,160,161,159,153,679,3447,188,159,158,157,158,156,3156,24229,580,295,275,277,273,277,374,1459,192,195,179,183,186,182,738,993,6970,15052,65535,65535,3457,798,684,680,5854,17342,15875,17083,845,697,1482,7449,31889,38089,28068,26537,38326,40891,660,1616,6447,30885,23899,32983,45338,31683
3675,23250,481,163,164,160,157,158,677,3438,191,159,158,160,149,156,3151,24209,575,298,275,276,272,274,374,1458,189,193,180,186,187,184,741,990,6972,15040,65535,65535,3453,798,676,677,5842,17280,15858,17053,843,699,1482,7430,31933,38115,28074,26539,38303,40863,661,1613,6436,30804,23885,32940,45312,31659
3678,23269,487,164,159,163,161,155,679,3447,192,161,157,159,157,159,3157,24224,579,295,276,277,272,272,373,1456,189,194,179,182,186,186,738,994,6965,15038,65535,65535,3456,801,677,680,5842,17285,15863,17067,846,701,1481,7427,31910,38092,28062,26509,38287,40855,659,1610,6430,30777,23893,32942,45303,31663
3679,23323,483,164,160,157,157,159,678,3458,187,159,157,156,155,156,3157,24250,575,296,274,277,274,276,374,1460,189,193,180,184,185,183,739,993,6962,15034,65535,65535,3449,799,680,683,5848,17298,15867,17076,851,697,1480,7431,31891,38066,28054,26495,38287,40855,661,1614,6426,30752,23893,32943,45318,31655
3681,23316,486,161,157,156,157,157,678,3459,189,158,158,159,159,156,3154,24233,577,295,274,279,274,273,375,1460,189,193,180,184,186,183,740,992,6959,15020,65535,65535,3455,800,680,680,5844,17291,15869,17081,845,701,1480,7429,31885,38059,28049,26508,38285,40855,660,1612,6424,30731,23887,32934,45320,31661
3681,23338,482,164,161,160,157,157,679,3466,188,159,158,166,159,152,3157,24263,575,298,274,275,275,274,373,1461,188,192,180,189,185,185,740,994,6953,15018,65535,65535,3446,799,683,680,5849,17315,15882,17110,850,703,1485,7434,31904,38071,28049,26513,38279,40875,661,1615,6427,30754,23896,32958,45345,31679
3687,23389,488,162,159,157,158,155,680,3472,189,162,159,152,160,154,3160,24299,580,298,277,278,272,277,373,1463,189,192,179,183,189,183,738,990,6942,15006,65535,65535,3453,797,687,685,5857,17346,15922,17172,855,708,1482,7443,31909,38096,28053,26546,38287,40911,659,1614,6415,30736,23924,33005,45427,31716
3689,23437,487,163,159,158,154,156,679,3485,191,159,162,156,155,154,3163,24338,576,297,275,277,274,275,373,1462,191,194,180,183,185,186,741,995,6948,15021,65535,65535,3449,802,687,690,5864,17382,15949,17225,856,711,1486,7456,31907,38109,28068,26574,38307,40939,661,1619,6403,30730,23940,33037,45422,31728
3694,23500,490,164,159,157,157,156,681,3498,188,154,153,155,161,152,3167,24390,582,295,276,278,276,274,374,1468,189,192,180,185,186,183,741,994,6954,15053,65535,65535,3458,803,691,691,5875,17449,15973,17277,861,715,1483,7467,31897,38105,28081,26597,38325,40977,661,1623,6423,30829,23931,33051,45363,31721
3698,23536,485,164,159,157,157,154,684,3509,189,159,162,155,156,157,3172,24414,577,295,278,276,272,273,377,1467,188,194,180,183,186,185,743,997,6951,15032,65535,65535,3448,804,694,694,5894,17475,15945,17199,859,711,1486,7481,31884,38075,28045,26527,38321,40931,663,1629,6464,30970,23897,32987,45303,31663
3681,23255,487,164,157,157,156,156,679,3445,191,156,159,156,157,159,3153,24138,577,295,275,276,273,273,375,1457,189,193,180,187,186,184,743,994,6946,14996,65535,65535,3454,802,690,690,5875,17312,15829,16995,855,706,1480,7423,31851,38029,27972,26425,38262,40842,661,1612,6517,30990,23845,32853,45216,31599
3675,23218,482,163,158,157,161,157,678,3439,187,152,156,156,157,153,3150,24130,573,294,275,277,273,274,370,1453,188,193,180,182,185,186,741,993,6945,14979,65535,65535,3447,802,684,686,5848,17211,15798,16953,849,703,1480,7406,31887,38045,27983,26433,38242,40807,660,1608,6488,30799,23833,32819,45277,31611
3675,23216,485,164,157,156,157,158,676,3441,188,159,159,156,155,155,3150,24130,575,294,275,276,274,273,375,1452,197,193,180,186,186,183,741,993,6941,14976,65535,65535,3453,801,683,685,5827,17157,15802,16963,853,706,1479,7403,31875,38031,27973,26412,38227,40797,659,1607,6428,30626,23857,32832,45287,31606
3677,23267,480,163,162,157,157,155,679,3451,187,159,161,154,171,153,3154,24168,575,297,275,276,271,273,375,1458,189,194,183,183,186,184,741,992,6942,14982,65535,65535,3448,803,683,683,5835,17191,15815,16982,849,705,1481,7407,31871,38022,27973,26412,38221,40801,663,1606,6436,30668,23849,32833,45247,31595
3680,23266,487,163,157,157,157,155,678,3454,189,162,156,151,153,158,3151,24150,578,299,279,277,276,273,375,1457,190,195,180,182,185,187,742,993,6944,14985,65535,65535,3454,801,683,684,5846,17227,15809,16982,850,702,1479,7406,31871,38030,27969,26420,38220,40805,661,1610,6483,30838,23821,32803,45161,31561
3682,23299,480,162,159,158,156,155,679,3465,188,159,157,158,159,156,3157,24178,573,295,276,276,272,271,374,1462,180,192,180,183,185,183,742,995,6952,15007,65535,65535,3446,802,681,681,5848,17238,15815,17009,846,702,1485,7412,31894,38046,27981,26435,38223,40818,661,1615,6514,30885,23813,32818,45175,31579
3685,23351,488,166,158,156,157,158,680,3475,189,159,157,159,160,155,3157,24214,578,293,275,284,273,273,375,1460,189,196,183,183,188,183,741,997,6957,15024,65535,65535,3454,804,682,683,5847,17260,15841,17057,853,704,1484,7421,31886,38060,27991,26455,38230,40842,659,1615,6488,30846,23834,32866,45201,31610
3691,23409,486,165,161,157,157,158,679,3484,188,162,159,154,154,156,3161,24262,573,295,273,276,274,276,377,1463,191,197,181,182,189,182,743,997,6964,15047,65535,65535,3451,805,685,683,5859,17314,15862,17114,851,705,1483,7431,31887,38065,28009,26485,38243,40888,661,1621,6486,30873,23853,32906,45205,31620
3697,23467,489,162,161,157,158,156,682,3493,187,162,159,156,157,156,3164,24315,580,297,277,275,273,274,375,1466,189,193,179,183,186,182,744,997,6970,15071,65535,65535,3457,808,685,686,5872,17382,15895,17179,854,706,1484,7445,31884,38086,28030,26524,38266,40937,659,1625,6501,30967,23856,32947,45204,31644
3701,23519,489,163,159,161,156,155,681,3507,192,158,157,160,155,155,3169,24354,577,295,275,276,271,272,375,1470,190,194,181,186,188,183,746,1003,6979,15079,65535,65535,3452,806,685,688,5883,17419,15899,17163,854,705,1486,7463,31873,38073,28031,26509,38290,40916,662,1631,6511,31001,23872,32961,45232,31636
3688,23250,487,164,159,157,158,155,679,3438,189,155,155,155,162,160,3155,24106,576,295,276,274,274,272,375,1457,189,192,179,183,187,185,744,995,6957,15007,65535,65535,3456,802,685,682,5845,17192,15779,16931,849,703,1483,7419,31837,37999,27947,26384,38209,40796,659,1611,6509,30860,23856,32850,45211,31578
3675,23159,479,164,157,157,156,154,677,3422,188,157,149,157,154,156,3146,24040,571,292,275,275,268,273,376,1454,188,193,180,184,187,183,741,995,6947,14979,65535,65535,3452,798,681,679,5829,17103,15747,16867,844,702,1481,7386,31875,38035,27954,26391,38194,40750,661,1605,6494,30752,23838,32795,45204,31545
3675,23133,484,164,159,158,155,156,675,3420,188,158,154,155,152,153,3149,24017,574,293,274,275,274,274,373,1451,190,197,180,186,184,183,738,991,6942,14970,65535,65535,3454,799,682,679,5822,17067,15729,16834,845,699,1482,7376,31878,38022,27941,26359,38169,40722,658,1603,6491,30715,23826,32749,45171,31527
3678,23169,481,164,159,160,160,156,674,3425,187,161,157,160,156,156,3147,24051,570,293,272,271,274,273,374,1455,191,197,180,185,184,182,739,991,6941,14969,65535,65535,3446,800,681,684,5830,17099,15745,16871,848,702,1482,7374,31871,38001,27934,26345,38153,40718,660,1605,6500,30743,23823,32761,45162,31529
3682,23191,485,166,158,157,158,156,675,3433,189,158,156,159,156,154,3151,24050,573,293,275,276,270,272,375,1454,189,194,182,182,186,183,739,992,6941,14964,65535,65535,3449,798,683,684,5837,17118,15756,16891,851,705,1481,7372,31848,37987,27925,26343,38144,40716,659,1606,6501,30742,23829,32775,45170,31530
3679,23203,483,164,158,157,157,159,677,3437,191,156,154,157,153,158,3150,24055,572,293,268,277,273,282,374,1455,189,194,180,181,186,183,741,990,6937,14963,65535,65535,3446,798,684,686,5842,17124,15773,16919,849,704,1482,7377,31875,38021,27943,26375,38144,40724,659,1614,6499,30741,23833,32793,45179,31538
3684,23253,485,163,160,157,160,154,677,3443,187,158,154,159,156,158,3153,24098,576,291,273,276,266,274,375,1459,189,194,182,182,185,183,737,989,6934,14971,65535,65535,3448,801,683,685,5847,17168,15796,16968,851,705,1481,7387,31855,38009,27950,26391,38151,40750,659,1610,6509,30791,23837,32811,45166,31549
3686,23316,485,163,162,159,160,156,677,3457,191,159,161,155,156,155,3156,24139,573,292,272,275,272,271,375,1461,191,193,183,183,185,183,739,993,6947,15006,65535,65535,3447,801,688,686,5857,17217,15804,17001,846,698,1485,7397,31850,38007,27967,26429,38166,40781,661,1617,6518,30845,23841,32844,45191,31574
3693,23385,488,163,159,166,157,159,677,3467,190,162,161,156,158,155,3160,24205,575,294,277,271,272,273,376,1464,197,192,180,184,188,183,741,995,6961,15043,65535,65535,3459,804,677,676,5836,17218,15825,17063,843,700,1484,7416,31854,38031,28001,26476,38189,40823,661,1620,6497,30814,23879,32911,45255,31615
3701,23449,485,164,159,159,156,157,677,3479,189,159,157,156,157,153,3165,24266,575,295,278,275,272,268,375,1468,188,194,179,185,186,186,744,997,6971,15066,65535,65535,3451,806,678,679,5848,17278,15863,17123,849,699,1490,7431,31850,38052,28031,26530,38213,40867,662,1623,6507,30888,23889,32952,45266,31637
3702,23378,487,165,157,158,155,156,678,3448,187,154,159,160,157,153,3167,24206,575,294,276,276,271,272,377,1462,187,193,180,182,185,183,743,995,6949,15004,65535,65535,3458,802,680,679,5832,17156,15794,16943,840,692,1485,7433,31809,37987,27971,26419,38180,40754,663,1618,6494,30773,23900,32881,45275,31585
3678,23128,482,165,159,158,160,154,673,3399,187,160,157,156,157,156,3153,24002,569,293,275,277,273,272,375,1452,190,198,181,183,184,184,739,991,6939,14966,65535,65535,3452,802,674,677,5784,16948,15704,16797,835,691,1486,7379,31800,37965,27952,26393,38135,40685,665,1601,6469,30595,23882,32801,45282,31549
3676,23092,484,163,161,161,155,156,672,3393,188,158,157,156,156,156,3149,23975,572,291,271,274,271,273,375,1449,191,197,180,186,186,183,738,990,6939,14949,65535,65535,3458,800,671,671,5774,16897,15685,16752,836,690,1483,7365,31815,37961,27951,26371,38107,40635,661,1597,6473,30573,23863,32744,45239,31513
3672,23087,479,163,159,156,157,156,673,3397,187,158,157,153,152,155,3149,23973,569,293,274,276,267,271,378,1453,189,193,180,183,185,175,739,989,6936,14947,65535,65535,3452,800,671,672,5774,16900,15687,16767,835,694,1485,7357,31802,37951,27949,26362,38087,40627,661,1597,6477,30574,23851,32727,45209,31502
3678,23141,483,162,158,158,157,154,673,3409,187,156,157,155,155,158,3153,24015,572,293,276,275,275,272,375,1453,191,194,183,183,185,185,740,990,6935,14955,65535,65535,3455,799,672,673,5781,16931,15709,16799,843,700,1482,7359,31788,37942,27946,26365,38075,40619,659,1601,6483,30606,23853,32738,45216,31507
3679,23135,480,165,162,160,159,155,672,3409,187,160,160,160,159,155,3149,24001,569,290,273,275,274,271,375,1455,189,197,182,184,187,186,740,990,6924,14936,65535,65535,3447,798,683,681,5799,16970,15731,16831,843,699,1486,7358,31809,37961,27959,26389,38085,40625,661,1603,6482,30602,23863,32755,45217,31507
3679,23171,483,164,159,157,155,157,673,3418,189,158,153,156,156,155,3151,24031,572,291,273,275,272,271,378,1453,190,194,181,183,185,183,740,989,6933,14957,65535,65535,3455,799,679,681,5807,17005,15752,16878,847,700,1483,7368,31834,37995,27975,26412,38078,40643,657,1604,6493,30663,23869,32776,45208,31515
3683,23236,482,166,159,160,157,156,674,3428,189,164,157,160,155,155,3154,24071,570,294,274,274,271,271,375,1456,190,196,180,188,183,183,741,991,6941,14975,65535,65535,3451,801,679,684,5815,17059,15788,16939,846,705,1490,7379,31844,38023,28002,26450,38094,40674,661,1609,6500,30701,23878,32807,45207,31536
3689,23303,486,163,159,160,157,155,674,3442,188,158,157,155,160,157,3158,24127,574,292,274,275,273,276,376,1460,191,197,185,184,189,188,742,993,6957,15018,65535,65535,3458,805,682,683,5830,17127,15817,17004,851,705,1486,7390,31850,38047,28033,26480,38112,40711,662,1613,6513,30787,23893,32853,45232,31554
3695,23375,486,168,159,157,157,156,678,3453,191,163,157,157,158,153,3162,24183,575,294,279,279,276,271,377,1465,190,197,181,184,186,184,743,996,6966,15043,65535,65535,3455,807,685,686,5845,17197,15861,17075,852,708,1489,7412,31873,38093,28073,26542,38141,40763,664,1619,6527,30881,23911,32902,45237,31580
3702,23427,490,167,159,157,157,159,677,3467,188,162,161,156,154,156,3169,24242,578,297,276,279,279,272,381,1469,189,191,175,183,186,184,746,997,6971,15065,65535,65535,3461,806,691,689,5875,17296,15897,17132,862,717,1490,7429,31897,38134,28114,26583,38173,40801,662,1626,6542,30962,23925,32946,45259,31605
3697,23279,483,164,161,156,158,156,675,3417,187,157,160,154,157,155,3164,24107,570,289,274,277,273,273,378,1459,190,193,182,186,186,182,746,997,6960,15027,65535,65535,3455,804,695,694,5852,17122,15801,16905,859,711,1495,7419,31891,38105,28041,26447,38123,40661,664,1616,6529,30818,23942,32856,45284,31548
3679,23105,484,167,163,158,158,159,673,3391,187,157,157,156,156,155,3153,23981,574,291,275,276,273,273,377,1451,190,193,179,183,186,185,743,995,6960,15000,65535,65535,3465,804,691,691,5823,16995,15747,16815,853,710,1487,7374,31913,38121,28046,26463,38099,40616,660,1601,6526,30747,23923,32798,45259,31519
3675,23093,479,163,157,158,155,157,670,3386,187,159,152,156,156,156,3151,23963,571,294,275,276,273,274,375,1452,189,193,179,182,185,183,747,993,6965,15009,65535,65535,3457,803,689,688,5818,16970,15728,16786,853,711,1492,7361,31935,38121,28048,26438,38074,40579,661,1599,6526,30718,23911,32761,45244,31499
3677,23118,484,166,158,158,157,155,671,3395,190,159,157,159,153,160,3153,23982,575,294,274,276,274,272,376,1453,189,195,183,183,181,188,745,998,6971,15022,65535,65535,3464,808,692,694,5828,17001,15744,16822,857,714,1488,7355,31916,38107,28060,26429,38062,40578,659,1603,6530,30729,23906,32763,45228,31501
3684,23161,480,162,163,159,156,155,672,3402,187,156,160,161,155,151,3156,24005,572,293,274,275,273,273,376,1455,189,193,183,188,186,186,746,1001,6977,15038,65535,65535,3455,807,693,701,5833,17017,15749,16832,855,711,1489,7358,31915,38117,28062,26431,38060,40573,662,1606,6532,30747,23925,32790,45247,31507
3680,23161,485,165,159,158,158,158,670,3405,187,156,156,157,160,155,3155,24007,574,295,275,276,273,273,380,1459,190,195,180,187,189,184,747,998,6971,15032,65535,65535,3463,805,693,696,5845,17055,15771,16869,862,719,1490,7361,31944,38153,28094,26475,38067,40583,664,1606,6538,30779,23936,32801,45243,31511
3684,23208,482,163,158,156,158,154,672,3413,187,152,155,152,157,157,3161,24041,576,296,275,277,273,275,379,1457,189,193,180,184,189,180,745,997,6983,15071,65535,65535,3458,810,700,700,5854,17100,15790,16909,863,719,1493,7369,31963,38180,28105,26479,38070,40606,663,1610,6542,30816,23941,32826,45256,31523
3689,23266,485,164,160,160,156,155,673,3426,188,155,160,156,155,159,3162,24081,575,295,276,277,275,274,378,1459,190,193,180,186,185,183,746,999,6993,15092,65535,65535,3465,809,700,702,5865,17158,15821,16969,865,721,1491,7381,31951,38183,28136,26518,38092,40647,665,1615,6553,30883,23946,32850,45240,31537
3693,23331,479,162,161,161,158,156,674,3436,187,160,158,160,155,152,3165,24138,574,295,275,277,274,275,379,1463,191,194,182,188,185,190,747,1002,7005,15138,65535,65535,3458,810,701,701,5883,17227,15846,17025,873,725,1495,7395,31954,38207,28170,26555,38111,40686,666,1618,6561,30951,23967,32909,45275,31572
3699,23390,489,160,159,158,158,155,675,3447,187,157,158,161,154,159,3167,24183,579,295,276,279,276,276,379,1469,190,193,180,182,186,185,748,1002,7015,15166,65535,65535,3468,811,710,705,5901,17301,15892,17099,871,724,1494,7415,31972,38253,28213,26619,38149,40736,664,1624,6576,31022,23989,32956,45295,31593
3707,23441,485,162,158,159,153,155,674,3455,189,155,158,156,153,155,3171,24217,579,294,278,278,275,275,378,1472,189,195,182,185,183,183,749,1003,7023,15168,65535,65535,3460,808,703,708,5908,17316,15878,17048,867,723,1496,7429,31965,38233,28205,26578,38161,40703,665,1627,6575,31042,23999,32955,45320,31577
3689,23169,485,167,159,156,158,157,670,3386,189,159,157,159,156,156,3158,23975,576,296,275,281,276,275,377,1459,188,201,183,183,185,182,750,999,7005,15108,65535,65535,3468,805,700,699,5869,17115,15785,16854,865,718,1494,7387,31943,38189,28169,26537,38109,40607,665,1609,6574,30922,23982,32853,45290,31526
3675,23119,482,163,159,157,160,154,669,3383,186,157,157,152,156,158,3154,23954,571,295,277,278,273,276,380,1457,191,195,190,185,180,184,745,996,6999,15097,65535,65535,3463,805,699,698,5859,17073,15771,16823,862,716,1495,7369,31987,38230,28186,26547,38095,40575,665,1607,6569,30881,23971,32821,45295,31517
3680,23135,485,166,161,157,157,156,671,3391,188,161,156,152,159,152,3155,23953,575,295,276,278,273,273,378,1457,190,193,181,183,189,184,745,998,7013,15131,65535,65535,3471,808,696,697,5851,17065,15759,16821,852,706,1493,7362,31975,38212,28197,26546,38085,40566,661,1604,6554,30832,23964,32821,45319,31531
3683,23202,482,163,158,157,157,157,671,3395,187,159,155,160,155,158,3160,24022,573,299,277,279,275,274,379,1459,189,194,174,182,185,185,749,1001,7026,15151,65535,65535,3467,806,684,688,5828,17038,15770,16853,847,704,1496,7372,31960,38198,28213,26551,38081,40561,663,1607,6528,30754,24006,32852,45391,31547
3689,23212,485,167,158,161,157,153,670,3394,191,159,161,157,155,153,3163,24040,576,295,278,277,273,275,379,1461,189,196,179,183,191,180,750,1001,7013,15128,65535,65535,3473,809,685,684,5824,17027,15782,16869,852,705,1496,7375,31930,38173,28219,26576,38082,40567,661,1608,6511,30708,24015,32857,45401,31552
3687,23234,482,163,157,157,161,155,671,3403,187,159,153,159,157,155,3163,24071,575,295,275,277,274,274,380,1463,189,193,180,184,183,183,747,1001,7016,15127,65535,65535,3469,810,685,687,5832,17065,15806,16905,854,709,1496,7381,31934,38167,28243,26609,38091,40589,663,1611,6517,30750,24019,32878,45411,31561
3690,23284,486,163,158,161,159,152,669,3413,188,157,158,159,157,152,3165,24112,577,293,276,279,274,274,380,1465,193,194,181,182,186,185,747,1004,7019,15139,65535,65535,3474,812,687,688,5843,17114,15826,16947,855,708,1495,7395,31918,38151,28274,26642,38097,40611,664,1616,6528,30807,24034,32913,45439,31589
3697,23346,483,164,165,160,157,158,671,3427,187,157,156,159,159,155,3167,24162,573,295,277,278,276,275,377,1468,190,196,180,187,187,184,751,1006,7019,15147,65535,65535,3466,812,688,690,5846,17153,15864,17017,855,708,1499,7409,31901,38155,28295,26673,38124,40653,665,1621,6514,30819,24061,32957,45468,31607
3700,23410,488,161,159,155,155,154,671,3439,188,158,154,154,156,159,3174,24217,577,295,274,277,276,275,379,1471,190,194,181,184,185,187,751,1006,7015,15162,65535,65535,3477,818,691,692,5859,17216,15901,17077,857,710,1498,7423,31881,38155,28327,26723,38152,40699,665,1623,6533,30901,24074,33010,45483,31639
3705,23460,486,164,157,156,157,155,673,3450,188,159,157,157,155,155,3177,24255,576,295,277,279,273,274,380,1477,189,194,182,184,188,185,755,1005,7019,15163,65535,65535,3469,814,691,691,5872,17271,15919,17093,856,709,1503,7442,31877,38143,28351,26731,38178,40701,665,1627,6535,30951,24102,33039,45515,31642
3697,23243,485,158,160,158,156,159,673,3390,186,157,153,158,152,156,3168,24041,576,295,276,275,277,272,379,1464,190,193,180,184,186,184,751,1004,7003,15107,65535,65535,3476,811,689,687,5840,17075,15804,16858,849,707,1498,7411,31841,38079,28276,26617,38117,40574,663,1611,6531,30824,24087,32922,45503,31574
3682,23145,479,163,158,156,160,155,667,3374,187,156,158,155,154,155,3159,23971,572,295,277,276,274,273,382,1460,189,195,180,184,190,183,748,999,6993,15078,65535,65535,3469,808,683,684,5816,16985,15772,16798,845,705,1497,7378,31838,38054,28284,26634,38099,40532,665,1602,6523,30759,24073,32881,45496,31546
3682,23122,483,163,161,158,160,160,666,3375,187,163,156,156,156,155,3157,23955,574,294,275,276,273,273,380,1457,190,194,181,187,186,184,749,996,6983,15055,65535,65535,3473,807,682,682,5814,16969,15763,16781,847,703,1497,7367,31835,38031,28283,26617,38071,40493,663,1600,6519,30722,24061,32847,45480,31535
3683,23161,482,165,161,157,158,157,669,3385,186,159,159,156,155,162,3158,23991,571,297,274,277,273,274,380,1460,189,195,183,183,188,187,749,1000,6987,15058,65535,65535,3465,811,684,684,5827,17013,15779,16818,849,705,1497,7365,31806,37991,28277,26606,38062,40498,663,1603,6524,30738,24075,32870,45530,31558
3690,23187,486,169,158,157,157,157,672,3391,189,162,157,154,155,154,3160,23982,575,294,275,278,275,277,379,1461,190,194,183,183,186,183,748,1000,6989,15065,65535,65535,3469,807,682,685,5823,17017,15785,16828,849,703,1497,7365,31799,37995,28275,26610,38058,40495,662,1606,6510,30705,24083,32871,45520,31541
3685,23191,480,164,159,159,157,157,669,3395,188,157,155,158,154,159,3161,24002,570,293,276,275,271,274,380,1462,188,194,180,186,189,186,746,998,6976,15047,65535,65535,3467,808,683,683,5827,17039,15812,16863,847,703,1498,7369,31799,37993,28293,26651,38071,40513,664,1606,6523,30752,24077,32878,45497,31541
3690,23239,487,165,160,159,157,158,670,3405,189,157,162,159,160,156,3161,24031,575,293,275,277,273,277,379,1464,187,193,180,184,190,183,748,999,6979,15063,65535,65535,3471,810,685,685,5839,17084,15839,16918,852,705,1501,7381,31791,37998,28316,26684,38076,40536,660,1609,6531,30807,24092,32909,45523,31559
3692,23297,482,163,164,156,159,154,668,3413,188,159,154,157,158,158,3165,24070,572,295,277,277,275,275,378,1467,192,194,181,184,185,183,751,998,6983,15078,65535,65535,3463,811,685,688,5865,17181,15872,16985,861,713,1503,7392,31791,37989,28327,26699,38101,40572,663,1613,6525,30807,24126,32974,45616,31615
3698,23349,487,164,158,161,158,151,672,3423,192,158,166,157,156,159,3167,24112,579,295,277,277,275,274,381,1470,190,196,180,188,186,186,749,1001,6991,15105,65535,65535,3472,817,693,694,5867,17209,15923,17062,863,716,1503,7411,31791,38014,28358,26745,38129,40618,663,1619,6503,30773,24172,33028,45681,31642
3700,23409,486,164,154,159,156,153,669,3436,190,158,156,155,156,155,3169,24156,575,297,278,276,276,275,381,1474,192,194,181,188,189,183,754,1004,7005,15129,65535,65535,3468,815,699,700,5885,17276,15961,17108,866,721,1506,7426,31763,37998,28382,26769,38161,40648,665,1620,6502,30819,24175,33053,45684,31649
3699,23275,487,163,158,157,154,155,669,3388,188,157,157,160,156,153,3168,24013,575,295,276,278,277,277,383,1465,192,194,182,183,187,182,755,1004,6983,15057,65535,65535,3477,813,697,701,5863,17119,15865,16893,867,719,1503,7412,31676,37872,28306,26651,38109,40525,664,1614,6500,30713,24171,32946,45671,31573
3679,23080,479,164,158,157,157,159,666,3360,187,159,154,157,155,155,3152,23868,571,297,277,278,275,276,380,1456,186,194,182,185,190,184,754,1006,6974,15031,65535,65535,3471,812,698,700,5842,17001,15807,16781,861,718,1504,7364,31675,37850,28288,26638,38083,40459,663,1599,6494,30622,24135,32860,45631,31528
3676,23047,482,163,163,157,155,156,663,3352,192,162,157,152,157,173,3148,23823,574,296,276,278,275,277,383,1454,189,191,180,188,187,182,753,1002,6974,15010,65535,65535,3478,813,703,699,5834,16961,15783,16731,862,719,1499,7346,31661,37806,28282,26602,38050,40403,663,1590,6495,30579,24099,32783,45565,31486
3673,23054,478,164,158,157,160,154,665,3351,188,158,166,155,156,154,3153,23836,572,297,277,277,275,275,379,1452,191,195,180,184,185,186,751,1002,6980,15016,65535,65535,3470,815,699,699,5838,16979,15787,16754,867,719,1500,7335,31619,37759,28273,26594,38037,40399,662,1590,6498,30582,24092,32771,45549,31478
3680,23102,486,162,162,155,157,159,665,3362,187,162,156,159,155,151,3153,23862,575,297,277,281,278,274,380,1456,190,192,182,183,189,184,755,1004,6980,15024,65535,65535,3478,813,701,701,5846,17005,15797,16769,866,724,1501,7341,31587,37721,28264,26579,38034,40393,659,1596,6496,30580,24082,32757,45527,31464
3679,23103,481,164,159,157,157,159,667,3363,186,157,151,157,152,157,3150,23853,567,297,278,277,275,277,379,1455,192,194,180,185,188,184,756,1004,6974,15009,65535,65535,3476,816,705,708,5856,17027,15823,16811,870,728,1503,7337,31603,37750,28262,26605,38037,40403,662,1594,6485,30541,24085,32762,45547,31469
3679,23134,484,166,158,157,157,158,666,3369,187,159,162,159,154,154,3153,23885,576,298,281,282,277,278,382,1457,190,198,182,185,187,184,759,1006,6983,15035,65535,65535,3484,819,707,707,5863,17070,15850,16856,873,729,1503,7351,31619,37773,28269,26620,38047,40426,663,1599,6490,30584,24081,32767,45516,31459
3683,23196,484,164,162,158,157,159,666,3384,189,159,160,156,154,155,3156,23924,574,300,280,281,278,279,380,1459,192,195,185,185,187,185,759,1010,6990,15055,65535,65535,3479,823,711,713,5884,17138,15878,16914,876,734,1505,7357,31609,37761,28279,26641,38059,40462,662,1599,6511,30671,24074,32782,45492,31468
3689,23257,487,163,157,159,158,156,667,3396,189,159,163,157,159,156,3160,23974,580,301,284,282,279,278,383,1460,192,195,181,185,190,185,764,1014,7003,15085,65535,65535,3487,827,718,717,5895,17199,15917,16985,885,739,1506,7375,31604,37775,28300,26671,38092,40507,663,1602,6515,30710,24093,32825,45521,31500
3694,23316,484,166,162,161,159,154,668,3406,187,162,161,160,154,159,3165,24025,576,300,281,283,279,279,383,1465,194,196,185,185,187,184,769,1020,7008,15105,65535,65535,3484,835,720,726,5920,17286,15959,17058,895,746,1512,7395,31617,37805,28325,26707,38128,40563,664,1611,6523,30780,24104,32875,45553,31529
3697,23365,487,164,159,158,160,155,666,3415,192,159,154,154,156,158,3165,24050,581,301,283,282,280,279,383,1465,190,197,181,186,188,187,773,1023,7012,15098,65535,65535,3492,833,727,728,5929,17288,15948,16996,892,745,1512,7413,31625,37803,28309,26664,38142,40521,664,1610,6522,30757,24109,32847,45556,31494
3680,23065,483,164,160,157,155,155,666,3340,188,159,155,157,153,155,3153,23770,577,301,282,283,281,279,382,1451,191,195,182,186,188,186,774,1021,6999,15035,65535,65535,3491,834,728,727,5887,17062,15827,16767,887,744,1516,7359,31586,37722,28229,26565,38083,40402,663,1587,6518,30623,24066,32692,45495,31411
3669,22993,482,162,159,157,158,155,663,3326,186,169,153,156,156,158,3143,23719,577,301,288,283,280,281,383,1447,190,195,183,189,187,189,777,1026,7007,15034,65535,65535,3505,840,719,718,5859,16965,15771,16675,880,735,1511,7336,31635,37769,28237,26567,38067,40363,662,1581,6534,30601,24023,32602,45468,31379
3667,22948,475,165,158,157,157,155,661,3315,186,160,157,148,156,156,3139,23671,573,302,284,284,282,280,381,1443,194,199,183,186,191,184,777,1027,6992,14994,65535,65535,3501,842,716,718,5851,16924,15767,16650,884,741,1513,7315,31644,37728,28202,26519,38032,40318,659,1576,6533,30564,23996,32541,45422,31341
3666,22993,483,167,159,155,157,154,659,3323,187,158,155,160,156,159,3144,23725,581,302,286,290,284,283,382,1444,191,199,183,186,188,189,785,1032,6995,14999,65535,65535,3509,850,722,724,5862,16964,15785,16692,891,747,1511,7315,31627,37715,28194,26510,38030,40321,662,1576,6524,30523,23986,32526,45413,31345
3668,23018,479,163,158,157,155,155,662,3328,191,156,153,160,158,157,3146,23716,578,303,289,287,283,284,385,1446,191,198,184,187,189,185,787,1039,6995,14990,65535,65535,3506,853,729,728,5865,16971,15803,16715,894,752,1517,7316,31629,37703,28181,26505,38025,40324,664,1582,6516,30496,23999,32521,45411,31331
3669,23031,483,163,159,160,160,159,660,3330,187,159,157,163,143,155,3144,23722,582,310,283,287,286,284,383,1445,192,199,183,186,188,185,794,1042,7001,15009,65535,65535,3517,857,729,728,5863,16977,15815,16745,894,753,1516,7323,31652,37727,28186,26527,38035,40335,661,1579,6506,30460,23994,32528,45449,31353
3670,23078,477,165,161,158,157,159,661,3337,187,157,157,157,155,155,3146,23759,579,309,286,299,283,286,384,1449,192,197,184,187,192,187,800,1046,7001,15013,65535,65535,3515,861,731,733,5873,17018,15851,16805,900,755,1521,7333,31646,37735,28190,26545,38049,40372,660,1580,6502,30474,24009,32555,45453,31362
3675,23144,484,165,159,158,157,160,663,3350,191,158,154,153,159,157,3152,23808,585,307,290,291,288,287,384,1452,191,199,183,187,193,187,803,1051,7009,15032,65535,65535,3523,865,738,738,5889,17096,15892,16881,917,779,1523,7349,31647,37739,28204,26575,38075,40420,658,1586,6511,30522,24010,32583,45476,31387
3677,23200,484,165,159,160,157,156,662,3362,189,162,156,158,156,152,3155,23851,584,308,287,291,288,286,384,1453,193,201,184,188,190,189,807,1051,7010,15046,65535,65535,3522,871,757,758,5933,17197,15948,16967,924,777,1529,7368,31666,37775,28224,26601,38106,40469,663,1589,6497,30504,24047,32650,45524,31421
3683,23262,486,164,160,161,158,156,663,3373,192,157,157,158,155,158,3158,23903,589,311,291,293,291,293,385,1459,192,197,186,188,190,187,810,1061,7029,15080,65535,65535,3532,878,760,759,5943,17263,15998,17049,929,783,1529,7389,31665,37793,28260,26651,38161,40542,659,1595,6508,30586,24058,32687,45527,31441
3686,23325,484,164,159,157,157,158,665,3383,188,158,158,153,156,160,3164,23971,589,314,289,291,291,295,386,1459,192,198,185,187,191,189,820,1067,7047,15121,65535,65535,3532,883,764,765,5967,17339,16033,17094,939,787,1534,7413,31671,37804,28295,26689,38192,40585,663,1600,6531,30698,24053,32711,45533,31451
3686,23174,485,165,159,158,155,156,664,3337,190,161,155,152,157,159,3163,23817,590,313,293,295,295,294,385,1450,193,198,186,187,191,188,821,1073,7036,15068,65535,65535,3545,885,767,766,5937,17148,15926,16853,932,784,1535,7397,31631,37735,28203,26550,38159,40458,661,1588,6514,30518,24072,32608,45598,31403
3663,22983,477,167,159,156,156,156,659,3297,186,161,157,156,157,155,3150,23670,585,314,294,295,293,293,385,1437,191,197,185,187,191,187,825,1073,7041,15047,65535,65535,3543,887,766,767,5901,16993,15860,16736,928,786,1537,7351,31643,37725,28201,26532,38146,40423,661,1568,6481,30325,24043,32515,45578,31356
3662,22953,481,160,159,158,157,157,658,3290,190,158,157,154,159,156,3149,23639,590,315,295,298,294,291,384,1434,192,200,186,187,193,187,826,1076,7047,15043,65535,65535,3551,892,766,769,5897,16953,15841,16689,932,787,1538,7337,31659,37711,28191,26499,38127,40381,659,1565,6473,30245,24011,32444,45537,31319
3658,22956,476,162,162,157,159,158,656,3292,185,154,160,157,156,159,3149,23653,587,316,298,301,295,296,383,1433,193,200,189,188,190,188,833,1079,7059,15061,65535,65535,3547,895,772,768,5903,16969,15847,16716,938,793,1542,7331,31661,37716,28181,26478,38122,40387,660,1562,6473,30243,24003,32423,45534,31319
3663,23009,483,164,161,157,157,155,657,3302,186,162,153,154,154,154,3151,23679,593,319,298,297,298,297,386,1434,188,198,185,189,191,189,838,1084,7063,15070,65535,65535,3559,899,775,774,5915,16995,15865,16738,942,799,1538,7335,31659,37703,28183,26475,38135,40393,659,1565,6474,30230,24012,32429,45537,31320
3664,23007,479,163,159,156,157,154,659,3300,187,158,158,153,156,157,3153,23675,591,319,298,298,293,293,388,1432,194,198,186,189,193,189,839,1087,7067,15074,65535,65535,3553,905,781,781,5921,17002,15887,16767,944,802,1544,7339,31683,37732,28187,26492,38149,40418,664,1566,6461,30183,24038,32455,45633,31350
3666,23043,485,165,159,157,159,159,659,3309,189,158,160,152,155,155,3155,23700,593,317,305,300,298,297,386,1434,200,199,186,189,191,189,843,1093,7079,15105,65535,65535,3563,907,782,785,5923,17034,15914,16818,949,805,1547,7351,31713,37773,28205,26513,38168,40453,660,1569,6450,30159,24053,32469,45637,31359
3668,23105,482,167,157,158,156,156,658,3313,187,162,155,157,156,157,3154,23740,592,321,301,303,295,300,381,1436,197,200,186,188,192,189,848,1097,7092,15138,65535,65535,3564,914,786,787,5940,17089,15952,16879,955,808,1550,7362,31706,37779,28227,26551,38195,40501,667,1569,6450,30169,24067,32503,45671,31386
3673,23174,487,164,162,157,157,157,658,3319,188,159,157,158,159,155,3161,23800,597,321,306,306,301,299,385,1439,196,201,186,188,193,189,855,1103,7111,15171,65535,65535,3576,920,787,789,5942,17130,15987,16942,958,817,1552,7384,31725,37809,28255,26573,38223,40547,661,1574,6437,30167,24102,32563,45779,31443
3681,23233,481,164,158,161,158,155,657,3329,187,158,155,160,160,154,3164,23849,596,325,304,305,304,302,386,1441,195,201,187,190,193,189,861,1109,7123,15203,65535,65535,3572,926,794,796,5960,17207,16038,17025,972,825,1557,7403,31720,37825,28287,26621,38279,40617,660,1581,6429,30191,24145,32635,45845,31483
3683,23290,486,166,158,156,159,157,659,3339,186,159,160,155,155,157,3168,23887,602,323,306,306,303,306,387,1446,194,205,187,189,192,189,868,1114,7140,15244,65535,65535,3585,930,805,807,5985,17279,16079,17091,978,832,1560,7427,31744,37884,28332,26685,38328,40684,660,1583,6438,30254,24153,32665,45828,31495
3687,23303,484,163,157,156,160,156,661,3334,191,159,155,154,157,157,3171,23863,600,324,305,305,303,303,387,1446,196,201,186,190,189,190,869,1119,7137,15214,65535,65535,3581,932,809,815,5988,17222,16033,16958,975,827,1563,7436,31715,37823,28282,26577,38327,40610,665,1585,6439,30216,24174,32615,45859,31445
3665,23007,483,163,161,161,157,159,654,3272,186,158,156,156,153,156,3153,23628,599,323,306,306,309,302,387,1426,196,196,187,192,192,193,870,1117,7127,15161,65535,65535,3591,929,807,807,5948,17036,15938,16791,972,827,1561,7384,31694,37785,28261,26551,38306,40567,662,1563,6440,30111,24122,32504,45814,31395
3658,22984,479,164,162,157,156,155,653,3267,184,159,159,157,155,156,3155,23618,596,323,299,311,305,304,385,1426,195,202,194,189,194,189,870,1118,7129,15157,65535,65535,3587,931,809,809,5945,17001,15927,16759,973,829,1563,7374,31725,37801,28265,26552,38304,40559,663,1557,6438,30051,24109,32462,45807,31380
3657,22993,481,166,158,158,156,156,652,3270,187,156,155,155,154,155,3152,23620,600,325,305,306,310,305,391,1425,195,201,189,192,193,194,873,1120,7131,15162,65535,65535,3595,935,813,814,5948,17015,15939,16789,979,833,1562,7369,31709,37769,28272,26541,38307,40564,659,1559,6439,30043,24106,32455,45775,31376
3663,23045,479,167,159,156,156,157,653,3280,186,162,158,156,155,159,3156,23654,597,327,308,312,303,307,387,1427,198,201,191,189,193,191,873,1126,7132,15173,65535,65535,3588,938,813,815,5962,17051,15955,16813,982,837,1564,7373,31674,37744,28272,26537,38317,40586,664,1562,6444,30054,24115,32463,45803,31391
3665,23047,483,166,157,160,161,156,654,3277,185,159,159,157,155,157,3156,23644,603,329,308,308,303,307,385,1427,195,199,187,191,196,190,878,1125,7130,15163,65535,65535,3595,939,817,817,5963,17056,15977,16841,982,837,1565,7379,31679,37755,28281,26574,38340,40604,660,1559,6443,30040,24135,32482,45842,31405
3663,23081,481,165,158,156,158,157,655,3283,186,160,156,151,160,156,3156,23675,598,328,307,308,306,304,388,1429,200,200,188,194,193,190,878,1126,7137,15177,65535,65535,3592,943,817,819,5965,17072,15993,16867,977,833,1567,7387,31672,37739,28299,26591,38359,40648,662,1561,6443,30051,24140,32495,45871,31431
3667,23137,483,163,160,156,157,156,653,3287,186,162,159,160,154,154,3158,23718,602,328,309,309,307,306,389,1431,194,199,187,189,194,194,886,1133,7154,15211,65535,65535,3601,943,810,811,5957,17086,16022,16928,978,833,1569,7407,31696,37773,28327,26627,38382,40687,662,1567,6435,30053,24183,32565,45965,31476
3675,23209,482,166,158,157,161,155,656,3296,187,162,157,157,157,156,3163,23790,600,327,309,307,305,304,386,1430,196,201,188,190,193,191,884,1134,7144,15205,65535,65535,3593,944,813,813,5965,17134,16074,17007,983,837,1570,7423,31654,37745,28349,26658,38410,40739,662,1573,6436,30098,24205,32615,46005,31512
3683,23275,488,167,159,159,157,159,656,3308,187,158,157,156,156,155,3171,23848,604,325,306,307,308,304,386,1435,197,205,188,191,193,191,883,1137,7154,15229,65535,65535,3603,945,817,817,5975,17195,16101,17068,982,837,1570,7438,31633,37741,28391,26711,38463,40805,662,1575,6447,30168,24222,32667,46032,31548
3687,23326,484,167,163,161,157,157,655,3318,187,162,162,161,155,159,3174,23894,601,327,305,308,306,305,387,1438,196,202,191,190,194,187,886,1135,7165,15261,65535,65535,3597,947,816,818,5982,17250,16150,17137,983,836,1573,7461,31666,37791,28435,26785,38511,40873,663,1581,6451,30222,24262,32738,46082,31590
3689,23385,488,163,158,157,156,156,657,3326,187,163,156,157,153,152,3177,23950,604,328,306,307,308,305,387,1442,196,201,192,190,192,191,889,1135,7163,15251,65535,65535,3600,944,814,819,5992,17287,16150,17113,981,832,1574,7485,31660,37777,28442,26750,38531,40855,665,1586,6457,30264,24284,32749,46137,31587
3681,23126,480,164,162,157,159,157,655,3255,187,158,162,156,156,152,3162,23706,597,324,305,305,303,304,385,1428,194,200,190,191,194,192,881,1129,7139,15185,65535,65535,3590,937,810,809,5942,17033,16015,16869,971,825,1572,7441,31626,37731,28361,26651,38492,40782,664,1562,6447,30097,24281,32641,46162,31551
3667,23047,482,163,158,160,156,154,652,3242,185,162,155,157,155,159,3157,23661,598,324,303,306,302,301,384,1421,194,206,185,189,193,190,875,1123,7133,15163,65535,65535,3593,933,802,802,5920,16957,15980,16808,964,819,1566,7414,31660,37749,28387,26671,38502,40777,663,1559,6438,30033,24262,32597,46151,31525
3668,23042,478,165,159,159,156,156,651,3243,186,162,158,156,159,152,3157,23650,594,324,305,306,302,301,386,1419,194,204,186,191,194,193,872,1119,7122,15143,65535,65535,3581,931,800,798,5916,16952,15977,16809,967,824,1569,7410,31653,37732,28386,26659,38498,40774,664,1556,6447,30015,24255,32578,46147,31531
3671,23075,483,164,159,155,158,160,652,3251,187,162,159,160,155,155,3159,23688,596,323,303,304,301,301,385,1419,196,200,182,189,193,190,868,1117,7114,15135,65535,65535,3583,925,803,805,5930,16992,16006,16851,965,820,1566,7414,31652,37731,28387,26660,38506,40795,662,1560,6438,30023,24270,32605,46166,31546
3674,23112,480,163,162,156,159,160,653,3255,186,159,157,156,157,159,3158,23686,594,320,303,302,300,303,383,1423,196,201,184,189,192,189,865,1111,7108,15129,65535,65535,3572,923,798,801,5928,16994,16008,16853,960,815,1564,7414,31639,37710,28397,26677,38517,40819,663,1562,6451,30063,24268,32595,46125,31527
3674,23120,485,162,159,157,157,156,651,3257,188,157,153,156,156,155,3158,23707,595,319,300,302,300,298,386,1422,194,201,187,191,191,194,861,1106,7089,15101,65535,65535,3575,918,795,795,5930,17027,16025,16888,956,809,1561,7422,31653,37744,28418,26713,38535,40844,663,1564,6475,30142,24252,32605,46102,31535
3678,23171,480,163,162,154,157,157,651,3266,187,156,161,153,156,155,3158,23741,591,319,301,301,298,299,384,1422,195,199,189,189,195,190,859,1103,7091,15116,65535,65535,3569,917,791,791,5936,17065,16061,16950,954,811,1565,7434,31681,37768,28439,26748,38550,40887,663,1567,6473,30154,24285,32665,46191,31586
3683,23233,485,171,161,162,157,157,655,3274,186,159,156,157,155,159,3163,23795,597,318,299,299,297,298,384,1427,194,199,186,190,193,205,854,1103,7089,15130,65535,65535,3571,916,789,791,5945,17119,16100,17017,956,807,1558,7451,31671,37773,28465,26787,38579,40932,663,1574,6480,30216,24309,32717,46215,31615
3687,23299,483,164,161,158,157,160,652,3286,186,157,159,157,161,157,3165,23853,593,318,298,300,300,297,385,1428,195,200,189,188,191,189,852,1104,7091,15141,65535,65535,3560,911,789,793,5955,17191,16138,17090,955,809,1561,7469,31666,37775,28501,26834,38611,40978,663,1577,6497,30303,24313,32746,46191,31627
3694,23363,490,167,159,169,155,157,654,3299,187,159,155,157,153,159,3170,23901,595,317,299,299,297,296,385,1430,197,199,186,189,191,194,850,1097,7097,15170,65535,65535,3567,911,786,787,5968,17261,16170,17153,952,804,1559,7481,31665,37798,28533,26883,38651,41042,663,1580,6516,30406,24326,32803,46211,31671
3699,23423,485,164,158,158,159,156,655,3304,186,157,158,156,156,154,3172,23961,591,315,301,299,296,295,384,1434,196,199,185,189,191,191,847,1098,7098,15186,65535,65535,3556,908,784,786,5979,17317,16217,17222,954,807,1560,7504,31681,37832,28583,26943,38694,41099,665,1583,6521,30453,24356,32873,46273,31716
3706,23447,489,162,159,159,155,159,661,3306,186,159,156,159,160,155,3178,23959,596,315,296,298,294,294,385,1435,193,199,187,188,193,188,845,1096,7083,15148,65535,65535,3561,901,785,785,5971,17267,16174,17103,946,800,1560,7515,31649,37789,28538,26870,38689,41044,664,1587,6517,30420,24369,32829,46327,31689
3685,23119,481,163,162,156,161,157,651,3232,186,157,161,156,157,153,3158,23704,587,314,294,296,293,292,385,1418,194,199,187,189,191,191,840,1087,7066,15082,65535,65535,3551,897,776,776,5923,17039,16055,16892,938,790,1555,7460,31625,37743,28497,26816,38661,40987,666,1559,6511,30285,24335,32716,46278,31641
3679,23087,483,167,159,159,159,157,650,3223,190,159,157,154,157,157,3155,23685,592,313,294,297,291,293,382,1414,191,200,187,187,191,188,833,1083,7051,15047,65535,65535,3554,891,772,771,5912,16992,16042,16858,932,787,1553,7446,31655,37755,28527,26852,38662,40983,663,1559,6531,30304,24300,32669,46225,31614
3679,23075,480,162,162,158,154,155,650,3225,189,155,161,156,154,153,3156,23677,586,312,292,294,291,290,384,1413,195,199,187,187,193,190,831,1079,7049,15048,65535,65535,3545,892,767,768,5911,16985,16029,16855,935,793,1553,7441,31653,37740,28521,26823,38653,40983,663,1556,6530,30283,24279,32637,46179,31612
3679,23119,483,167,159,156,161,156,650,3235,185,158,158,157,156,155,3156,23714,588,311,294,294,289,290,383,1414,193,202,185,190,191,187,832,1077,7046,15061,65535,65535,3546,890,779,774,5925,17035,16048,16893,938,794,1550,7447,31653,37761,28517,26801,38655,40991,663,1558,6531,30301,24293,32669,46233,31636
3685,23142,480,164,160,154,155,156,648,3237,184,158,157,156,156,154,3156,23691,583,313,293,296,293,294,383,1414,195,198,185,187,193,191,829,1075,7067,15091,65535,65535,3538,888,775,775,5931,17045,16071,16925,941,795,1555,7447,31644,37759,28533,26837,38679,41027,665,1562,6532,30286,24311,32693,46264,31656
3680,23143,483,163,159,156,156,158,651,3238,185,158,160,156,156,154,3156,23717,592,314,299,297,295,295,385,1417,193,199,185,188,190,188,827,1074,7065,15115,65535,65535,3543,893,777,782,5961,17125,16055,16895,943,796,1553,7463,31799,37949,28553,26784,38653,40995,668,1570,6515,30227,24363,32766,46422,31751
3700,23283,486,165,161,155,157,156,654,3269,187,161,154,155,156,152,3134,23521,586,315,296,297,292,295,383,1413,195,201,184,187,191,190,832,1090,7344,15789,65535,65535,3514,888,774,773,5959,17203,15826,16754,911,762,1555,7415,31687,37986,28393,26306,38659,41037,667,1573,6473,30173,24450,32778,46648,31843
3702,23315,489,165,158,162,159,155,655,3280,187,159,159,157,156,154,3115,23471,588,316,301,299,295,296,383,1419,193,198,184,187,189,186,827,1085,7415,15869,65535,65535,3534,875,736,731,5929,17256,15948,16953,877,726,1557,7432,31795,38171,28561,26655,38778,41154,670,1581,6515,30423,24437,32878,46505,31806
3701,23357,484,165,159,158,160,155,656,3301,185,160,157,161,156,156,3132,23607,589,313,299,299,297,297,383,1423,191,201,183,187,189,186,813,1075,7420,15952,65535,65535,3539,876,707,704,5928,17334,16000,17021,865,718,1567,7492,31908,38300,28643,26718,38809,41201,671,1587,6605,30743,24406,32907,46427,31807
3715,23455,491,167,159,156,156,158,660,3327,188,158,157,157,158,155,3131,23599,592,318,299,299,297,295,383,1425,191,195,183,190,190,186,813,1082,7563,16265,65535,65535,3554,875,695,695,5937,17407,15969,17037,854,708,1567,7503,31927,38414,28683,26710,38843,41253,668,1593,6649,30971,24438,32986,46478,31850
3722,23530,487,163,157,158,158,156,661,3335,186,157,160,157,156,156,3126,23615,589,317,298,298,295,297,381,1429,191,198,187,187,190,187,813,1082,7615,16365,65535,65535,3545,870,685,687,5931,17429,15983,17054,845,699,1568,7522,31927,38437,28725,26724,38891,41281,671,1601,6636,30968,24461,33028,46522,31866
3711,23279,487,159,158,160,157,156,660,3269,187,161,154,155,157,153,3116,23399,585,316,297,297,294,295,383,1418,189,197,183,187,189,187,806,1072,7597,16279,65535,65535,3553,866,677,673,5883,17192,15884,16845,831,686,1569,7495,31900,38367,28679,26689,38862,41197,670,1581,6625,30838,24442,32913,46471,31791
3697,23150,481,166,161,160,156,155,656,3243,185,160,161,157,155,155,3117,23387,582,315,296,299,295,293,381,1408,195,199,186,187,190,186,799,1064,7535,16135,65535,65535,3545,859,668,665,5849,17069,15845,16767,828,690,1569,7473,31845,38260,28697,26709,38841,41158,667,1569,6608,30720,24399,32833,46426,31761
3702,23152,486,160,162,157,159,159,657,3237,187,159,157,160,157,160,3123,23379,584,315,297,298,294,295,380,1405,193,197,183,185,188,186,795,1063,7535,16145,65535,65535,3546,860,667,666,5846,17046,15791,16691,833,692,1565,7463,31775,38173,28687,26623,38812,41137,667,1566,6607,30667,24367,32763,46415,31762
3702,23167,479,167,158,158,155,155,656,3247,185,162,158,157,156,155,3119,23393,583,318,299,298,296,295,381,1407,191,196,183,187,188,187,799,1064,7542,16138,65535,65535,3537,865,671,672,5853,17068,15804,16726,836,694,1564,7461,31765,38169,28710,26654,38826,41150,668,1567,6573,30561,24368,32751,46433,31778
3704,23216,489,163,157,159,157,155,655,3251,186,157,159,146,158,151,3126,23441,587,315,297,297,295,295,382,1411,195,197,183,189,189,190,800,1064,7528,16104,65535,65535,3541,859,674,676,5854,17077,15826,16757,841,697,1561,7469,31715,38113,28712,26660,38825,41163,671,1567,6570,30557,24389,32764,46441,31781
3705,23214,481,167,158,158,157,156,655,3251,187,158,154,155,159,152,3132,23479,585,316,300,297,297,293,383,1406,190,196,183,187,189,189,796,1060,7484,16017,65535,65535,3533,859,677,679,5854,17080,15859,16795,839,698,1564,7474,31665,38068,28735,26732,38844,41183,671,1571,6573,30555,24355,32743,46393,31775
3708,23261,489,164,158,158,158,155,654,3255,187,153,155,157,156,157,3137,23535,589,315,295,299,295,295,384,1411,195,197,183,186,190,190,798,1061,7460,15969,65535,65535,3538,859,677,680,5862,17122,15893,16855,853,703,1561,7487,31669,38077,28751,26771,38843,41209,667,1571,6572,30579,24353,32766,46415,31798
3715,23328,484,168,159,157,157,156,656,3262,185,160,156,153,156,155,3143,23609,587,317,300,297,293,295,383,1413,191,198,183,186,189,188,797,1061,7428,15906,65535,65535,3531,860,689,691,5863,17090,15963,16943,860,715,1564,7499,31692,38076,28781,26827,38856,41241,667,1577,6594,30712,24338,32777,46362,31794
3720,23399,489,167,158,157,160,155,656,3275,187,159,160,158,155,155,3146,23647,591,315,296,297,295,295,383,1416,193,199,185,187,189,187,797,1059,7410,15885,65535,65535,3538,859,693,693,5856,17123,16000,17007,851,703,1562,7505,31572,37994,28794,26856,38869,41281,666,1580,6648,30923,24344,32829,46357,31819
3721,23453,486,165,158,157,158,154,655,3279,188,158,155,156,160,155,3154,23730,589,315,296,300,296,296,383,1419,191,196,182,187,190,187,798,1056,7379,15827,65535,65535,3535,862,684,683,5863,17184,16053,17089,851,703,1563,7531,31616,38052,28845,26952,38898,41327,670,1584,6636,30914,24394,32921,46417,31862
3728,23519,490,165,160,160,159,159,656,3289,187,162,159,156,153,155,3162,23808,591,316,297,296,295,295,385,1423,192,197,183,191,190,186,798,1062,7385,15859,65535,65535,3542,862,683,686,5879,17244,16063,17095,851,707,1561,7558,31709,38153,28863,26949,38914,41327,669,1590,6624,30921,24439,32977,46495,31888
3719,23287,482,164,159,158,158,156,659,3225,187,158,157,157,162,153,3150,23586,590,317,296,299,298,297,387,1408,191,204,183,187,190,190,800,1063,7383,15827,65535,65535,3533,862,683,689,5841,17021,15938,16855,849,705,1560,7525,31733,38138,28767,26789,38852,41214,671,1571,6598,30737,24461,32882,46543,31852
3702,23161,487,168,162,155,155,158,652,3205,187,159,157,160,152,156,3143,23522,587,313,296,300,295,293,382,1401,193,197,184,187,189,186,799,1059,7371,15784,65535,65535,3543,861,685,684,5819,16921,15894,16786,849,706,1556,7491,31763,38162,28778,26811,38836,41190,668,1559,6590,30651,24439,32824,46509,31829
3700,23148,479,164,160,160,157,157,650,3203,184,158,165,160,159,153,3145,23527,586,316,298,300,296,295,381,1398,198,197,186,189,189,189,801,1059,7367,15755,65535,65535,3533,861,689,686,5820,16913,15901,16788,855,716,1559,7489,31825,38187,28775,26812,38819,41177,668,1559,6592,30623,24435,32806,46487,31820
3699,23169,484,163,160,158,157,158,651,3212,190,161,158,153,153,154,3147,23559,589,319,297,299,297,294,383,1399,191,197,183,187,189,187,800,1059,7350,15735,65535,65535,3538,860,695,697,5842,16965,15935,16830,862,719,1555,7491,31839,38213,28778,26803,38809,41170,667,1560,6576,30589,24459,32840,46547,31838
3704,23198,481,164,158,156,159,155,651,3213,185,158,164,156,157,154,3151,23558,585,314,297,301,295,295,383,1398,192,196,183,186,189,187,800,1062,7345,15721,65535,65535,3530,864,701,697,5848,16966,15947,16852,865,720,1559,7493,31826,38195,28777,26805,38796,41169,669,1566,6581,30617,24466,32839,46515,31834
3702,23197,488,167,157,161,160,156,653,3215,185,161,158,156,155,153,3149,23567,589,316,297,297,294,296,383,1399,195,199,183,189,190,190,801,1059,7337,15702,65535,65535,3537,865,699,699,5851,16983,15972,16879,867,723,1554,7494,31818,38187,28785,26848,38801,41177,669,1562,6585,30623,24457,32839,46478,31828
3705,23239,482,164,158,157,157,156,652,3222,185,158,151,157,155,152,3152,23612,587,316,297,301,300,295,381,1403,192,197,183,187,191,189,799,1059,7325,15675,65535,65535,3534,864,703,703,5858,17021,16008,16936,869,725,1558,7507,31795,38166,28800,26883,38802,41197,667,1564,6585,30638,24450,32855,46451,31829
3709,23300,487,160,161,157,158,154,652,3232,189,162,157,153,152,154,3158,23677,593,317,298,298,296,298,382,1408,191,194,184,188,190,187,800,1060,7313,15664,65535,65535,3537,864,707,707,5881,17095,16045,16999,880,735,1556,7517,31765,38135,28809,26897,38802,41227,667,1570,6605,30714,24451,32890,46440,31849
3714,23355,484,167,159,158,155,155,653,3242,186,163,157,157,156,156,3160,23714,588,317,299,299,295,296,383,1406,192,199,185,187,190,187,804,1064,7314,15669,65535,65535,3532,869,717,715,5897,17156,16096,17080,883,737,1560,7533,31765,38153,28831,26959,38824,41265,669,1573,6603,30751,24463,32927,46443,31871
3715,23399,488,164,161,160,156,157,653,3252,190,163,157,156,157,157,3163,23780,594,317,299,299,298,298,383,1411,191,196,185,189,189,187,804,1063,7301,15645,65535,65535,3540,868,721,720,5919,17241,16145,17151,891,744,1558,7552,31769,38164,28857,27009,38832,41296,668,1577,6615,30831,24463,32971,46442,31884
3720,23363,483,164,160,156,157,157,656,3233,185,159,155,156,153,154,3166,23715,589,318,300,300,295,296,384,1409,193,197,183,187,191,191,807,1063,7286,15600,65535,65535,3533,866,724,729,5914,17147,16093,17009,887,742,1561,7549,31749,38123,28787,26895,38814,41203,669,1575,6606,30752,24486,32918,46471,31849
3693,23085,485,163,159,159,157,156,651,3182,186,158,157,157,159,158,3150,23526,589,318,297,301,301,300,383,1393,194,199,187,187,193,188,803,1059,7257,15509,65535,65535,3539,868,723,724,5882,16983,16039,16895,899,754,1557,7504,31727,38059,28767,26906,38771,41152,665,1553,6590,30595,24461,32855,46486,31835
3687,23061,480,164,158,161,158,157,648,3175,186,157,156,160,153,156,3159,23550,592,321,303,303,298,305,382,1394,191,197,184,190,191,189,808,1061,7241,15453,65535,65535,3534,871,738,740,5894,16955,16044,16890,911,767,1558,7503,31803,38089,28769,26913,38746,41113,667,1552,6583,30530,24474,32849,46481,31819
3689,23084,483,163,160,158,159,156,653,3183,185,161,154,154,155,155,3159,23578,592,321,300,300,297,295,381,1395,191,197,184,188,190,186,808,1065,7231,15437,65535,65535,3537,871,747,746,5881,16928,16062,16917,906,759,1558,7495,31766,38046,28741,26873,38716,41101,666,1556,6581,30543,24445,32816,46462,31827
3694,23137,481,162,159,159,156,154,648,3188,185,163,157,159,156,158,3157,23599,585,316,296,296,297,294,383,1394,192,198,183,191,190,188,812,1067,7231,15441,65535,65535,3530,874,739,739,5859,16889,16051,16907,897,752,1560,7495,31747,38032,28729,26851,38698,41085,667,1557,6556,30465,24496,32864,46606,31870
3691,23132,484,166,159,156,157,158,648,3186,189,159,159,160,152,155,3156,23595,589,316,297,302,297,295,385,1396,193,199,183,187,189,188,812,1066,7221,15416,65535,65535,3538,871,732,731,5849,16878,16073,16933,897,751,1554,7490,31760,38031,28735,26890,38692,41093,671,1558,6522,30378,24527,32896,46670,31900
3693,23169,483,167,160,160,156,156,647,3186,185,161,156,160,155,154,3161,23644,586,316,295,296,296,294,383,1396,195,199,185,190,191,189,813,1067,7212,15407,65535,65535,3530,877,734,733,5858,16918,16097,16977,900,755,1557,7499,31751,38023,28732,26893,38683,41094,669,1558,6512,30383,24541,32919,46665,31907
3699,23230,487,165,158,159,160,156,647,3194,185,160,156,156,155,154,3163,23696,590,319,299,297,294,296,384,1397,197,198,188,191,190,188,813,1067,7207,15399,65535,65535,3536,875,735,735,5868,16973,16135,17030,904,758,1553,7510,31719,37997,28735,26918,38686,41119,665,1566,6524,30454,24537,32935,46603,31892
3701,23289,483,159,158,157,157,156,649,3208,187,159,157,156,154,155,3171,23745,589,313,301,295,295,294,384,1400,195,198,186,186,193,188,817,1070,7216,15425,65535,65535,3533,876,737,741,5882,17030,16150,17078,905,761,1558,7523,31698,37996,28751,26946,38695,41158,665,1565,6538,30515,24536,32957,46603,31911
3709,23347,487,165,161,157,156,155,653,3219,189,159,159,158,155,156,3172,23792,595,316,296,298,298,295,384,1402,191,198,183,189,190,190,816,1073,7217,15445,65535,65535,3541,881,739,740,5895,17093,16186,17140,910,762,1555,7533,31711,38029,28767,26979,38708,41177,668,1573,6542,30575,24555,33000,46615,31943
3715,23340,484,166,158,161,157,156,650,3208,186,161,157,160,152,155,3173,23779,589,315,297,299,295,295,383,1404,193,198,185,188,190,194,818,1072,7201,15396,65535,65535,3531,879,742,743,5889,17029,16139,17014,905,761,1558,7541,31675,37975,28705,26868,38679,41099,669,1568,6539,30530,24578,32966,46639,31904
3692,23056,482,165,157,159,159,157,647,3150,184,158,160,156,155,156,3158,23554,590,315,298,297,293,295,383,1386,191,198,184,193,190,190,817,1073,7190,15349,65535,65535,3535,875,738,741,5853,16846,16035,16834,900,757,1554,7487,31666,37927,28653,26800,38613,41007,665,1549,6535,30409,24548,32857,46571,31844
3685,23027,475,163,158,158,158,155,646,3147,184,159,157,156,161,157,3154,23534,583,316,297,296,296,294,388,1384,191,198,185,188,187,187,814,1069,7190,15339,65535,65535,3529,879,738,736,5844,16813,16004,16783,901,754,1552,7464,31655,37911,28645,26791,38585,40956,668,1545,6551,30429,24499,32780,46461,31789
3683,23017,481,162,159,157,157,155,647,3155,183,159,155,158,157,155,3154,23531,591,314,296,301,295,297,382,1384,192,197,185,187,191,187,814,1068,7189,15338,65535,65535,3528,871,734,737,5856,16847,16013,16809,912,767,1550,7451,31626,37880,28622,26747,38551,40931,665,1543,6561,30434,24487,32773,46447,31783
3686,23070,479,166,159,161,157,155,647,3162,183,161,159,159,152,155,3157,23563,585,314,296,297,293,294,382,1385,192,197,185,187,182,187,811,1064,7180,15342,65535,65535,3520,871,747,742,5881,16899,16023,16827,907,763,1549,7449,31651,37917,28602,26726,38536,40924,667,1545,6562,30449,24501,32796,46444,31787
3688,23067,482,162,158,155,156,157,647,3167,190,162,156,156,158,159,3153,23543,588,315,294,297,294,298,381,1385,192,197,184,189,190,188,810,1063,7189,15361,65535,65535,3526,872,743,744,5878,16902,16027,16837,907,759,1546,7445,31669,37943,28586,26727,38523,40918,666,1545,6558,30451,24503,32802,46420,31788
3690,23097,479,164,163,159,157,156,648,3174,184,158,161,158,157,156,3155,23578,584,314,297,296,294,294,381,1386,195,198,184,185,192,189,808,1063,7189,15375,65535,65535,3521,869,738,739,5885,16939,16047,16878,902,760,1546,7450,31707,37986,28591,26744,38521,40927,667,1548,6564,30494,24501,32810,46387,31781
3693,23162,485,169,159,157,156,157,649,3187,184,162,153,155,158,156,3157,23627,589,316,296,296,293,294,381,1389,193,202,185,191,192,194,810,1064,7199,15411,65535,65535,3527,872,738,740,5895,16988,16067,16922,905,759,1547,7462,31705,38006,28591,26742,38519,40949,665,1553,6570,30537,24515,32844,46388,31805
3699,23227,481,166,162,157,156,156,650,3197,185,163,160,151,157,155,3161,23670,587,316,295,298,294,294,386,1391,191,199,185,187,192,189,810,1064,7215,15455,65535,65535,3523,874,739,739,5907,17055,16089,16978,904,760,1550,7468,31720,38039,28601,26759,38527,40971,669,1555,6586,30615,24531,32889,46399,31827
3703,23287,487,166,158,156,156,155,651,3213,186,155,159,156,156,156,3167,23734,591,315,297,297,295,296,383,1397,194,198,184,182,187,193,811,1068,7219,15470,65535,65535,3529,875,740,742,5917,17110,16131,17043,909,762,1549,7485,31733,38072,28622,26790,38541,41015,668,1562,6585,30667,24567,32955,46433,31861
3710,23346,487,163,159,160,155,158,653,3221,190,158,157,160,159,159,3169,23788,591,316,297,299,296,299,383,1400,193,197,184,188,190,185,814,1071,7234,15497,65535,65535,3527,877,740,739,5924,17155,16135,17042,903,754,1554,7508,31774,38115,28631,26789,38558,41005,669,1567,6588,30702,24583,32971,46455,31859
3698,23099,482,167,159,160,157,155,650,3157,184,158,157,156,157,158,3161,23574,589,315,296,298,295,294,382,1386,196,202,187,191,191,191,820,1070,7218,15453,65535,65535,3536,879,733,732,5870,16900,15994,16781,895,751,1551,7470,31750,38072,28534,26638,38477,40868,666,1547,6559,30487,24595,32873,46496,31818
3685,22987,478,162,159,159,158,156,649,3140,185,159,157,156,156,156,3152,23497,586,316,297,301,295,296,384,1380,192,194,185,187,192,185,816,1069,7214,15421,65535,65535,3531,879,729,736,5847,16798,15952,16697,893,753,1551,7433,31775,38088,28530,26643,38443,40811,668,1536,6550,30417,24563,32801,46450,31775
3683,22943,481,164,158,157,155,155,646,3141,185,158,153,159,157,156,3151,23453,589,315,296,299,295,296,382,1377,193,198,185,195,190,192,817,1074,7230,15456,65535,65535,3540,883,734,733,5846,16767,15909,16641,900,756,1549,7413,31791,38095,28498,26591,38404,40762,663,1535,6554,30394,24545,32753,46399,31752
3680,22965,477,162,159,157,157,156,647,3149,189,156,154,157,153,156,3154,23492,588,316,298,301,295,297,383,1379,193,198,186,187,197,189,822,1078,7225,15432,65535,65535,3534,889,735,737,5856,16805,15936,16682,901,758,1550,7410,31787,38084,28493,26584,38386,40739,667,1537,6561,30423,24532,32746,46375,31756
3686,23021,481,168,158,156,157,159,647,3158,186,158,156,159,159,156,3157,23530,591,318,299,305,298,298,383,1381,193,201,185,189,194,189,831,1084,7243,15481,65535,65535,3545,895,738,739,5851,16798,15929,16687,905,762,1552,7413,31796,38107,28479,26569,38372,40731,667,1538,6545,30375,24549,32767,46422,31769
3687,23020,477,165,158,157,159,158,649,3161,185,158,157,160,158,158,3159,23536,585,319,300,302,298,303,384,1381,194,198,185,190,187,189,833,1088,7245,15479,65535,65535,3545,903,741,742,5858,16814,15957,16726,910,766,1558,7417,31831,38152,28496,26600,38370,40739,667,1541,6549,30412,24543,32775,46384,31763
3690,23072,482,163,159,159,156,159,651,3169,190,158,157,158,153,155,3162,23575,595,319,303,303,300,300,385,1386,193,200,186,189,191,189,840,1091,7260,15516,65535,65535,3557,905,747,748,5872,16866,15974,16770,915,771,1557,7426,31845,38165,28493,26596,38371,40759,666,1546,6562,30473,24548,32788,46347,31761
3696,23139,480,167,160,153,157,155,650,3185,185,162,156,154,159,155,3167,23641,594,323,303,304,305,302,386,1387,194,200,184,191,191,190,844,1103,7268,15541,65535,65535,3557,914,752,753,5889,16937,16023,16846,923,783,1563,7445,31864,38213,28525,26639,38386,40791,669,1549,6578,30556,24545,32819,46336,31770
3701,23200,485,164,159,158,157,155,651,3198,185,159,158,161,153,156,3174,23693,601,324,306,309,306,304,385,1394,194,199,186,189,192,192,851,1107,7271,15551,65535,65535,3570,921,769,769,5933,17047,16077,16931,941,796,1568,7464,31899,38267,28539,26667,38406,40823,665,1554,6594,30637,24559,32861,46336,31795
3706,23259,482,163,162,158,160,156,652,3213,186,158,157,156,157,155,3179,23746,599,329,308,309,306,306,386,1396,194,200,180,189,192,190,863,1118,7306,15631,65535,65535,3573,933,780,779,5951,17122,16109,16990,954,809,1575,7482,31935,38333,28578,26705,38436,40881,668,1560,6598,30695,24577,32910,46360,31823
3709,23321,489,163,160,159,157,155,655,3227,188,156,161,159,157,159,3183,23800,606,329,311,312,309,309,387,1402,197,200,187,191,199,190,871,1133,7341,15683,65535,65535,3591,943,789,791,5975,17204,16149,17054,959,812,1577,7503,31986,38401,28617,26756,38467,40914,667,1566,6617,30807,24594,32958,46358,31840
3710,23198,482,164,156,158,156,156,655,3188,186,158,153,156,156,153,3191,23723,606,331,311,313,310,309,391,1392,195,200,187,191,197,192,880,1137,7306,15590,65535,65535,3591,948,794,792,5957,17057,16083,16863,958,815,1585,7507,31954,38341,28553,26655,38423,40785,670,1558,6615,30707,24588,32868,46347,31775
3689,22987,482,166,157,153,151,157,650,3159,184,159,156,159,156,159,3176,23575,605,332,313,317,312,313,389,1385,195,203,189,191,195,191,886,1141,7311,15587,65535,65535,3610,959,795,797,5934,16915,16002,16733,966,821,1583,7459,31943,38315,28544,26641,38391,40727,668,1546,6600,30577,24578,32807,46359,31756
3686,22942,478,167,161,158,157,156,648,3151,189,163,160,157,154,155,3172,23510,604,335,316,319,312,314,385,1383,197,202,192,191,197,192,897,1152,7336,15605,65535,65535,3613,965,802,803,5931,16871,15977,16676,968,826,1589,7439,31967,38304,28542,26607,38353,40663,670,1539,6588,30511,24571,32772,46369,31741
3684,22954,483,165,161,155,156,157,649,3153,187,159,155,156,156,152,3175,23542,609,338,317,319,316,317,388,1385,197,203,189,193,195,193,904,1162,7346,15623,65535,65535,3625,974,809,808,5925,16868,15981,16695,979,835,1594,7428,31941,38287,28530,26578,38330,40647,666,1539,6572,30467,24576,32769,46350,31739
3687,23003,477,167,156,157,164,156,650,3165,186,162,153,154,158,157,3185,23586,607,345,318,321,318,320,387,1386,196,206,190,193,197,193,918,1172,7355,15639,65535,65535,3631,989,820,818,5943,16911,15994,16717,986,842,1598,7432,31932,38285,28535,26596,38330,40640,668,1541,6585,30541,24574,32763,46311,31724
3689,23005,479,161,158,160,160,155,651,3168,186,162,157,157,155,155,3183,23583,614,340,320,324,320,320,389,1389,197,204,193,192,196,193,927,1182,7362,15644,65535,65535,3649,995,824,820,5945,16921,15984,16713,984,843,1600,7437,31980,38351,28551,26631,38329,40639,667,1543,6601,30611,24551,32747,46243,31702
3690,23047,480,164,158,156,158,156,650,3180,185,159,157,157,155,155,3189,23624,615,347,328,327,323,324,391,1391,199,204,191,192,199,193,935,1195,7372,15675,65535,65535,3654,1006,823,824,5961,16989,15989,16747,994,852,1605,7443,32063,38401,28556,26625,38317,40649,668,1547,6625,30680,24559,32767,46248,31718
3697,23111,485,168,159,160,159,155,652,3190,186,158,157,157,157,159,3197,23690,619,345,327,327,324,325,391,1397,200,205,196,195,196,198,948,1201,7381,15692,65535,65535,3670,1017,831,834,5980,17059,16026,16811,1004,861,1607,7455,32050,38414,28579,26671,38339,40682,668,1549,6628,30728,24570,32815,46251,31742
3698,23161,483,163,160,158,157,158,650,3204,189,155,155,157,153,160,3203,23749,619,347,329,330,327,329,391,1398,205,205,191,196,198,194,956,1212,7394,15723,65535,65535,3673,1026,845,847,6004,17135,16065,16882,1017,871,1615,7474,32085,38450,28611,26711,38353,40715,670,1555,6643,30817,24586,32852,46243,31758
3708,23233,486,163,158,158,158,153,655,3217,185,158,159,156,161,155,3210,23803,626,349,331,333,329,330,392,1405,198,205,192,195,201,195,966,1223,7414,15763,65535,65535,3688,1035,852,855,6027,17211,16098,16944,1028,885,1618,7491,32079,38446,28635,26738,38373,40757,667,1561,6655,30889,24608,32905,46249,31778
3709,23283,484,165,159,158,157,157,656,3229,187,159,153,157,153,159,3214,23867,625,352,333,334,332,333,393,1407,199,206,192,197,203,196,979,1232,7428,15785,65535,65535,3691,1046,862,863,6051,17287,16158,17039,1043,899,1626,7513,32096,38470,28673,26802,38407,40802,672,1565,6664,30954,24624,32958,46269,31806
3714,23340,491,161,163,158,158,159,656,3243,187,162,154,157,159,153,3220,23916,630,357,335,337,333,335,397,1410,202,205,193,196,202,195,984,1242,7438,15803,65535,65535,3705,1049,878,882,6084,17373,16197,17059,1051,901,1628,7533,32102,38495,28689,26801,38432,40807,672,1570,6662,30975,24662,32999,46323,31818
3706,23103,483,165,158,160,156,156,655,3185,189,157,158,157,156,156,3210,23696,626,353,337,336,335,335,394,1399,201,207,193,200,199,196,990,1246,7429,15755,65535,65535,3702,1052,883,883,6053,17170,16077,16829,1045,901,1633,7502,32053,38407,28616,26698,38377,40687,671,1556,6650,30833,24650,32893,46301,31759
3691,22990,481,169,163,152,159,157,654,3174,185,154,162,155,157,159,3206,23637,627,356,337,338,335,338,392,1396,201,205,194,196,198,197,992,1250,7429,15745,65535,65535,3716,1057,880,883,6037,17099,16039,16757,1046,902,1631,7469,32063,38412,28629,26713,38357,40643,669,1549,6648,30789,24631,32847,46277,31733
3688,22973,479,167,162,159,157,155,651,3173,185,162,161,154,156,157,3207,23636,627,356,337,340,336,336,393,1397,201,207,195,195,199,196,997,1251,7428,15732,65535,65535,3711,1061,885,886,6036,17083,16031,16742,1058,916,1634,7459,32058,38382,28612,26688,38326,40601,669,1548,6651,30775,24616,32816,46244,31719
3686,23006,486,176,153,158,163,157,653,3183,186,154,157,157,157,156,3211,23673,631,361,339,341,338,337,395,1398,204,206,197,199,200,197,1001,1256,7435,15747,65535,65535,3719,1063,901,896,6062,17152,16061,16786,1066,923,1633,7452,32026,38350,28611,26671,38319,40589,670,1551,6655,30797,24620,32827,46251,31718
3690,23023,481,164,159,158,157,156,653,3190,185,159,139,154,156,155,3215,23677,628,359,340,340,337,337,395,1400,204,207,194,196,199,199,1004,1260,7439,15748,65535,65535,3717,1069,901,899,6069,17165,16068,16794,1064,921,1637,7453,32011,38335,28609,26674,38311,40575,672,1554,6649,30782,24623,32821,46239,31717
3688,23027,483,164,159,161,158,155,654,3192,188,158,157,154,152,156,3214,23693,635,358,339,341,338,338,396,1401,200,210,196,197,199,198,1007,1260,7430,15740,65535,65535,3724,1071,901,901,6075,17191,16091,16825,1067,924,1635,7459,32007,38329,28622,26706,38313,40588,671,1555,6653,30801,24618,32830,46218,31710
3694,23082,481,164,157,158,155,156,656,3203,188,154,154,155,160,153,3216,23743,630,359,339,340,340,337,394,1404,204,206,194,197,199,199,1009,1262,7434,15743,65535,65535,3718,1071,903,905,6088,17238,16117,16883,1069,927,1639,7464,31976,38291,28632,26718,38319,40606,671,1559,6659,30862,24627,32862,46230,31737
3699,23138,485,166,159,157,160,156,657,3215,187,159,156,158,156,154,3224,23793,638,358,341,342,339,338,395,1408,199,217,196,200,199,197,1008,1261,7431,15759,65535,65535,3724,1070,907,910,6108,17313,16155,16949,1076,933,1639,7478,31959,38291,28646,26737,38337,40641,670,1562,6669,30915,24639,32907,46250,31756
3701,23197,483,163,159,157,156,157,657,3229,187,158,157,153,158,156,3225,23845,635,358,340,341,339,338,396,1413,202,207,195,198,199,198,1010,1267,7439,15770,65535,65535,3720,1071,910,909,6117,17372,16193,17012,1078,935,1642,7491,31966,38301,28674,26778,38357,40673,672,1573,6671,30967,24657,32944,46252,31772
3707,23261,488,163,161,158,155,156,658,3239,188,157,157,157,157,159,3229,23899,637,359,339,341,338,340,396,1413,202,207,194,199,200,197,1011,1267,7444,15791,65535,65535,3727,1073,910,912,6127,17433,16226,17077,1082,931,1644,7508,31933,38283,28695,26818,38389,40725,671,1574,6673,31014,24674,33000,46261,31795
3710,23311,487,165,159,157,158,156,661,3253,190,156,157,157,160,155,3233,23956,637,361,345,340,339,339,397,1418,202,207,194,198,203,197,1013,1269,7451,15810,65535,65535,3724,1075,912,913,6145,17501,16263,17139,1082,935,1646,7526,31939,38291,28729,26866,38417,40767,674,1583,6679,31065,24687,33039,46281,31827
3719,23326,490,165,157,160,159,158,663,3249,187,159,155,156,156,156,3241,23968,638,360,343,341,337,338,397,1420,202,208,195,200,199,199,1014,1270,7442,15782,65535,65535,3727,1073,911,912,6136,17431,16215,17014,1073,928,1647,7539,31868,38217,28683,26778,38408,40683,671,1586,6660,30961,24725,33017,46365,31814
3694,23035,479,165,160,157,157,155,658,3199,186,159,158,153,158,155,3223,23739,630,360,339,340,340,336,397,1408,202,207,194,195,200,199,1011,1265,7425,15727,65535,65535,3721,1071,905,909,6085,17223,16121,16843,1067,922,1643,7485,31860,38167,28647,26742,38365,40607,673,1564,6635,30787,24701,32925,46359,31773
3686,22999,482,166,160,160,157,156,654,3196,187,158,154,156,157,155,3220,23723,634,358,340,341,337,338,397,1407,201,208,196,198,201,196,1009,1263,7426,15713,65535,65535,3726,1068,905,902,6075,17183,16103,16803,1066,922,1641,7466,31877,38164,28651,26742,38343,40561,671,1561,6635,30757,24671,32875,46323,31744
3686,22983,478,164,160,160,159,157,655,3199,186,159,157,157,159,152,3221,23727,630,361,342,341,342,342,395,1408,202,207,195,201,200,200,1008,1263,7418,15702,65535,65535,3719,1073,902,902,6076,17185,16101,16808,1068,924,1641,7454,31841,38106,28641,26708,38321,40546,671,1564,6634,30731,24661,32853,46291,31733
3688,23039,485,168,162,158,159,156,655,3207,187,158,157,159,157,157,3228,23793,635,359,341,342,338,342,395,1410,202,209,195,197,199,197,1011,1265,7419,15699,65535,65535,3727,1075,904,904,6078,17204,16118,16829,1069,923,1641,7457,31801,38062,28639,26699,38326,40541,669,1565,6622,30711,24671,32863,46321,31738
3692,23039,477,163,163,157,157,157,656,3212,186,156,158,157,154,155,3227,23771,631,359,340,341,339,340,398,1410,203,212,198,197,201,197,1013,1265,7421,15697,65535,65535,3722,1073,903,904,6080,17213,16121,16846,1067,921,1642,7455,31809,38056,28634,26703,38322,40547,672,1566,6623,30711,24666,32852,46296,31727
3690,23059,483,163,162,157,159,156,659,3220,190,162,159,160,157,153,3229,23809,637,361,339,343,339,339,398,1413,201,207,193,197,199,197,1012,1266,7414,15696,65535,65535,3729,1075,904,903,6086,17254,16151,16892,1073,929,1643,7463,31805,38051,28647,26725,38328,40561,669,1571,6627,30749,24660,32869,46279,31730
3692,23118,482,164,159,157,157,157,656,3231,187,158,164,156,156,154,3233,23854,635,362,342,345,340,340,399,1414,201,206,195,198,201,200,1015,1270,7423,15713,65535,65535,3726,1077,909,909,6101,17307,16185,16951,1079,937,1647,7473,31783,38026,28662,26749,38345,40596,675,1575,6640,30795,24668,32891,46278,31747
3698,23174,485,165,159,160,155,157,658,3246,186,157,156,159,161,155,3238,23910,638,362,343,344,342,341,399,1421,202,207,199,198,202,197,1017,1273,7422,15716,65535,65535,3733,1083,916,918,6127,17379,16231,17039,1089,944,1646,7490,31763,38018,28680,26780,38372,40640,673,1579,6627,30789,24679,32936,46330,31786
3702,23237,483,164,159,158,159,159,660,3259,187,159,158,157,160,157,3244,23961,640,363,347,345,345,343,399,1422,202,210,197,198,200,199,1023,1280,7432,15727,65535,65535,3730,1088,923,925,6136,17423,16288,17114,1098,949,1651,7508,31730,37993,28705,26806,38407,40687,676,1589,6627,30815,24700,32987,46343,31804
3710,23304,487,165,162,159,160,157,663,3272,187,162,157,157,156,152,3249,24020,643,365,346,348,344,345,401,1435,203,209,195,199,201,199,1029,1284,7440,15751,65535,65535,3743,1094,931,933,6154,17485,16328,17186,1103,955,1653,7530,31702,37976,28735,26847,38447,40747,675,1592,6631,30882,24711,33030,46354,31827
3711,23354,485,163,159,162,158,159,663,3285,187,155,157,161,159,157,3255,24067,640,365,342,348,347,349,404,1434,207,210,196,202,202,198,1034,1291,7459,15788,65535,65535,3742,1101,937,940,6171,17555,16375,17253,1112,964,1659,7550,31706,37997,28775,26894,38485,40801,677,1599,6635,30930,24729,33074,46377,31859
3719,23376,488,169,160,159,158,156,665,3290,187,157,158,159,161,160,3258,24068,647,367,350,346,346,347,404,1437,202,211,195,199,202,200,1042,1297,7447,15747,65535,65535,3755,1104,945,945,6174,17510,16337,17141,1110,965,1661,7564,31677,37935,28731,26812,38482,40725,676,1604,6635,30884,24743,33037,46423,31826
3695,23046,480,169,163,161,159,159,661,3236,192,158,161,159,158,157,3242,23815,640,366,351,351,347,346,402,1425,207,212,199,200,202,199,1044,1297,7436,15693,65535,65535,3753,1104,945,941,6136,17319,16226,16947,1113,967,1663,7507,31641,37859,28686,26760,38445,40651,677,1582,6621,30721,24718,32940,46405,31783
3688,22991,484,167,160,157,157,156,659,3228,189,158,157,156,156,155,3238,23789,648,367,351,351,343,347,404,1423,203,212,196,199,201,199,1046,1298,7431,15655,65535,65535,3762,1108,947,947,6134,17257,16225,16909,1118,975,1662,7487,31682,37872,28695,26763,38430,40603,678,1577,6609,30619,24701,32882,46398,31753
3685,22947,478,165,159,159,157,157,661,3225,182,158,157,156,156,156,3239,23763,641,369,353,354,350,348,401,1421,203,209,197,199,202,200,1050,1303,7432,15641,65535,65535,3762,1117,952,955,6130,17227,16216,16902,1127,985,1665,7471,31649,37803,28658,26703,38399,40580,675,1575,6590,30536,24679,32829,46375,31735
3686,22991,482,165,158,157,157,159,663,3234,187,155,157,156,152,156,3247,23813,647,371,354,354,352,352,402,1425,204,210,198,203,202,199,1056,1309,7429,15633,65535,65535,3773,1125,964,966,6143,17263,16243,16940,1135,993,1666,7472,31602,37751,28650,26682,38404,40586,675,1577,6581,30504,24674,32822,46378,31736
3688,22993,479,165,162,162,159,157,661,3241,187,159,158,160,160,155,3243,23792,648,377,353,361,356,353,402,1424,205,209,199,201,203,202,1066,1316,7436,15634,65535,65535,3773,1132,973,974,6151,17265,16258,16962,1141,997,1670,7472,31598,37739,28646,26679,38414,40591,674,1581,6575,30471,24676,32818,46389,31739
3687,23007,485,164,159,159,161,155,664,3243,188,157,157,154,157,159,3246,23822,651,373,353,357,354,353,404,1429,205,211,198,202,203,201,1074,1325,7438,15622,65535,65535,3785,1139,977,978,6156,17291,16291,17008,1149,1003,1672,7481,31617,37753,28655,26707,38419,40616,674,1583,6562,30433,24675,32831,46410,31754
3689,23058,481,167,158,159,160,157,663,3256,189,162,154,155,159,153,3252,23860,649,377,357,358,360,356,408,1430,208,213,197,200,204,207,1077,1335,7447,15641,65535,65535,3786,1146,985,987,6171,17336,16325,17072,1159,1014,1678,7493,31597,37733,28659,26723,38447,40651,681,1589,6555,30442,24680,32853,46397,31759
3694,23114,486,165,160,157,157,156,662,3267,188,160,153,155,152,160,3255,23912,655,381,361,358,359,359,406,1434,207,211,198,202,204,203,1088,1346,7459,15662,65535,65535,3799,1157,995,998,6190,17403,16369,17145,1169,1023,1681,7511,31599,37747,28681,26749,38468,40697,675,1592,6563,30498,24686,32885,46391,31774
3698,23176,481,166,163,157,157,157,664,3280,187,161,159,157,156,153,3260,23963,654,380,361,362,361,360,408,1438,206,215,202,202,206,207,1096,1350,7471,15689,65535,65535,3799,1166,1006,1007,6209,17470,16414,17219,1182,1039,1687,7528,31597,37755,28705,26788,38501,40757,678,1596,6573,30552,24689,32923,46403,31802
3703,23237,487,167,158,159,157,157,665,3294,188,159,157,155,155,156,3268,24019,660,383,363,367,364,366,407,1445,207,212,202,205,204,201,1106,1358,7480,15711,65535,65535,3815,1175,1019,1019,6234,17545,16462,17296,1193,1045,1691,7555,31611,37789,28735,26826,38545,40812,677,1605,6572,30584,24721,32985,46451,31837
3714,23291,483,161,159,159,157,157,667,3308,187,158,158,156,160,156,3269,24059,661,384,363,369,364,364,407,1450,207,214,200,203,211,203,1115,1369,7500,15744,65535,65535,3819,1181,1025,1028,6251,17599,16511,17377,1201,1054,1702,7571,31623,37816,28773,26883,38597,40880,679,1609,6575,30629,24738,33044,46471,31866
3713,23352,489,165,160,161,159,157,669,3322,188,158,160,157,155,159,3276,24119,669,386,368,365,372,373,408,1453,208,216,205,202,206,204,1123,1378,7514,15783,65535,65535,3833,1192,1035,1036,6275,17672,16560,17448,1218,1069,1703,7597,31638,37855,28811,26933,38642,40945,678,1615,6586,30702,24751,33094,46492,31893
3721,23330,486,163,162,157,156,158,673,3319,192,158,161,157,156,153,3283,24079,667,389,367,371,367,367,409,1457,209,212,204,198,206,203,1128,1385,7507,15731,65535,65535,3831,1192,1050,1050,6280,17604,16509,17306,1214,1069,1709,7605,31657,37841,28748,26830,38621,40855,680,1616,6574,30603,24765,33039,46516,31847
3695,22990,483,163,162,159,160,156,668,3268,187,157,157,153,156,152,3265,23837,665,388,369,367,370,371,408,1441,208,214,201,204,207,201,1133,1386,7491,15663,65535,65535,3843,1197,1046,1048,6237,17398,16413,17127,1216,1068,1709,7548,31642,37795,28712,26786,38603,40799,679,1597,6564,30465,24713,32913,46462,31791
3687,22948,479,164,163,158,159,157,666,3259,186,158,161,157,160,157,3262,23806,663,390,373,373,370,370,407,1441,209,212,202,199,205,205,1138,1388,7493,15639,65535,65535,3841,1200,1051,1051,6219,17311,16384,17062,1204,1059,1713,7531,31655,37785,28703,26753,38592,40769,679,1591,6560,30406,24687,32840,46425,31761
3684,22924,485,168,158,159,159,158,666,3259,188,158,160,152,154,156,3261,23791,667,392,375,375,375,372,411,1439,202,215,202,204,207,206,1143,1392,7490,15626,65535,65535,3852,1210,1041,1042,6201,17280,16374,17063,1213,1067,1710,7517,31663,37773,28681,26699,38569,40754,677,1589,6555,30358,24666,32803,46400,31746
3684,22964,480,164,159,158,157,157,667,3269,188,157,157,157,157,159,3268,23824,669,393,375,378,372,372,409,1440,208,214,205,203,209,206,1149,1401,7514,15678,65535,65535,3852,1218,1047,1050,6217,17315,16373,17072,1220,1071,1715,7517,31643,37763,28663,26666,38580,40763,678,1590,6556,30353,24670,32805,46417,31753
3686,22954,483,165,159,157,160,158,667,3273,186,160,156,156,156,157,3265,23806,671,394,377,377,373,378,411,1439,209,214,203,207,206,204,1159,1411,7521,15673,65535,65535,3862,1219,1053,1053,6219,17317,16393,17102,1219,1069,1716,7519,31702,37816,28674,26709,38585,40771,674,1595,6555,30343,24661,32807,46378,31745
3685,22983,480,163,159,159,156,159,667,3278,188,155,157,157,158,156,3271,23849,669,396,381,377,377,379,409,1443,209,216,203,207,207,203,1159,1412,7517,15663,65535,65535,3860,1222,1051,1049,6223,17337,16418,17145,1217,1071,1723,7529,31706,37811,28668,26710,38591,40797,679,1595,6563,30389,24663,32826,46357,31740
3690,23025,483,165,162,158,160,158,668,3285,186,155,159,154,156,154,3276,23895,675,397,379,379,377,379,411,1445,210,215,202,202,208,206,1164,1413,7506,15648,65535,65535,3871,1228,1053,1055,6244,17408,16459,17211,1228,1084,1720,7543,31720,37851,28691,26737,38609,40832,680,1597,6574,30429,24670,32858,46346,31760
3692,23081,482,163,159,158,160,156,668,3298,187,155,158,153,154,156,3275,23913,672,399,381,381,377,379,411,1448,212,216,204,207,211,207,1171,1423,7539,15729,65535,65535,3872,1237,1065,1064,6260,17465,16476,17258,1235,1089,1725,7552,31777,37915,28695,26740,38631,40875,681,1601,6571,30462,24675,32890,46367,31783
3698,23141,483,167,159,159,158,156,670,3311,187,158,156,158,155,153,3278,23959,676,399,382,383,379,379,412,1454,211,217,203,200,209,204,1175,1428,7544,15741,65535,65535,3881,1240,1068,1071,6276,17533,16517,17333,1245,1096,1729,7570,31771,37920,28717,26777,38670,40929,677,1607,6582,30525,24689,32936,46349,31795
3702,23206,485,163,159,159,156,156,671,3323,188,159,155,156,153,155,3285,24023,676,404,381,383,380,380,414,1457,212,217,202,207,216,210,1182,1434,7549,15748,65535,65535,3882,1250,1075,1075,6293,17593,16555,17403,1246,1099,1735,7591,31796,37958,28752,26830,38704,40989,681,1611,6595,30606,24699,32987,46356,31827
3707,23258,489,166,161,159,161,156,673,3338,199,157,157,157,157,159,3292,24079,681,403,383,386,381,382,413,1461,211,217,202,206,208,207,1187,1441,7561,15775,65535,65535,3895,1255,1079,1081,6306,17654,16601,17467,1253,1103,1738,7612,31831,38019,28798,26903,38742,41052,679,1617,6601,30647,24725,33051,46394,31859
3713,23313,485,164,160,160,159,158,673,3349,189,157,156,159,154,155,3295,24128,683,403,384,386,383,383,414,1468,211,218,204,212,213,207,1194,1448,7563,15776,65535,65535,3890,1253,1088,1087,6317,17677,16580,17421,1253,1105,1742,7633,31835,38004,28773,26819,38754,41025,682,1623,6593,30647,24739,33040,46402,31838
3697,23007,483,166,159,159,160,161,675,3295,189,159,154,159,156,156,3280,23858,681,403,384,386,382,383,413,1452,205,217,204,207,208,207,1193,1445,7541,15688,65535,65535,3895,1251,1081,1079,6272,17453,16471,17215,1245,1099,1736,7583,31791,37930,28704,26761,38719,40953,679,1603,6587,30495,24709,32933,46365,31792
3682,22934,479,166,160,160,158,156,673,3286,188,163,158,161,153,156,3276,23839,678,403,385,387,382,383,413,1451,219,220,209,202,210,206,1189,1443,7538,15671,65535,65535,3893,1255,1078,1075,6259,17391,16446,17163,1244,1098,1739,7566,31845,37977,28714,26763,38715,40935,679,1600,6588,30459,24679,32887,46337,31764
3683,22926,482,164,159,157,159,160,673,3291,195,161,157,159,157,160,3278,23825,680,405,385,390,384,385,413,1451,212,218,205,207,208,211,1192,1444,7535,15657,65535,65535,3897,1255,1078,1080,6259,17383,16449,17183,1257,1110,1739,7561,31850,37956,28711,26745,38713,40939,680,1598,6587,30428,24663,32869,46294,31758
3683,22968,479,165,156,158,158,157,669,3297,186,167,156,156,154,154,3280,23874,679,405,387,389,384,383,415,1452,217,220,199,208,210,207,1197,1447,7538,15666,65535,65535,3893,1259,1092,1092,6279,17431,16476,17218,1260,1116,1744,7565,31863,37981,28700,26728,38721,40957,681,1601,6589,30435,24664,32882,46296,31763
3685,22970,483,164,159,157,162,159,673,3306,190,163,153,160,155,156,3276,23845,684,407,385,389,385,385,412,1453,210,216,205,207,208,211,1200,1453,7540,15657,65535,65535,3901,1260,1094,1097,6279,17432,16484,17235,1261,1115,1742,7563,31861,37977,28695,26741,38731,40967,681,1603,6585,30429,24669,32888,46287,31767
3683,22979,482,167,159,158,160,161,670,3305,189,162,155,156,160,153,3278,23863,680,405,387,388,388,384,414,1455,210,219,204,206,209,211,1200,1451,7534,15653,65535,65535,3895,1265,1096,1095,6285,17452,16507,17270,1264,1120,1746,7573,31872,37984,28711,26760,38737,40987,679,1603,6589,30453,24664,32904,46274,31770
3687,23037,484,165,161,159,157,157,674,3316,189,157,157,159,156,154,3284,23909,687,411,388,389,385,387,413,1456,211,216,205,208,209,207,1201,1456,7535,15660,65535,65535,3903,1265,1099,1100,6296,17497,16529,17327,1277,1129,1742,7580,31850,37962,28713,26761,38742,41013,677,1605,6594,30484,24672,32935,46291,31794
3689,23094,481,166,159,160,159,157,672,3323,189,160,157,157,160,159,3285,23956,685,407,388,389,387,386,416,1458,211,221,205,207,210,207,1205,1456,7545,15687,65535,65535,3898,1269,1111,1110,6315,17556,16569,17387,1279,1131,1747,7593,31859,37997,28732,26790,38772,41060,680,1612,6587,30503,24690,32981,46324,31823
3695,23152,488,165,160,158,158,159,673,3336,188,165,159,156,160,156,3286,23995,686,408,389,390,386,386,414,1461,213,217,203,208,212,210,1207,1463,7557,15709,65535,65535,3906,1270,1112,1113,6327,17612,16606,17458,1284,1134,1748,7609,31862,38009,28761,26832,38799,41113,678,1616,6599,30568,24702,33029,46325,31846
3700,23215,483,166,159,158,155,157,676,3347,188,160,157,153,157,155,3289,24052,683,408,389,389,386,386,411,1466,209,221,205,208,211,207,1209,1464,7557,15724,65535,65535,3900,1271,1114,1114,6336,17670,16647,17521,1287,1135,1749,7631,31857,38018,28789,26882,38835,41166,680,1621,6607,30627,24720,33087,46353,31879
3704,23271,488,168,161,159,157,158,677,3360,189,158,160,159,157,157,3295,24113,687,407,390,389,388,388,415,1471,212,222,205,207,211,207,1211,1463,7561,15740,65535,65535,3910,1273,1114,1115,6349,17729,16679,17585,1284,1133,1750,7651,31854,38025,28822,26920,38868,41213,681,1625,6609,30679,24735,33139,46372,31903
3705,23203,484,164,157,158,157,157,678,3345,187,159,155,156,151,158,3294,24031,681,407,387,388,384,385,417,1466,216,218,204,207,213,207,1212,1466,7556,15708,65535,65535,3899,1267,1111,1108,6326,17595,16582,17387,1270,1122,1753,7647,31807,37969,28751,26807,38844,41121,682,1624,6592,30552,24755,33085,46438,31871
3678,22942,483,165,159,159,161,157,673,3309,188,157,162,156,156,152,3276,23842,681,404,389,386,384,384,416,1458,213,220,204,210,209,207,1205,1455,7535,15644,65535,65535,3901,1262,1102,1101,6278,17416,16511,17269,1265,1119,1748,7599,31797,37937,28737,26804,38827,41098,678,1606,6566,30405,24736,33021,46417,31850
3675,22926,479,164,159,163,159,157,673,3306,186,165,157,160,155,155,3275,23831,677,404,388,385,386,383,414,1457,213,218,204,209,210,207,1201,1452,7527,15617,65535,65535,3894,1262,1098,1097,6272,17383,16497,17239,1264,1117,1749,7592,31800,37910,28736,26781,38818,41081,682,1603,6571,30382,24702,32971,46373,31828
3677,22938,484,164,163,159,159,166,674,3312,187,158,156,152,159,156,3275,23844,681,403,386,387,385,385,415,1455,213,216,204,206,210,209,1201,1453,7531,15627,65535,65535,3896,1262,1098,1100,6275,17399,16505,17267,1267,1119,1745,7585,31779,37889,28729,26764,38809,41085,678,1604,6573,30389,24689,32965,46351,31823
3679,22983,481,165,163,158,157,157,673,3321,191,160,155,155,151,155,3277,23875,678,404,386,389,383,383,416,1459,218,217,203,207,212,207,1201,1453,7529,15633,65535,65535,3892,1261,1100,1101,6283,17420,16519,17288,1266,1119,1748,7590,31771,37888,28731,26764,38819,41090,686,1607,6578,30409,24694,32979,46343,31830
3679,22981,482,166,160,160,155,159,674,3327,188,155,156,156,155,158,3275,23866,680,402,384,386,385,383,414,1457,212,216,207,209,208,210,1199,1451,7522,15621,65535,65535,3894,1259,1099,1099,6276,17415,16523,17303,1262,1115,1746,7591,31771,37901,28738,26797,38827,41111,677,1608,6583,30428,24682,32985,46331,31833
3678,23016,479,165,159,157,159,158,677,3333,186,163,153,158,155,157,3276,23907,677,406,384,387,382,382,416,1460,212,218,203,206,213,207,1195,1448,7523,15635,65535,65535,3886,1259,1094,1095,6278,17439,16544,17351,1263,1115,1746,7603,31806,37934,28754,26807,38831,41135,678,1611,6585,30454,24685,33011,46326,31843
3684,23078,485,161,163,156,166,158,675,3343,187,162,158,160,156,157,3277,23947,682,408,385,389,382,383,415,1463,219,217,204,206,210,207,1197,1449,7530,15659,65535,65535,3891,1259,1096,1097,6290,17496,16573,17406,1267,1118,1747,7615,31815,37958,28768,26836,38850,41177,679,1616,6599,30532,24695,33041,46314,31863
3686,23136,483,164,160,161,157,159,681,3358,189,158,160,159,158,156,3279,23993,678,404,382,387,383,383,416,1466,211,217,204,207,209,207,1195,1449,7540,15689,65535,65535,3883,1257,1096,1101,6303,17561,16616,17486,1277,1130,1747,7629,31837,38000,28800,26883,38878,41227,678,1619,6615,30611,24702,33099,46335,31892
3694,23193,486,165,163,159,162,158,680,3374,190,162,157,157,157,154,3284,24051,686,409,387,389,386,386,417,1472,211,218,205,207,210,209,1198,1447,7541,15688,65535,65535,3887,1257,1112,1114,6333,17636,16686,17579,1296,1148,1748,7652,31878,38061,28840,26946,38912,41281,681,1626,6616,30655,24736,33182,46405,31939
3699,23251,486,165,158,159,158,157,678,3387,187,158,155,157,156,153,3292,24114,681,406,386,385,383,383,415,1478,213,217,204,207,210,206,1201,1448,7553,15734,65535,65535,3879,1253,1133,1132,6351,17671,16728,17659,1298,1148,1754,7675,31991,38174,28879,26991,38942,41331,683,1633,6619,30724,24755,33231,46431,31972
3703,23301,488,166,161,157,158,158,681,3397,188,159,157,153,158,164,3290,24129,682,402,382,387,379,382,418,1479,210,216,204,207,209,206,1193,1446,7545,15715,65535,65535,3876,1240,1125,1124,6334,17646,16700,17579,1278,1126,1749,7691,31987,38188,28864,26939,38951,41289,683,1639,6623,30737,24765,33218,46447,31948
3686,22985,479,163,158,158,159,156,679,3343,188,157,155,153,153,156,3270,23847,674,398,379,379,376,376,414,1465,210,217,202,206,209,206,1182,1433,7519,15639,65535,65535,3861,1234,1103,1099,6276,17426,16557,17339,1254,1105,1747,7641,31962,38129,28799,26846,38899,41203,682,1619,6618,30602,24743,33113,46421,31901
3673,22924,482,165,159,158,159,157,676,3332,191,160,156,161,159,160,3262,23811,675,398,376,379,375,376,414,1462,210,212,204,206,208,205,1170,1421,7503,15609,65535,65535,3862,1223,1082,1081,6252,17347,16518,17275,1241,1092,1739,7619,32007,38167,28813,26875,38893,41179,679,1614,6616,30558,24718,33070,46385,31870
3671,22883,478,163,160,159,157,157,676,3332,187,155,156,157,166,157,3260,23781,667,395,375,375,373,373,413,1459,210,215,203,206,209,207,1162,1415,7484,15583,65535,65535,3849,1219,1072,1069,6239,17306,16491,17244,1233,1087,1738,7604,32015,38156,28802,26845,38869,41155,680,1611,6613,30510,24698,33027,46344,31851
3671,22926,483,165,160,158,158,159,677,3342,188,162,160,154,154,156,3260,23833,669,395,375,375,373,372,413,1458,210,215,202,205,206,206,1158,1409,7477,15571,65535,65535,3845,1211,1066,1068,6238,17339,16493,17263,1234,1084,1732,7603,32005,38151,28799,26827,38855,41151,678,1610,6611,30525,24691,33027,46325,31853
3676,22951,479,166,160,160,158,157,678,3349,186,161,157,153,154,155,3260,23826,664,393,373,374,369,373,415,1459,209,218,202,203,207,203,1150,1401,7474,15583,65535,65535,3832,1200,1067,1066,6242,17347,16489,17267,1225,1076,1727,7598,32008,38161,28793,26830,38857,41155,680,1614,6610,30516,24693,33037,46331,31855
3676,22966,482,165,162,159,156,156,677,3349,186,159,157,153,158,155,3257,23845,670,390,371,372,369,369,417,1460,209,217,200,204,207,204,1141,1390,7458,15569,65535,65535,3830,1193,1055,1054,6236,17353,16500,17292,1217,1069,1724,7599,32035,38191,28809,26854,38857,41167,679,1612,6615,30538,24690,33049,46311,31860
3678,23018,481,166,162,158,159,159,678,3361,190,159,159,150,156,155,3258,23887,663,388,368,373,367,367,413,1463,209,215,201,205,205,205,1134,1386,7458,15584,65535,65535,3813,1187,1048,1044,6236,17389,16521,17340,1213,1063,1725,7606,32036,38204,28823,26882,38857,41189,680,1621,6619,30590,24695,33079,46300,31873
3684,23083,485,162,159,159,158,158,679,3374,188,161,160,153,160,157,3262,23941,665,387,369,369,366,366,413,1464,207,213,200,202,206,202,1126,1379,7458,15601,65535,65535,3815,1180,1042,1044,6239,17437,16535,17386,1204,1058,1718,7617,32035,38219,28834,26895,38865,41224,678,1619,6627,30653,24703,33111,46305,31896
3689,23150,482,163,159,157,157,159,681,3384,188,157,157,165,160,157,3260,23991,660,383,365,368,367,364,412,1466,207,213,201,203,205,203,1120,1373,7466,15635,65535,65535,3802,1175,1035,1035,6234,17469,16543,17433,1189,1041,1715,7630,32051,38265,28868,26946,38888,41262,680,1623,6633,30705,24725,33175,46343,31926
3695,23219,486,166,158,160,157,155,681,3396,189,158,157,157,155,159,3267,24069,661,384,367,364,365,361,413,1470,207,212,201,205,204,202,1112,1366,7458,15642,65535,65535,3804,1170,1021,1020,6222,17501,16577,17483,1184,1035,1713,7648,32058,38288,28897,26979,38905,41300,678,1633,6630,30739,24754,33234,46369,31959
3702,23271,483,164,162,158,160,157,682,3409,188,156,159,158,157,143,3265,24115,659,382,362,363,362,359,412,1474,207,207,203,208,205,203,1109,1360,7463,15659,65535,65535,3788,1158,1016,1014,6229,17543,16584,17491,1178,1023,1713,7660,32097,38339,28919,26997,38923,41311,681,1634,6639,30802,24773,33268,46390,31961
3690,23042,483,165,158,161,160,156,680,3363,193,158,158,156,159,161,3255,23901,657,378,361,361,355,358,411,1464,207,216,198,202,204,201,1097,1346,7435,15593,65535,65535,3783,1146,999,997,6179,17327,16443,17241,1156,1006,1703,7629,32073,38299,28826,26857,38855,41184,682,1621,6626,30665,24778,33171,46363,31905
3678,22924,478,166,158,161,157,158,679,3350,191,159,153,160,157,161,3246,23833,650,376,358,365,355,355,409,1456,207,213,199,205,204,200,1086,1337,7423,15562,65535,65535,3771,1134,982,983,6147,17201,16388,17153,1144,993,1701,7592,32109,38334,28839,26886,38845,41150,677,1610,6624,30604,24750,33127,46355,31883
3673,22890,481,165,158,157,158,157,680,3346,189,158,159,159,157,153,3244,23820,651,375,355,355,354,356,410,1457,206,211,197,201,205,202,1071,1325,7414,15550,65535,65535,3773,1128,973,972,6123,17148,16351,17098,1134,988,1695,7575,32161,38372,28829,26851,38809,41111,676,1612,6622,30558,24739,33085,46318,31861
3673,22919,477,164,160,160,160,155,677,3353,188,159,157,159,159,155,3244,23847,647,377,356,355,356,351,408,1458,205,212,198,204,203,199,1068,1319,7417,15567,65535,65535,3756,1122,970,967,6118,17165,16350,17117,1129,984,1691,7565,32189,38402,28831,26833,38791,41111,678,1609,6623,30564,24741,33087,46301,31860
3681,22966,483,165,162,158,157,157,681,3362,189,161,157,155,156,159,3248,23879,651,374,354,355,352,359,408,1458,212,210,198,199,202,201,1063,1316,7417,15584,65535,65535,3759,1120,962,961,6119,17174,16348,17124,1125,975,1683,7567,32199,38423,28833,26842,38788,41110,677,1612,6622,30579,24748,33099,46286,31857
3681,22975,478,164,159,159,158,157,681,3364,187,157,159,156,160,154,3246,23895,645,370,352,354,354,351,408,1456,201,209,197,197,203,203,1058,1311,7422,15599,65535,65535,3751,1117,954,954,6110,17165,16347,17141,1117,970,1685,7570,32230,38484,28852,26864,38786,41116,677,1612,6617,30582,24751,33118,46294,31869
3683,23023,482,166,161,158,158,157,681,3374,191,161,157,153,160,156,3248,23937,651,374,353,355,348,349,409,1458,203,209,197,200,203,202,1053,1309,7426,15625,65535,65535,3757,1114,948,948,6109,17207,16365,17186,1113,968,1683,7575,32239,38505,28874,26889,38787,41137,675,1615,6624,30630,24762,33148,46277,31879
3685,23087,479,164,159,161,160,155,683,3384,189,160,156,159,157,157,3250,23983,649,372,353,354,351,348,408,1460,203,212,197,199,202,199,1053,1308,7437,15657,65535,65535,3747,1115,947,947,6119,17266,16391,17242,1117,969,1683,7590,32236,38529,28903,26932,38807,41171,678,1618,6635,30703,24766,33182,46257,31887
3694,23150,486,158,162,158,158,155,682,3399,188,158,157,153,158,157,3253,24038,650,372,351,355,350,351,411,1463,205,209,197,200,204,203,1055,1310,7448,15691,65535,65535,3757,1116,948,948,6133,17328,16422,17311,1120,974,1679,7607,32236,38537,28941,26974,38820,41216,678,1622,6645,30773,24773,33223,46255,31909
3698,23215,483,163,159,157,157,158,687,3412,190,157,157,156,159,155,3258,24089,649,372,353,355,354,348,410,1467,204,211,197,200,203,193,1050,1309,7450,15703,65535,65535,3751,1115,954,958,6157,17408,16473,17387,1125,977,1681,7625,32249,38576,28981,27033,38845,41258,680,1628,6658,30850,24793,33275,46251,31931
3703,23279,487,165,159,159,158,157,687,3424,192,159,159,157,158,156,3263,24157,653,372,352,353,353,352,410,1472,206,212,195,203,203,203,1054,1311,7461,15728,65535,65535,3757,1116,958,959,6167,17453,16474,17378,1129,982,1682,7650,32225,38565,28993,27018,38858,41249,683,1633,6662,30887,24802,33283,46272,31932
3694,23029,481,162,159,157,156,158,685,3375,191,154,156,153,158,159,3253,23922,648,374,356,357,350,356,408,1461,205,215,205,199,202,198,1055,1313,7460,15689,65535,65535,3752,1115,962,965,6144,17260,16390,17187,1141,996,1685,7617,32180,38499,28939,26944,38816,41159,680,1624,6648,30733,24811,33212,46305,31907
3677,22934,483,164,158,158,158,157,683,3367,189,160,160,155,157,159,3251,23892,653,375,357,360,355,357,409,1458,207,210,197,199,203,200,1055,1313,7458,15670,65535,65535,3765,1119,975,980,6138,17186,16373,17145,1149,1004,1683,7595,32241,38548,28968,26983,38806,41133,677,1614,6637,30661,24797,33175,46299,31885
3680,22932,479,162,158,157,157,155,682,3368,191,155,157,157,155,155,3250,23893,650,375,357,358,354,353,407,1459,205,210,197,199,207,201,1058,1315,7459,15674,65535,65535,3758,1121,984,986,6127,17133,16361,17130,1148,1002,1687,7586,32206,38494,28955,26940,38778,41108,678,1613,6634,30642,24789,33143,46278,31878
3680,22982,486,164,159,157,158,156,681,3373,191,155,155,159,159,155,3252,23935,654,375,357,358,355,355,408,1460,204,210,198,198,203,199,1058,1314,7467,15700,65535,65535,3768,1123,981,980,6127,17165,16365,17149,1142,996,1686,7587,32181,38493,28966,26939,38773,41112,677,1613,6637,30680,24783,33146,46275,31878
3686,23014,479,166,157,159,157,156,683,3379,187,160,154,157,156,156,3254,23934,650,376,355,356,355,354,410,1461,205,211,197,202,199,199,1061,1319,7480,15728,65535,65535,3762,1122,973,974,6130,17187,16356,17149,1135,991,1688,7589,32197,38519,28982,26955,38777,41117,679,1613,6639,30689,24791,33159,46266,31877
3685,23024,484,163,158,159,157,159,684,3383,190,162,156,154,157,156,3255,23968,653,375,357,359,355,352,409,1461,205,215,196,200,204,200,1066,1319,7477,15724,65535,65535,3771,1127,970,969,6135,17217,16372,17174,1138,992,1688,7600,32220,38542,29011,26995,38779,41137,680,1616,6644,30727,24786,33166,46255,31882
3689,23081,480,164,161,158,156,158,683,3395,189,158,157,157,160,155,3261,24021,654,377,353,359,357,356,412,1465,205,210,198,201,205,200,1065,1327,7491,15753,65535,65535,3769,1131,972,974,6148,17270,16393,17223,1138,995,1693,7613,32204,38543,29035,27033,38786,41162,679,1619,6648,30777,24801,33199,46253,31899
3695,23145,484,165,158,159,157,159,685,3405,188,159,158,156,159,155,3266,24084,656,379,360,362,354,357,410,1469,206,213,198,201,207,200,1073,1328,7496,15785,65535,65535,3781,1135,975,975,6161,17327,16418,17275,1146,1000,1693,7632,32211,38566,29063,27062,38801,41188,679,1625,6646,30792,24824,33239,46271,31926
3698,23209,484,165,161,160,155,156,686,3415,190,158,161,159,159,157,3270,24133,657,389,360,363,360,359,411,1475,206,211,213,199,204,201,1075,1333,7512,15811,65535,65535,3780,1141,978,982,6177,17390,16457,17345,1150,1002,1697,7647,32196,38572,29103,27120,38820,41229,680,1627,6655,30873,24822,33277,46267,31941
3707,23274,488,164,161,160,161,157,687,3427,190,159,157,156,156,159,3277,24199,661,380,361,362,359,362,410,1476,206,213,198,203,202,203,1081,1338,7523,15835,65535,65535,3790,1145,983,986,6193,17458,16491,17398,1156,1008,1700,7670,32183,38575,29139,27160,38841,41269,679,1633,6663,30934,24831,33316,46274,31957
3707,23206,485,164,159,155,159,156,687,3407,189,155,158,154,153,156,3276,24119,659,380,361,363,359,359,411,1470,207,212,204,201,205,201,1085,1340,7509,15793,65535,65535,3790,1143,989,986,6179,17351,16416,17225,1150,1003,1705,7665,32128,38500,29085,27065,38813,41173,681,1627,6658,30870,24845,33255,46283,31910
3688,23005,486,163,158,160,157,157,686,3379,189,163,156,156,157,155,3264,23986,657,384,362,362,361,363,411,1462,206,210,201,202,210,199,1083,1338,7504,15756,65535,65535,3797,1144,982,983,6150,17220,16350,17117,1150,1001,1700,7623,32131,38479,29085,27082,38787,41130,679,1614,6654,30789,24810,33182,46255,31879
3685,22998,479,166,158,158,162,158,683,3379,188,161,154,156,157,151,3264,23995,656,383,363,363,361,359,411,1464,205,212,197,201,203,200,1086,1339,7499,15749,65535,65535,3791,1147,982,982,6145,17191,16325,17076,1151,1007,1704,7617,32131,38465,29083,27060,38758,41100,679,1611,6656,30763,24801,33145,46228,31863
3683,23015,483,165,159,157,159,157,683,3385,190,159,158,157,156,156,3267,24031,659,384,364,364,361,363,411,1465,206,213,198,202,203,199,1084,1345,7501,15752,65535,65535,3796,1147,989,990,6157,17215,16332,17099,1157,1011,1700,7612,32103,38433,29082,27055,38747,41090,677,1614,6655,30777,24798,33145,46218,31869
3693,23054,479,164,158,157,157,157,683,3392,187,159,153,157,156,152,3271,24052,656,385,363,366,359,360,410,1467,205,211,198,201,207,205,1089,1345,7501,15765,65535,65535,3792,1149,991,991,6164,17228,16331,17099,1157,1010,1704,7615,32100,38438,29087,27055,38738,41083,678,1617,6651,30770,24801,33142,46223,31869
3689,23060,485,164,162,157,158,158,684,3393,189,156,156,159,160,155,3271,24070,661,382,363,364,361,360,411,1470,206,212,199,201,203,200,1085,1343,7491,15739,65535,65535,3799,1147,989,989,6163,17241,16345,17119,1155,1011,1702,7618,32095,38440,29102,27091,38735,41090,679,1616,6654,30792,24796,33147,46211,31868
