 ECG Channel 
10991.26917
11085.37001
11069.90261
10990.79978
10999.9193
11080.89967
11079.75973
10997.95234
10980.0933
11061.27483
11087.6946
11016.5937
10980.76385
11047.3497
11080.45263
11014.89496
10970.19148
11026.78609
11086.4876
11035.88325
10982.50729
11035.12329
11109.30873
11070.95314
11007.89887
11030.27296
11107.34178
11090.55562
11011.5422
11009.93288
11089.86271
11100.94918
11019.56648
11004.27789
11078.53038
11100.16687
11026.40611
10996.03009
11084.47594
11132.08516
11072.00367
11024.12623
11079.3574
11138.00837
11089.79566
11032.39638
11079.11153
11148.93838
11121.71395
11057.78796
11083.80539
11155.62155
11132.35338
11055.53044
11058.43616
11143.43985
11162.0365
11079.29034
11061.36424
11141.607
11168.56321
11093.68486
11056.42451
11126.8772
11175.67106
11096.65765
11026.51787
11081.70433
11144.24451
11101.2174
11047.23794
11088.20869
11167.89265
11145.54091
11066.23692
11096.56824
11182.77892
11173.83822
11095.83063
11095.16008
11172.3183
11190.02088
11112.1474
11098.35638
11178.30857
11207.92463
11149.51952
11108.54877
11185.30466
11240.31231
11180.99078
11125.40199
11179.02382
11232.98093
11179.02382
11118.29413
11171.08895
11240.84875
11211.59032
11133.60508
11141.87522
11215.47952
11198.22397
11105.33012
11087.33697
11152.04527
11141.20467
11023.47803
10923.65514
11021.15345
11225.00136
11345.16434
11418.45571
11547.98407
11644.14127
11581.98107
11487.5226
11539.49041
11560.5681
11416.62287
11255.69031
11208.79635
11218.11702
0
8785.867248
8832.157711
8814.499833
8780.480478
8804.486251
8861.706717
8858.063383
8817.40556
8829.944888
8887.143002
8896.173107
8858.957453
8853.816551
8910.8135
8942.664736
8902.051616
8890.339302
8932.517044
8959.048564
8908.220697
8871.22856
8909.382988
8950.309032
8916.736712
8877.643511
8901.582229
8945.615166
8924.626878
8872.234389
8888.081776
8935.042791
8912.288715
8852.38604
8849.145037
8899.391758
8886.517154
8820.4901
8801.088786
8850.396735
8859.136267
8817.204394
8824.133435
8896.664846
8928.62784
8888.26059
8866.959377
8910.880555
8965.01648
8928.24786
8880.83981
8919.754198
8986.116527
8987.703501
8941.837721
8956.679279
9020.359399
9013.430359
8959.942634
8969.062146
9027.15433
9042.420571
9000.332236
8994.587838
9049.528426
9076.037595
9021.812263
8996.219515
9052.590615
9089.739214
9052.814132
9025.924984
9068.79563
9107.911182
9071.947226
9007.864774
9002.857983
8997.650027
8964.614149
9038.956051
9235.807864
9434.134893
9508.67796
9518.870356
9530.96265
9545.379525
9541.08799
9461.1358
9351.992232
9300.650275
9240.971117
9118.751778
9043.113475
9066.001662
9087.951075
9044.499283
8996.15246
9031.758789
9086.520563
9053.417629
9001.539231
9015.397312
9070.024976
9052.031821
8993.894934
9003.550888
9058.446772
9054.311699
9000.734568
8998.678207
9038.397257
9045.147484
8988.955198
8961.082573
9005.6296
9021.834614
8967.877503
8926.079741
8962.401326
8980.528591
8929.365448
8892.395662
8911.953439
8951.516026
8909.450043
8849.56972
8857.973976
8904.778529
8874.581322
8814.030446
8808.487214
8844.987612
8837.745647
8774.423155
8756.877036
8794.427966
8791.879868
8744.807094
8736.42519
8789.7341
8823.999324
8776.770088
8745.947033
8798.183059
8855.135304
8819.998362
8792.68453
8841.187816
8885.243104
8863.070174
8819.46192
8843.735915
8888.528811
8865.886493
8803.882754
8809.157766
8864.545389
8852.721316
8789.264713
8776.92655
8824.155787
8840.740781
8794.316208
8765.214236
8808.800138
8832.202415
8780.011091
8737.408666
8766.242417
8795.456147
8742.080181
8689.710044
8715.280439
8757.391126
8728.512672
8670.867523
8681.484602
8737.252204
8729.831425
8679.763517
8685.954951
8740.448504
8743.957727
8690.291189
8677.126012
8731.30664
8746.237605
8700.260067
8678.891799
8732.603041
8764.320167
8717.739131
8679.405889
8711.458291
8735.374658
8678.534171
8628.712133
8655.623633
8705.199803
8693.353378
8649.879235
8675.002596
8735.218195
8723.371771
8680.545828
8698.427224
8756.385297
8768.343481
8719.840195
8705.55743
8760.788591
8786.135469
8748.271614
8732.379524
8781.039271
8821.473577
8787.43187
8751.80319
8793.533897
8837.388019
8810.811795
8772.746774
8799.635923
8849.547368
8827.508548
8776.010129
8799.188888
8849.457961
8838.505606
8787.253056
8784.704958
8832.202415
8831.084827
8755.088896
8714.542832
8738.302736
8700.125957
8646.414715
8763.649614
8989.893972
9135.806159
9148.010212
9168.462058
9206.41532
9215.043094
9200.022721
9120.450511
9045.907443
8999.773443
8912.892212
8800.217068
8760.743888
8792.304551
8767.047079
8696.504974
8691.632294
8751.244396
8760.408611
8711.279477
8708.261992
8767.516466
8792.349254
8746.03644
8728.423265
8773.707899
8799.188888
8749.210387
8703.478718
8737.45337
8779.899333
8749.053925
8714.185204
8749.657422
8817.629077
8808.464862
8760.90035
8777.17242
8839.95847
8843.646508
8794.47267
8800.731158
8842.193644
8835.354011
8771.562132
8747.668117
8794.539725
8808.911897
8753.21135
8721.673038
8765.840085
8798.987722
8751.177341
8715.459253
8760.274501
8812.309362
8786.247228
8758.955748
8793.913876
8849.457961
8845.948737
8810.87885
8826.770941
8886.137174
8885.667787
8833.632926
8836.404542
8900.643456
8913.026322
8858.778639
8840.98665
8900.777567
8927.331439
8877.598808
8845.032316
8888.573514
8922.950497
8887.7465
8846.23931
8876.280055
8913.316895
8886.383043
8837.00804
8860.343261
8920.648267
8913.205136
8861.4832
8875.07306
8933.187596
8930.17011
8874.022528
8867.227598
8923.732808
8934.685163
8890.652226
8861.505552
8909.830023
8936.294488
8884.773717
8850.709659
8903.325665
8948.498541
8904.912639
8868.434592
8908.220697
8954.041774
8929.14193
8875.274226
8882.605598
8930.863015
8912.199308
8849.480313
8863.673671
8932.561747
8941.882425
8889.266418
8889.758157
8941.725962
8966.134067
8925.543299
8900.710511
8949.079686
8979.343948
8928.672544
8895.904886
8950.01846
8997.962951
8960.724945
8915.954401
8943.290584
9002.81328
8988.061129
8941.94948
8950.689012
9002.902687
8990.944504
8939.110808
8943.290584
8991.749166
9000.019312
8953.661794
8949.079686
9003.372074
9014.145614
8962.468381
8930.706552
8977.756974
8997.784137
8923.24107
8851.916653
8842.9089
8889.713453
8984.931884
9118.081226
9249.263614
9347.700697
9370.499476
9321.124473
9317.905822
9396.449852
9361.938758
9223.179129
9158.739049
9156.146247
9100.848031
9012.066902
8979.433355
9024.47212
9035.558586
8971.878466
8944.810503
8981.690881
9005.473138
8963.295396
8929.611317
8967.944559
9003.148556
8971.699652
8929.65602
8950.823122
8998.991132
8981.512067
8923.285773
8935.378067
8985.557733
8972.996053
8924.738637
8923.308125
8970.291492
8968.883332
8914.523889
8905.762006
8951.225454
8963.965948
8911.796977
8885.913656
8928.829006
8967.072841
8918.837776
8872.144982
8911.148776
8959.428544
8928.62784
8886.114822
8911.439349
8954.354698
8934.439294
8891.501593
8906.790186
8973.018405
8975.298283
8923.956326
8943.134122
9008.490623
9026.327315
8980.662701
8983.970759
9047.472065
9073.355385
9033.993963
9014.659705
9071.030804
9107.24063
9069.801458
9042.107647
9076.61874
9116.158976
9086.297046
9043.359344
9070.963749
9118.26004
9097.361159
9049.014336
9064.034708
9110.280467
9105.564249
9057.39624
9053.439981
9103.753758
9115.331962
9064.794667
9047.896749
9097.718787
9120.495215
9071.634301
9046.779161
9091.795575
9126.396075
9097.696435
9063.475914
9097.76349
9135.604994
9102.390302
9058.759696
9081.647883
9134.129779
9116.136624
9067.499228
9077.89279
9128.318325
9132.073418
9078.965673
9068.169781
9126.351372
9149.753648
9093.673121
9080.083261
9130.151168
9135.359125
9069.086202
9015.285553
9055.339879
9095.148336
9058.178551
9025.209728
9076.171705
9140.432971
9112.11331
9063.453563
9091.884982
9150.759477
9146.534997
9095.19304
9098.52345
9160.28132
9156.235654
9110.816909
9115.376665
9165.690442
9189.338587
9139.963584
9115.868403
9166.293939
9198.480451
9160.102506
9129.212395
9172.038337
9210.393931
9173.804125
9139.047162
9164.461096
9210.349227
9185.583494
9136.275546
9153.911072
9202.414358
9182.163677
9114.974334
9092.555534
9106.078339
9044.0746
8962.758954
9077.736327
9324.521938
9486.035643
9514.3106
9558.90233
9632.305459
9616.636886
9555.080182
9499.647856
9439.275794
9386.05629
9278.745565
9169.713756
9164.237578
9186.052881
9149.418372
9096.556496
9109.788729
9154.089886
9144.344526
9092.086147
9091.527354
9142.846959
9146.06561
9095.796537
9087.12406
9134.375648
9146.400886
9096.355331
9067.834505
9114.236726
9137.370782
9087.168764
9047.606176
9082.586656
9118.64002
9080.127964
9033.256356
9061.464257
9109.207584
9076.216409
9021.700504
9037.234966
9079.278598
9065.21935
9012.402178
9005.76371
9059.877284
9065.264054
9008.714141
8997.448861
9057.105667
9077.177534
9038.732533
9015.553774
9067.320414
9102.904392
9071.299025
9040.766542
9087.057005
9146.400886
9142.981069
9106.637133
9157.017965
9233.550338
9231.829254
9192.244314
9227.448312
9303.779519
9301.857269
9253.890425
9263.635786
9319.738665
9340.0564
9305.299438
9310.373284
9371.639415
9400.65198
9351.299328
9330.355743
9382.21179
9403.915334
9359.882398
9314.642467
9344.124418
9394.304084
9355.4344
9294.704711
9306.908763
9335.742514
9302.326656
9239.428847
9236.14314
9279.505525
9260.305376
9188.779794
9186.365805
9224.98962
9221.167472
9171.546599
9154.022831
9202.906096
9232.633916
9174.519381
9143.919843
9194.077157
9216.250088
9166.428049
9136.856691
9174.340567
9213.232602
9177.760384
9132.565157
9155.699212
9211.131538
9184.309445
9126.127854
9144.389229
9191.774928
9175.324044
9115.8237
9122.48452
9176.016948
9184.89059
9129.14534
9098.746967
9135.627346
9133.682744
9066.336938
9024.270955
9068.639167
9109.073473
9079.546819
9047.673231
9101.406825
9151.005346
9117.075398
9077.110479
9108.291162
9163.052936
9147.652584
9094.67895
9099.149299
9154.536921
9158.403773
9101.652694
9098.344636
9145.730334
9152.502913
9101.116252
9079.166839
9106.458319
9094.43308
9000.488699
8911.171128
8805.089749
8428.865186
8029.126588
8005.411387
8171.529552
8342.788618
8432.575575
8483.224628
8569.524714
8680.389366
8709.625448
8680.545828
8689.777099
8719.996657
8769.99751
8906.812538
9105.430139
9294.503545
9401.210773
9423.85309
9407.715131
9431.676201
9465.87437
9379.328415
9244.636803
9210.393931
9189.204477
9097.62938
9023.354533
9042.644089
9082.050214
9059.586711
9012.983324
9030.529443
9079.256246
9067.566284
9015.330257
9022.54987
9076.954016
9074.495324
9024.248603
9018.325391
9069.644996
9079.859743
9022.840443
9000.868678
9046.533292
9067.186304
9020.314696
8984.283684
9022.03578
9050.958938
9015.75494
8970.023271
8991.212725
9031.624679
9006.166042
8958.065088
8967.989262
9018.615963
9002.81328
8948.36443
8948.74441
8996.599495
8993.693768
8946.576291
8935.378067
8983.635483
9003.930867
8953.527683
8931.511215
8984.686015
9020.962896
8974.739489
8945.414
9000.622809
9047.516769
9023.376885
8994.967818
9032.585804
9088.576923
9082.094918
9031.13294
9053.082353
9113.230898
9105.966581
9061.531313
9065.375813
9121.366933
9130.911127
9078.138659
9062.380679
9112.850918
9127.692476
9077.021072
9047.069734
9090.432118
9118.505909
9078.675101
9032.585804
9061.799534
9110.280467
9084.039519
9037.838464
9056.144542
9101.60799
9088.129889
9037.190263
9051.428324
9109.699322
9105.810118
9056.524522
9061.084278
9118.349447
9131.000534
9090.633284
9080.597351
9125.189081
9138.644831
9090.432118
9064.258225
9097.651732
9121.478691
9078.764508
9027.15433
9051.562435
9104.603124
9074.69649
9024.650934
9047.2709
9093.650769
9071.030804
9014.793815
9013.475062
9065.174647
9058.223254
9000.734568
8998.611152
9044.409876
9053.261167
8992.352664
8968.995091
9016.850175
9044.700449
8990.966855
8955.584044
8988.351701
9020.202937
8979.50041
8936.31684
8957.036907
9001.27101
8974.337158
8916.826119
8943.692916
8984.931884
8942.59768
8865.528866
8860.58913
8910.500575
8907.6172
8854.710621
8851.268453
8909.941782
8937.412076
8890.339302
8874.760136
8935.869805
8964.927073
8923.933974
8889.020549
8931.131235
8971.744355
8938.574366
8897.35775
8934.752218
8983.121393
8963.205989
8914.389779
8933.791093
8985.021291
8969.88916
8918.770721
8930.706552
8987.658797
8987.368225
8923.732808
8919.1507
8973.890123
8979.656873
8924.805692
8904.398549
8948.6103
8976.974663
8927.376142
8869.8204
8876.99531
8871.250912
8773.417327
8769.572827
8968.033966
9187.773965
9258.405478
9275.124583
9337.664764
9383.463488
9341.576319
9296.783423
9249.733001
9197.161698
9116.85188
9005.070806
8943.447047
8963.787134
8967.005785
8898.989427
8873.888418
8922.302296
8950.130218
8903.370369
8862.779601
8900.218773
8934.77457
8895.904886
8852.453095
8879.16343
8927.867881
8898.296523
8839.980822
8857.6387
8905.627895
8886.695968
8826.882699
8821.585336
8871.921464
8859.672708
8799.904144
8790.62817
8845.769923
8858.309252
8802.54165
8780.480478
8834.437589
8872.055575
8833.878795
8806.609667
8850.08381
8894.384968
8864.187761
8823.30642
8841.88072
8880.817459
8852.341336
8807.503737
8832.940022
8883.052633
8872.301444
8822.121778
8820.579507
8878.247008
8888.707625
8852.38604
8851.939005
8918.658962
8941.100114
8908.354808
8907.080758
8973.152515
9017.721894
8988.575219
8968.436297
9027.646068
9091.370891
9069.846162
9038.330202
9087.302874
9151.117104
9141.662317
9093.4049
9125.43495
9197.876954
9202.973152
9150.021869
9157.08502
9217.680599
9225.3696
9172.440669
9153.933424
9208.561088
9219.781663
9161.44361
9129.815892
9166.338642
9197.161698
9145.618575
9100.982142
9139.471846
9186.276398
9157.621462
9122.506872
9161.845942
9216.428902
9202.123785
9165.466924
9191.104375
9258.807809
9263.926359
9212.472643
9219.87107
9282.634769
9301.812566
9249.353021
9237.059562
9296.895182
9314.150728
9261.154742
9224.967268
9264.619263
9287.954484
9240.971117
9197.094643
9223.424998
9257.399649
9226.330725
9174.787602
9178.810916
9218.664076
9177.425108
9085.961769
9059.966691
9062.179513
8984.686015
8825.60865
8719.080236
8713.559355
8684.904419
8605.019284
8601.800633
8687.072538
8753.636033
8749.389201
8761.906178
8843.534749
8890.763985
8863.092525
8851.380211
8910.992314
8974.359509
8961.887236
8929.723076
8961.440201
9026.662591
9017.54308
8969.37507
8986.496507
9044.879263
9045.572167
8998.901725
9003.148556
9064.325281
9071.187266
9016.380789
9009.161175
9068.616816
9099.730444
9054.915196
9024.762693
9074.830601
9095.796537
9038.397257
8969.330367
8994.051396
9137.795465
9277.695033
9364.129229
9437.68882
9514.17649
9512.120129
9423.473111
9429.552785
9468.042489
9388.336168
9244.748562
9164.349337
9148.591357
9107.397092
9020.135882
8975.320634
8992.218553
8995.303094
8937.300317
8897.424805
8932.47234
8962.736602
8922.570517
8879.29754
8916.870823
8970.224437
8957.752163
8904.376197
8921.899965
8981.601474
8973.174867
8919.754198
8924.068084
8987.94937
8989.558696
8934.618108
8918.413093
8965.485867
8966.916378
8907.751311
8885.511325
8937.21091
8959.719117
8903.437424
8858.063383
8900.017607
8933.522872
8887.992369
8842.439513
8864.612444
8909.53945
8883.320854
8827.575603
8845.635813
8903.348017
8894.295561
8844.004136
8855.671746
8922.682276
8935.512177
8890.272247
8890.83104
8952.231282
8984.820126
8955.695803
8948.811465
9002.366245
9039.693658
9009.429396
8985.423623
9028.584841
9082.653711
9056.837446
9012.312771
9038.061981
9096.22122
9073.958883
9019.912364
9039.559548
9095.818889
9090.07449
9043.918138
9047.002679
9100.624514
9112.202717
9060.480781
9051.294214
9104.781938
9126.865462
9078.339824
9053.976423
9104.111386
9132.542805
9089.292179
9055.250472
9091.572057
9135.247366
9113.52147
9067.499228
9088.375758
9137.057857
9116.85188
9064.615853
9076.350519
9134.398
9136.163787
9081.647883
9082.497249
9142.176407
9150.558311
9098.299932
9086.788784
9138.018982
9155.363936
9112.470938
9088.01813
9140.477674
9173.781773
9137.035505
9095.796537
9133.079247
9178.006253
9147.451418
9102.837336
9134.398
9181.202552
9170.160791
9108.715845
9116.404845
9179.392061
9175.860486
9117.075398
9124.563232
9178.386233
9186.768137
9133.615689
9115.846052
9164.192875
9190.679692
9127.22309
9073.757717
9104.737235
9131.402866
9088.241647
9047.963804
9080.820868
9132.118122
9116.516604
9077.333996
9104.446662
9165.913959
9161.3095
9118.148281
9129.480616
9178.587398
9184.644721
9141.416447
9141.662317
9193.98775
9214.305486
9166.964491
9154.626328
9204.649532
9236.433713
9189.11507
9157.621462
9201.386178
9246.827274
9206.147099
9159.275491
9194.144213
9238.691239
9209.969248
9160.92952
9181.828401
9227.001277
9207.331742
9146.087962
9130.262927
9155.006308
9112.090959
8992.017387
9018.19128
9234.377353
9422.154358
9474.815068
9524.279478
9622.001305
9630.047933
9546.47476
9523.340705
9511.851908
9433.754913
9312.697865
9192.57959
9169.490238
9191.462003
9150.155979
9093.27079
9104.066682
9156.235654
9143.383401
9080.195019
9078.652749
9126.194909
9121.143415
9063.2971
9048.500246
9100.780976
9114.102616
9060.458429
9032.429341
9076.685795
9104.312552
9049.818999
9007.440091
9042.219405
9079.05508
9030.708257
8980.170963
9005.897821
9048.075562
9023.265126
8968.503352
8976.952312
9029.791836
9014.033856
8953.505332
8947.135085
8997.493565
9001.02514
8940.876596
8924.112788
8976.751146
8997.739434
8945.414
8924.559823
8970.470306
9007.216574
8971.789059
8935.534529
8981.15444
9035.35742
9014.659705
8974.068937
9008.781196
9070.650824
9058.782048
9021.253469
9053.775257
9118.014171
9118.237688
9068.41565
9077.490458
9134.822683
9145.015078
9090.812098
9085.045348
9138.957755
9152.905244
9111.822738
9089.918028
9128.38538
9159.163732
9119.6682
9083.838354
9122.99861
9161.935349
9129.637078
9081.647883
9100.780976
9150.714773
9126.798406
9080.284426
9090.07449
9136.297898
9135.962622
9085.112403
9081.245551
9130.933479
9139.538901
9088.643979
9074.428269
9123.803273
9145.976203
9098.255229
9064.034708
9112.292124
9154.067535
9112.49329
9071.433135
9112.49329
9152.324099
9118.796482
9074.04829
9099.238706
9153.218168
9133.459226
9081.446717
9092.108499
9147.652584
9137.750761
9087.235819
9088.241647
9145.238596
9154.581625
9099.641037
9081.402013
9129.815892
9153.352279
9101.47388
9066.381641
9102.770281
9122.596279
9062.380679
9001.718044
9021.119359
9071.321377
9056.166894
9016.470196
9048.835522
9103.507889
9098.702264
9046.846217
9057.01626
9116.85188
9119.735255
9069.421478
9064.70526
9112.426235
9108.313514
9041.012411
9006.948353
9037.927871
9066.87338
9029.098931
9002.723873
9053.574092
9099.68574
9076.462278
9035.066847
9073.15422
9136.722581
9121.545747
9074.920008
9082.698415
9132.296936
9134.91209
9097.785842
9100.892735
9154.000479
9161.600073
9112.314476
9104.133738
9155.810971
9170.674881
9117.388322
9102.814985
9152.368802
9182.521305
9132.811026
9103.01615
9139.717715
9171.881875
9134.800331
9094.947171
9128.76536
9175.033471
9138.130741
9071.187266
9068.616816
9081.759641
9009.451748
8926.929108
9052.858836
9298.035121
9455.257291
9490.908324
9552.755601
9631.836072
9631.076113
9585.187982
9548.508769
9509.326161
9451.52455
9341.263395
9249.285966
9252.728135
9272.777649
9214.61841
9152.435857
9176.262817
9216.719474
9192.490183
9149.373668
9157.688517
9206.616486
9189.003311
9121.299877
9116.248383
9160.393078
9155.252177
9097.584676
9082.184325
9129.301802
9163.678785
9125.502005
9114.057912
9165.399869
9200.894439
9158.202607
9110.079302
9135.850863
9176.374576
9132.833377
9082.698415
9107.598258
9138.980107
9109.54286
9049.796647
9054.043478
9102.36795
9084.30774
9014.480891
9006.255449
9053.954071
9053.372926
9000.846326
8985.267161
9035.580937
9053.641147
9002.857983
8979.343948
9032.585804
9067.543932
9030.641202
9001.874507
9056.278653
9106.570078
9079.010377
9038.777237
9070.963749
9122.842148
9112.426235
9076.372871
9100.468051
9169.534942
9173.781773
9116.941287
9110.973371
9170.719584
9173.401794
9115.577831
9098.925781
9139.27068
9158.314366
9096.534144
9058.223254
9101.764453
9131.894604
9081.178496
9031.311754
9061.263092
9105.117214
9076.775202
9016.917231
9033.770446
9082.318435
9063.095935
9000.242829
9009.630562
9065.778144
9061.799534
8992.129146
8976.03589
9026.193205
9035.066847
8982.786117
8962.736602
9012.648048
9039.000754
8985.468326
8947.023326
8993.894934
9030.708257
8983.188448
8942.128294
8973.353681
9010.971667
8979.276893
8920.849433
8934.483997
8988.776384
8967.028137
8920.692971
8932.606451
8991.503297
9005.651952
8952.007765
8937.412076
8984.082518
8994.297265
8937.903814
8912.132253
8937.635593
8893.13327
8722.701218
8557.43242
8515.209975
8551.464504
8551.531559
8553.364402
8621.872499
8703.411663
8700.483584
8676.276645
8721.114245
8790.561115
8800.150013
8758.285196
8770.265731
8814.164557
8809.314228
8751.892597
8750.52914
8807.727254
8832.045952
8784.190867
8769.662234
8830.615441
8883.812592
8851.469618
8833.051781
8888.975845
8935.042791
8900.218773
8852.274281
8890.428709
8949.705535
8926.213852
8882.337377
8910.701741
8967.206951
8957.863922
8904.823232
8918.234279
8974.650082
8973.644253
8925.67741
8924.78334
8979.589817
8997.962951
8942.441218
8918.278982
8967.810448
8994.140803
8946.218663
8903.7727
8939.110808
8967.855152
8908.421863
8837.097447
8813.024618
8826.167444
8899.369407
9037.771408
9222.955611
9348.371249
9390.169011
9376.690909
9362.676366
9406.977523
9414.286544
9278.007958
9169.579645
9151.251215
9098.054063
8990.408062
8939.088457
8967.721041
8987.479983
8941.860073
8896.84366
8925.900927
8962.06605
8922.548166
8872.949645
8904.733825
8949.2585
8921.676448
8867.719336
8875.296578
8925.588003
8922.011724
8862.220807
8854.241235
8907.326628
8912.623991
8851.469618
8833.722333
8887.50063
8904.197383
8845.881682
8810.521222
8854.732973
8879.588113
8827.553252
8779.161725
8813.739874
8858.376307
8825.273374
8771.271559
8784.324978
8832.850615
8820.311286
8766.6671
8778.558228
8833.699981
8827.195624
8769.461068
8778.290007
8842.193644
8849.882644
8807.369626
8796.484327
8853.727144
8887.522982
8853.749496
8838.55031
8897.245991
8934.729866
8892.596828
8862.332566
8903.839756
8959.473247
8932.293526
8879.252837
8901.045787
8958.936806
8942.955308
8887.254761
8894.966113
8951.18075
8951.605433
8893.625008
8884.103165
8935.154549
8953.013593
8891.635703
8871.586188
8922.950497
8946.039849
8891.143965
8860.142095
8908.220697
8951.627785
8907.840718
8870.602712
8908.801843
8962.915416
8936.026268
8880.862162
8902.163375
8952.723021
8945.414
8903.035093
8902.521003
8962.133105
8963.653024
8909.830023
8908.466567
8962.736602
8977.019367
8925.543299
8918.256631
8980.617998
9001.695693
8944.7658
8920.849433
8960.792
8999.549925
8968.525704
8931.041829
8962.446029
9015.687885
8994.878411
8949.839646
8973.398384
9028.763655
9019.577088
8972.459611
8967.765745
9025.790873
9028.517786
8972.616073
8973.823067
9033.077542
9053.127057
9003.19326
8983.881352
9032.764618
9061.933644
9014.659705
8963.675375
8985.64714
9011.999847
8973.644253
8928.605488
8967.810448
9006.098986
8985.781251
8946.933919
8976.102945
9036.229138
9042.554682
8995.593667
9010.479928
9067.163952
9064.95113
9014.905574
9012.357475
9075.568208
9092.644941
9043.918138
9025.36619
9074.629435
9112.046255
9077.579865
9038.933699
9084.374795
9119.690552
9085.179458
9040.319507
9069.712051
9118.64002
9098.255229
9042.599385
9061.24074
9116.404845
9103.485537
9043.04642
9043.672269
9082.698415
9061.553664
8969.75505
8896.106052
8955.137009
9100.423348
9222.799149
9305.880583
9398.975599
9462.454553
9421.372047
9354.808552
9417.080512
9432.234994
9315.938868
9201.497936
9170.719584
9167.299767
9106.570078
9032.250527
9039.291327
9087.615798
9076.574037
9024.606231
9021.633449
9072.729537
9075.925836
9018.593612
9004.489661
9063.252397
9082.050214
9029.613022
8998.342931
9045.214539
9080.195019
9024.650934
8986.764727
9024.360362
9067.633339
9028.920117
8971.6773
8990.00573
9039.246623
9023.533347
8962.736602
8972.616073
9031.848196
9015.531423
8952.007765
8951.828951
9004.981399
9012.871565
8951.918358
8928.136102
8980.550942
9003.550888
8961.440201
8933.612279
8985.043643
9024.315658
8976.147649
8934.90868
8975.857076
9028.607193
9004.713178
8961.842532
9005.495489
9065.420516
9060.793705
9010.301114
9029.970649
9109.296991
9156.637985
9126.239613
9145.909148
9230.666963
9253.488094
9228.208271
9281.159554
9441.488617
9577.051947
9535.812978
9475.910303
9493.210553
9508.297981
9448.998803
9378.389642
9383.754061
9402.171898
9349.980575
9276.711557
9266.407402
9300.71733
9280.287836
9222.463873
9228.565899
9278.142068
9271.12362
9213.903155
9203.241372
9254.829199
9263.43462
9203.84487
9173.670015
9221.525099
9238.423018
9184.89059
9146.95968
9187.170468
9223.916736
9183.7283
9132.542805
9161.980052
9211.53387
9178.565047
9126.127854
9155.67686
9202.302599
9183.750651
9123.780921
9126.46313
9183.147154
9182.566009
9125.323191
9106.234802
9158.046145
9165.802201
9106.34656
9084.844182
9136.029677
9159.163732
9085.738252
9018.504205
8993.470251
8892.216848
8563.154467
8262.076469
8293.99476
8450.836951
8528.933946
8553.677327
8639.888005
8750.260919
8790.851687
8771.696242
8808.733083
8890.473412
8924.313953
8897.894191
8911.953439
8983.523724
9018.772426
8989.268123
8974.471268
9032.339934
9074.964711
9041.325336
9010.658742
9041.50415
9070.874342
9025.276783
8971.006748
9002.94739
9067.633339
9053.082353
9014.592649
9044.543987
9108.849956
9106.637133
9064.481743
9081.2232
9140.81295
9155.185122
9091.616761
9078.876266
9142.265814
9169.177314
9113.342656
9091.326188
9147.294956
9178.699157
9146.177369
9102.435005
9144.389229
9186.186991
9161.778887
9116.874232
9144.076305
9197.876954
9174.295863
9119.042351
9132.274584
9189.584457
9182.856582
9118.528261
9107.978238
9153.329927
9133.973316
9047.539121
8989.961027
8969.330367
9019.912364
9133.772151
9279.237304
9433.643154
9540.149217
9550.408667
9498.731434
9487.3991
9524.43594
9438.828759
9288.915609
9226.956573
9205.185974
9128.720656
9052.434153
9045.48276
9087.168764
9084.151278
9029.747132
9019.241812
9063.341804
9077.021072
9023.622754
8997.158289
9048.254376
9071.477839
9020.895841
8990.497469
9033.658687
9064.19117
9019.018295
8977.935788
9011.083425
9051.853007
9021.029952
8961.194332
8973.376033
9018.973591
9001.7851
8949.839646
8959.38384
9008.915306
8999.751091
8939.379029
8924.313953
8973.197219
8974.873599
8920.380046
8899.168241
8941.994183
8966.312881
8923.911622
8893.043863
8936.83093
8976.03589
8940.496616
8901.314008
8934.528701
8981.66853
8958.087439
8919.553032
8952.946538
9012.93862
9010.569335
8975.477096
8995.481908
9066.515752
9082.072566
9034.32924
9032.250527
9099.797499
9128.653601
9089.247476
9073.556551
9130.374686
9156.369764
9117.36597
9077.13283
9110.70515
9143.025773
9098.165822
9049.908406
9079.859743
9124.429122
9100.289238
9046.823865
9068.236836
9125.904337
9113.90145
9061.598368
9064.973481
9118.863537
9121.881023
9075.054118
9070.360252
9121.836319
9142.668145
9089.918028
9060.86076
9108.984066
9132.542805
9088.398109
9059.117324
9103.954924
9148.993689
9113.096787
9062.693603
9093.986046
9148.278433
9121.545747
9066.426345
9090.409766
9143.808084
9132.60986
9077.736327
9081.267903
9139.695363
9144.903319
9088.01813
9077.266941
9130.106465
9148.546654
9099.283409
9076.506981
9126.530186
9145.462113
9096.310627
9065.286406
9098.031711
9139.829473
9105.050159
9057.999737
9083.257208
9127.960697
9101.920915
9037.838464
9057.955034
9114.169671
9101.60799
9040.699487
9047.114437
9100.356293
9103.552592
9057.507999
9040.565376
9094.455432
9118.349447
9064.392336
9040.051286
9093.002569
9133.50393
9093.002569
9052.367097
9083.681891
9098.344636
9048.075562
8985.244809
9008.155347
9071.679005
9060.704298
9008.714141
9029.344801
9098.121118
9100.266886
9047.382658
9059.072621
9125.792578
9137.370782
9074.741194
9057.284481
9122.61863
9155.475695
9108.514679
9083.681891
9136.141436
9174.966416
9134.353296
9090.521525
9120.964601
9163.790544
9135.515587
9090.633284
9116.024866
9160.728355
9135.962622
9083.547781
9089.850973
9146.892625
9140.835302
9087.012301
9078.40688
9119.623496
9119.80231
9044.096952
8983.233152
8981.780288
8952.745372
8974.359509
9119.489386
9332.099179
9468.735393
9513.640048
9505.72753
9516.679885
9526.894632
9494.395196
9375.774488
9284.780536
9251.834065
9157.800276
9035.379772
8995.906591
9012.312771
8972.236094
8872.435555
8833.141188
8870.870932
8886.47245
8833.275298
8814.991571
8873.508438
8902.185726
8860.834999
8837.276261
8890.473412
8928.337267
8888.931142
8841.433685
8874.983653
8927.018515
8889.914619
8837.678592
8854.263586
8901.537526
8879.096374
8825.22867
8828.55908
8877.911732
8865.551217
8807.459033
8793.019807
8840.60667
8848.116857
8794.137394
8763.314338
8800.172365
8823.82051
8777.284178
8736.738114
8772.031518
8803.547478
8762.084992
8724.243489
8755.714745
8807.861365
8786.649559
8744.717687
8771.875056
8835.175197
8828.872005
8791.186963
8808.554269
8871.697947
8886.561857
8847.803932
8847.178083
8915.485014
8944.564634
8898.475337
8881.040976
8943.223529
8980.506239
8937.546186
8904.331494
8939.423733
8990.341007
8959.24973
8904.800881
8931.846491
8980.685053
8960.344965
8913.316895
8932.271174
8982.227323
8974.694785
8920.536509
8921.743503
8975.5218
8975.14182
8916.244974
8903.750349
8957.84157
8975.544152
8924.358657
8904.644418
8949.705535
8973.420736
8929.879538
8891.166316
8932.114712
8974.404213
8944.475227
8894.563782
8918.770721
8966.134067
8946.44218
8899.145889
8916.20027
8965.038832
8958.959157
8904.331494
8897.804785
8956.768686
8974.873599
8921.83291
8906.030226
8970.827934
8979.276893
8927.152625
8899.481165
8956.522817
9001.472175
8956.768686
8919.105997
8964.524742
9018.593612
8985.602437
8945.369297
8979.343948
9034.709219
9030.708257
8992.397367
9009.585859
9078.183362
9077.177534
9022.885146
9024.628583
9088.576923
9102.524412
9053.842313
9033.658687
9095.528316
9126.306668
9070.47201
9037.838464
9077.624569
9107.933534
9066.985138
9022.259298
9056.457467
9091.035615
9058.782048
9008.535327
9027.444902
9075.702319
9060.525484
9008.825899
9022.54987
9074.383566
9075.054118
9020.560565
9010.792853
9061.128981
9068.616816
9020.314696
9000.37694
9051.227158
9080.84322
9032.630507
9003.260315
9041.459446
9068.616816
9015.799643
8962.893064
8976.684091
9015.486719
8992.062091
8947.671526
8980.796812
9043.158179
9040.900653
8990.519821
8995.928943
9063.833542
9071.768412
9020.605269
9008.490623
9060.436077
9074.651787
9033.412818
9025.276783
9070.069679
9088.9122
9052.52356
9024.360362
9074.495324
9113.722636
9069.890865
9029.478911
9062.78301
9109.051121
9081.49142
9029.970649
9052.478856
9103.440834
9089.091014
9030.685905
9037.994926
9092.577886
9087.280522
9023.376885
8988.061129
9007.998885
8982.808469
8890.607523
8912.73575
9113.186194
9315.268316
9347.790104
9358.138962
9430.3798
9453.357393
9400.227296
9367.236122
9338.916461
9296.87283
9208.605791
9099.439871
9061.866589
9082.050214
9054.043478
8987.547039
8989.446937
9038.285498
9031.669382
8978.002844
8969.263312
9019.420626
9035.178606
8980.819163
8958.266253
9002.165079
9031.289402
8980.506239
8945.570462
8991.123318
9028.361324
8990.38571
8945.369297
8965.374108
9008.177699
8990.072786
8936.741523
8949.437314
9003.573239
8994.967818
8935.847454
8937.389724
8989.603399
8992.531478
8934.171073
8916.96023
8963.585968
8979.098079
8926.526776
8905.69495
8957.126314
8990.743338
8945.92809
8915.015628
8951.56073
8998.365283
8970.559713
8927.08557
8956.567521
9011.508109
8999.773443
8944.743448
8965.239998
9030.820016
9035.983269
8986.608265
8992.397367
9061.061926
9071.343728
9023.555699
9020.538213
9074.808249
9093.650769
9046.51094
9024.919155
9076.685795
9118.617668
9076.99872
9031.870548
9071.142563
9122.171595
9095.103633
9044.991022
9067.968615
9116.918935
9101.585639
9053.596443
9061.687775
9116.85188
9114.236726
9063.766487
9060.771353
9114.683761
9130.262927
9084.643016
9068.661519
9126.597241
9147.652584
9103.060854
9068.594464
9112.023903
9148.278433
9110.325171
9080.284426
9111.46511
9148.859578
9124.719694
9079.457412
9100.289238
9154.536921
9135.627346
9083.480726
9095.863592
9144.121008
9144.791561
9095.282447
9097.003531
9155.475695
9171.680709
9115.913107
9101.049197
9151.005346
9175.435802
9124.384418
9100.758624
9146.467942
9185.091756
9148.36784
9111.308648
9143.405753
9189.450346
9159.208436
9107.955886
9128.877119
9178.98973
9169.601997
9116.561307
9125.904337
9189.696215
9185.427032
9131.648735
9130.665258
9188.265704
9204.761291
9153.776962
9139.069514
9195.597076
9235.807864
9203.800166
9184.465907
9227.42596
9262.384088
9224.60964
9186.768137
9213.500823
9263.188751
9250.537664
9209.09753
9240.524082
9310.753263
9301.924324
9247.453123
9259.523065
9334.177892
9356.775505
9301.857269
9288.781499
9334.960203
9332.635621
9263.099344
9225.280193
9258.293719
9285.786365
9240.23351
9211.176242
9254.225702
9297.655141
9270.117792
9224.09555
9244.681507
9291.128432
9265.513333
9209.343399
9211.690332
9263.255806
9258.114905
9210.908021
9212.427939
9266.452106
9273.179981
9220.38516
9207.421149
9254.762143
9271.972987
9223.760274
9199.508631
9249.487132
9278.231475
9231.695143
9196.178221
9225.526062
9259.634824
9221.033361
9182.789526
9208.382274
9253.219873
9213.545527
9146.423238
9131.224052
9147.518474
9085.447679
9011.373998
9134.509758
9372.578188
9514.109434
9533.778969
9586.037348
9648.376363
9630.226747
9575.107345
9531.342629
9479.441879
9420.992067
9310.574449
9206.28121
9195.150041
9218.977001
9179.570875
9119.265869
9142.042296
9181.381366
9163.723488
9117.164805
9127.133683
9178.319177
9177.268645
9115.913107
9102.166784
9155.252177
9154.089886
9089.761566
9070.47201
9113.499119
9135.113255
9082.161973
9035.200958
9068.750926
9099.752796
9043.761676
8997.270047
9032.40699
9059.787877
9017.632487
8959.76382
8975.745317
9021.14171
8993.224382
8931.600622
8936.897986
8986.608265
8973.443088
8898.52004
8886.025415
8933.947555
8937.792055
8873.217866
8839.511435
8878.694043
8893.490898
8831.777731
8785.219048
8816.153862
8837.030391
8778.893504
8730.300812
8772.322091
8841.746609
8840.941947
8812.108196
8860.432668
8943.447047
8951.627785
8920.782378
8948.789114
9019.755902
9029.121283
8983.970759
8977.801678
9031.13294
9053.596443
8998.5888
8978.695748
9031.64703
9061.75483
9020.448806
8983.344911
9025.343838
9069.689699
9032.004658
8991.905629
9028.897766
9073.221275
9049.975461
9001.7851
9016.13492
9071.053156
9064.459391
9012.402178
9017.67719
9067.923912
9064.772316
9013.519766
9005.696655
9066.091069
9079.010377
9024.561527
9001.360417
9050.042516
9075.925836
9035.223309
8999.214649
9041.057115
9088.129889
9047.673231
9004.132033
9037.994926
9085.33592
9064.995833
9018.414798
9035.178606
9086.74408
9072.885999
9018.19128
9024.539176
9082.273732
9086.408804
9031.043533
9026.170853
9084.218333
9098.881078
9046.935624
9020.694676
9071.701356
9101.652694
9051.875359
9011.418702
9055.652804
9093.874287
9064.615853
9012.737455
9037.27967
9100.982142
9084.710072
9032.317583
9053.574092
9109.54286
9100.646865
9051.875359
9057.999737
9110.593392
9117.678895
9069.086202
9056.949205
9113.968505
9128.966526
9079.546819
9062.939473
9106.525374
9142.712849
9097.405862
9058.200903
9096.355331
9137.415485
9106.279505
9063.095935
9092.533182
9144.500988
9124.54088
9070.829638
9085.045348
9149.977165
9152.793485
9114.326133
9141.908186
9261.266501
9294.123565
9239.630012
9224.810806
9280.824277
9324.723104
9337.843578
9355.613214
9407.849241
9440.616899
9394.035863
9341.889243
9360.865874
9382.59177
9335.742514
9272.822353
9280.444298
9313.256659
9271.794173
9199.7545
9192.400776
9223.916736
9207.599963
9141.058819
9136.096732
9188.623332
9180.107317
9103.77611
9063.990005
9102.926743
9123.400941
9075.635263
9047.673231
9100.423348
9142.042296
9107.084168
9067.52158
9103.26202
9146.087962
9114.840223
9059.519656
9067.90156
9111.755682
9093.002569
9043.962842
9057.820923
9120.606973
9113.052084
9052.590615
9049.461371
9106.793595
9117.947116
9070.650824
9056.613929
9110.079302
9135.359125
9074.227103
9043.716972
9091.080319
9122.685685
9077.64692
9030.082408
9051.897711
9078.786859
9026.841405
8955.762858
8945.235186
8940.429561
8823.82051
8616.016342
8509.912611
8626.74518
8812.510528
8906.566668
9021.700504
9159.588416
9198.033416
9158.940215
9170.384308
9184.689425
9120.674028
9014.972629
8928.873709
8937.523834
8961.216684
8921.676448
8879.074023
8916.088511
8967.385765
8945.615166
8899.950552
8920.93884
8978.204009
8976.862905
8933.277003
8931.891195
8980.886219
8985.13305
8933.232299
8923.24107
8976.41587
8990.318655
8937.389724
8914.255668
8957.103963
8983.59078
8939.289622
8901.33636
8939.490788
8979.545114
8932.002954
8884.684311
8904.398549
8949.683183
8923.442235
8863.763078
8880.973921
8931.555919
8917.630782
8861.393793
8858.443363
8910.344113
8913.830985
8855.112953
8849.256796
8900.30818
8913.674523
8861.192627
8840.181987
8893.379139
8930.773608
8886.584209
8857.370479
8907.572497
8964.703556
8936.987393
8900.464642
8936.875634
8991.860925
8979.545114
8936.138026
8949.77259
8999.616981
8995.928943
8957.975681
8964.904721
9019.286516
9024.829748
8966.871675
8965.463515
9009.272934
9022.393408
8970.26914
8944.408172
8985.937713
9014.21267
8966.335233
8928.471378
8966.648157
9013.69858
8975.320634
8922.548166
8950.219625
9001.896858
8975.588855
8922.458759
8934.77457
8986.54121
8979.768631
8923.576346
8917.541375
8966.715213
8974.515971
8925.833872
8903.683293
8952.007765
8972.124335
8922.838738
8895.837831
8944.788151
8977.82403
8932.405285
8895.815479
8934.841625
8974.873599
8943.111771
8901.448119
8930.952422
8983.031986
8963.876541
8913.607468
8925.230375
8978.092251
8975.074765
8921.765855
8928.761951
8983.344911
8988.150536
8938.23909
8925.342134
8976.706442
8999.505222
8952.745372
8927.532605
8969.464477
9005.450786
8960.948463
8920.715323
8957.618053
9002.209783
8971.274969
8922.458759
8947.246843
8995.727777
8982.18262
8931.757084
8942.888253
9005.316675
8999.192297
8941.301279
8934.528701
8991.972684
9001.136899
8952.745372
8934.685163
8987.167059
9008.043588
8960.859056
8931.600622
8977.600512
9012.066902
8984.10487
8936.093323
8967.989262
9018.124225
8986.630617
8935.176901
8953.86296
9004.064978
8985.244809
8932.070009
8941.05541
8998.678207
9002.366245
8939.759009
8931.175939
8988.552867
9004.042626
8955.226416
8929.678372
8974.650082
9000.645161
8956.321651
8923.88927
8968.548056
9013.922097
8975.477096
8937.367372
8963.965948
8995.861887
8962.647195
8900.95638
8910.634686
8956.545169
8947.671526
8905.806709
8930.259517
8991.190373
9004.713178
8949.705535
8932.897023
8991.123318
9011.731626
8960.121448
8927.242032
8977.220533
9006.903649
8964.703556
8936.83093
8981.556771
9022.348705
8995.034873
8955.449933
8980.953274
9034.485702
9016.581955
8963.697727
8982.406137
9042.331164
9032.742266
8972.996053
8975.320634
9034.619812
9042.91231
8992.576181
8982.473193
9032.474045
9056.010432
9027.780179
9087.526391
9197.809899
9273.202333
9328.925232
9394.862878
9567.775973
9735.45876
9733.380047
9694.979751
9715.655114
9708.234335
9639.815645
9570.592293
9513.193013
9453.379745
9352.618081
9220.25105
9155.699212
9171.837172
9139.874177
9069.980272
9054.334051
9088.062833
9098.121118
9039.291327
9006.344856
9045.505112
9073.601255
9022.818091
8977.645216
9005.987228
9047.717935
9012.648048
8963.451858
8983.523724
9026.64024
9003.774405
8941.614204
8947.738582
8996.219515
8976.706442
8911.037017
8910.880555
8964.748259
8967.028137
8914.412131
8897.35775
8952.790076
8971.610245
8917.764892
8884.013758
8928.314916
8956.522817
8909.964133
8852.52015
8874.223694
8908.37716
8867.741688
8770.779821
8725.741056
8641.720848
8403.339494
8242.071657
8291.938399
8413.80011
8477.435527
8492.34414
8541.272109
8643.844264
8699.410701
8685.954951
8698.159003
8781.195734
8834.974031
8804.620362
8794.942057
8855.135304
8906.298447
8873.888418
8839.734952
8885.310159
8939.13316
8923.956326
8875.743613
8902.833927
8966.871675
8959.495599
8905.873764
8916.96023
8977.846381
8985.200105
8938.596718
8927.040866
8985.423623
9003.595591
8954.37705
8938.99905
8984.149573
9007.775367
8971.29732
8941.547148
8983.59078
9023.153367
8996.15246
8949.504369
8991.615056
9044.655746
9017.185452
8971.274969
8994.856059
9051.696545
9035.424475
8981.333254
8991.525649
9057.150371
9060.458429
8997.202992
8991.570353
9047.40501
9068.862685
9018.459501
8997.04653
9051.808304
9079.971502
9033.81515
8997.158289
9033.681039
9066.716917
9020.381751
8980.349777
9025.433245
9088.174592
9060.391374
9015.486719
9059.921987
9131.872252
9108.537031
9044.141655
9054.222292
9113.432063
9110.638095
9057.39624
9046.667403
9098.568153
9117.947116
9070.762583
9055.496342
9102.904392
9137.169616
9090.745043
9053.216464
9095.997703
9140.321212
9110.302819
9063.811191
9097.048235
9146.244424
9125.524357
9069.689699
9090.45447
9144.836264
9131.604032
9079.233894
9083.592484
9137.035505
9148.971337
9091.817926
9077.177534
9129.704133
9147.943157
9098.858726
9072.304853
9122.350409
9148.300785
9095.885944
9045.750981
9079.412708
9115.622534
9098.054063
9064.302929
9100.199831
9149.463075
9128.25127
9074.629435
9087.168764
9145.842093
9133.570985
9064.727612
9060.279615
9122.931555
9117.030694
9052.590615
9047.852045
9113.566174
9135.761456
9081.245551
9048.321432
9094.768357
9135.113255
9096.042406
9050.623661
9082.653711
9127.915994
9094.634246
9049.059039
9072.953054
9118.036523
9097.271752
9043.158179
9049.640185
9096.154165
9071.835467
8983.054338
8950.487846
8956.008727
8968.324538
9035.111551
9192.534887
9356.730802
9435.207776
9422.556689
9401.16607
9418.041637
9462.700422
9400.339055
9284.333501
9255.544455
9241.060524
9149.150151
9056.88215
9061.352499
9099.529278
9071.433135
9016.090216
9027.511958
9082.541952
9076.842258
9017.140748
9010.971667
9061.888941
9073.869476
9020.538213
9005.942524
9055.451638
9079.56917
9034.150426
9002.366245
9044.365173
9079.010377
9038.218443
8990.676283
9017.341914
9061.710127
9029.881242
8978.561637
9003.617943
9051.62949
9034.262184
8973.867771
8982.942579
9035.625641
9030.462388
8968.257483
8959.607358
9015.978457
9027.780179
8973.063108
8957.662756
9007.842422
9032.697562
8991.458594
8959.786172
9012.849213
9056.323356
9017.967763
8982.540248
9020.068827
9072.550723
9056.546874
9013.005675
9047.896749
9123.847976
9122.506872
9070.516714
9083.816002
9154.559273
9161.890645
9114.326133
9104.156089
9154.671032
9178.47564
9131.224052
9113.208546
9166.673919
9199.642742
9149.39602
9108.849956
9152.771134
9190.836154
9151.564139
9105.497194
9142.444628
9194.121861
9169.981977
9112.828566
9125.502005
9179.570875
9170.652529
9119.869366
9124.943212
9181.537829
9193.920695
9132.699267
9117.947116
9169.065555
9189.472698
9135.023848
9110.034598
9154.380459
9165.757497
9090.45447
9013.676228
9043.135827
9093.27079
9070.986101
9048.232025
9125.122026
9285.898123
9375.729784
9408.720959
9586.730252
9718.046751
9694.756233
9614.111139
9579.868267
9582.438717
9548.821694
9451.748067
9404.809404
9427.161148
9412.386645
9346.560758
9310.417987
9343.431514
9367.414936
9313.591935
9264.932187
9285.741661
9317.995229
9275.772783
9222.1733
9246.715515
9289.116775
9270.162495
9213.701989
9210.729207
9255.946786
9253.577501
9195.373558
9188.489221
9241.060524
9243.027478
9179.839096
9172.351262
9223.782626
9243.094533
9193.093681
9166.808029
9212.651457
9244.346231
9189.539753
9149.999517
9199.1063
9223.71557
9150.468904
9023.712161
8870.982691
8627.415732
8464.180942
8467.310186
8568.45183
8698.315465
8760.00628
8761.168571
8803.905106
8895.010816
8936.205081
8906.924296
8918.793073
8992.665588
9029.903594
8999.929905
8983.546076
9044.722801
9090.096842
9053.775257
9026.059094
9066.336938
9118.036523
9091.34854
9051.853007
9078.742156
9128.89947
9115.95781
9064.05706
9064.995833
9108.961714
9091.259133
9036.050324
9041.817074
9109.989895
9131.671087
9081.647883
9066.448696
9136.297898
9167.188009
9111.822738
9083.65954
9124.384418
9157.465
9120.718732
9078.004548
9111.532165
9160.549541
9128.988877
9091.86263
9120.517566
9170.853695
9158.247311
9107.553554
9117.298915
9171.792468
9172.239503
9116.226031
9114.370837
9170.496067
9182.230733
9129.748837
9105.720711
9159.878988
9181.917808
9123.959735
9077.848086
9084.285389
9084.039519
8991.615056
8921.005895
9068.192132
9301.298475
9423.517814
9449.08821
9533.376638
9607.517374
9563.573845
9486.482678
9482.749937
9447.881216
9349.712354
9210.12571
9136.342601
9140.567081
9126.239613
9060.793705
9027.646068
9060.123153
9081.647883
9030.127112
8992.531478
9029.545966
9064.70526
9028.093103
8981.243847
9006.702483
9047.114437
9015.307905
8960.926111
8973.398384
9021.365228
9004.243792
8945.637518
8941.502445
8994.811355
8988.888143
8929.812483
8908.578325
8956.411058
8971.230265
8917.384913
8886.114822
8931.108884
8956.522817
8906.678427
8866.601749
8906.141985
8942.865901
8906.07493
8864.098354
8886.494802
8935.646288
8908.667732
8862.399621
8880.929217
8934.327535
8927.554956
8882.359729
8894.474375
8949.236149
8964.971777
8926.213852
8919.776549
8981.489716
9006.546021
8979.23219
8969.486829
9025.36619
9067.454525
9031.848196
9005.428434
9053.015298
9104.714883
9078.40688
9041.101818
9076.909313
9129.033581
9106.570078
9056.703336
9073.936531
9127.714828
9116.360142
9066.851028
9063.386507
9116.628363
9127.200738
9076.194057
9063.721784
9112.828566
9130.039409
9079.457412
9048.567301
9100.400996
9133.12395
9088.621627
9048.835522
9086.565266
9128.698305
9098.769319
9053.03765
9068.616816
9119.757607
9102.479708
9049.349612
9056.658632
9110.280467
9101.697397
9045.169836
9039.626603
9097.741139
9107.799424
9046.153312
9024.919155
9079.144487
9103.574944
9061.464257
9030.417684
9070.85199
9104.223145
9070.315548
9026.282612
9062.313624
9107.665313
9075.322339
9027.958992
9056.613929
9105.385435
9083.816002
9031.64703
9043.873435
9100.490403
9099.752796
9043.068772
9043.873435
9096.73531
9104.513717
9052.165932
9037.056152
9089.292179
9109.766377
9065.889903
9035.938565
9082.653711
9112.336828
9073.198923
9037.257318
9074.629435
9117.768302
9097.182345
9050.176626
9070.896694
9119.690552
9110.772206
9064.280577
9070.963749
9121.366933
9119.936421
9064.95113
9061.75483
9119.019999
9131.268755
9083.368967
9065.934606
9111.062778
9138.220148
9092.287313
9057.485647
9096.802365
9136.432008
9101.898563
9054.646975
9087.973426
9136.610822
9104.200793
9054.646975
9079.882095
9139.851825
9120.472863
9058.826752
9062.581845
9110.481633
9104.111386
9056.12219
9053.082353
9106.257153
9116.20368
9059.631414
9039.134865
9083.41367
9109.274639
9065.331109
9031.691734
9074.025938
9117.164805
9084.128926
9043.716972
9071.768412
9121.366933
9109.16288
9066.895731
9091.370891
9147.518474
9144.791561
9091.214429
9086.408804
9128.854767
9123.490348
9063.610025
9050.556606
9096.444737
9106.525374
9048.723763
9006.747187
9037.123208
9054.825789
9013.162138
8993.045568
9037.190263
9087.526391
9059.921987
9016.313734
9044.879263
9086.945246
9057.955034
8998.834669
9002.634466
9053.954071
9047.002679
8986.116527
8987.94937
9045.393353
9062.559493
9008.512975
8992.151498
9045.10278
9061.643071
9016.537251
8989.49164
9036.810283
9070.874342
9028.6966
8991.302132
9025.142673
9059.966691
9023.578051
8976.818201
9000.108719
9042.353516
9011.932792
8920.312991
8901.828099
8911.819328
8853.704793
8858.957453
9017.721894
9241.172283
9340.101104
9347.298366
9378.680215
9413.437177
9401.702512
9350.829941
9269.134315
9223.939088
9168.216189
9054.155237
8963.407154
8959.719117
8986.988245
8947.224492
8890.026377
8906.656075
8955.092306
8935.869805
8874.201342
8876.749441
8934.975736
8925.856224
8861.639662
8855.671746
8913.965096
8919.53068
8862.64549
8842.975955
8896.866011
8920.178881
8862.310214
8822.971144
8863.450153
8900.285828
8858.130438
8807.011999
8845.233482
8895.301389
8864.031299
8813.359894
8827.687362
8875.743613
8856.342299
8798.965371
8799.34535
8853.973014
8849.301499
8792.013978
8790.337597
8847.602766
8856.342299
8808.286048
8794.360911
8848.921519
8881.063328
8833.655278
8809.515394
8851.089639
8895.18963
8864.590092
8834.459941
8887.098299
8947.626823
8925.364485
8883.924351
8910.902907
8977.242884
8967.050489
8930.17011
8944.207006
9000.779271
8996.599495
8950.040811
8940.831893
8990.162193
9007.596553
8963.340099
8944.318765
8998.007655
9023.645106
8984.708367
8947.649175
8989.670454
9024.427417
8988.172887
8948.476189
8980.707405
9029.613022
9005.495489
8958.892102
8978.427527
9037.972574
9023.265126
8975.700614
8983.747242
9043.225234
9035.089199
8964.480038
8945.659869
8987.815259
8987.748204
8907.348979
8874.514267
8930.661849
8967.743393
8923.419884
8890.361654
8938.596718
8989.223419
8966.022309
8933.522872
8971.789059
9023.82392
9003.237963
8963.697727
8982.897876
9043.091123
9037.637298
8987.614094
8986.474155
9047.740286
9061.039574
9005.875469
8992.151498
9047.852045
9069.980272
9021.186414
8996.823012
9048.455542
9077.803383
9034.32924
8995.459556
9033.703391
9076.886961
9042.621737
8998.566449
9031.065885
9074.540028
9054.222292
9007.55185
9021.119359
9080.753813
9076.149354
9019.890013
9024.650934
9083.994816
9093.650769
9042.219405
9029.389504
9081.469069
9105.608953
9055.228121
9032.317583
9074.495324
9110.302819
9068.79563
9036.452655
9076.305816
9115.667238
9080.530295
9041.682964
9070.427307
9121.501043
9100.892735
9043.828731
9055.585749
9107.978238
9099.372816
9043.247586
9041.682964
9097.919953
9109.319342
9052.970595
9039.492493
9087.749909
9105.608953
9056.010432
9027.28844
9075.009415
9112.649752
9066.783973
9027.15433
9073.645958
9122.48452
9087.839316
9040.274804
9061.531313
9107.777072
9090.901505
9053.417629
9082.318435
9155.810971
9191.327893
9218.3288
9268.016728
9347.901863
9405.099977
9410.062064
9432.190291
9499.245524
9509.147347
9440.058105
9380.490706
9404.451776
9414.75593
9360.955281
9301.857269
9321.549156
9346.046668
9303.377188
9241.060524
9249.174207
9287.596856
9260.618301
9195.351207
9195.552372
9243.027478
9237.506597
9172.351262
9159.476657
9201.274419
9204.515422
9132.296936
9081.35731
9100.713921
9074.785897
8994.923114
9033.971612
9241.038172
9411.917259
9438.895814
9438.337021
9494.663417
9514.042379
9487.600265
9441.041582
9392.046558
9360.865874
9279.70669
9173.893532
9133.481578
9158.068497
9140.634136
9081.156144
9064.213522
9114.884927
9124.295011
9065.331109
9044.208711
9093.471955
9123.736217
9069.287368
9037.391429
9085.380624
9120.629325
9082.720766
9041.63826
9078.719804
9118.796482
9083.592484
9028.406027
9051.316565
9099.68574
9078.295121
9024.740341
9024.919155
9077.177534
9074.629435
9016.984286
9008.356513
9060.793705
9070.673176
9020.471158
8993.000864
9032.943431
9058.603234
9012.066902
8973.845419
9015.442016
9053.216464
9018.235984
8977.421698
9011.977495
9057.731516
9034.932737
8989.223419
9008.691789
9065.264054
9062.715955
9009.630562
9023.153367
9088.53222
9106.905354
9060.86076
9056.278653
9131.425218
9167.031546
9120.338752
9103.060854
9164.416392
9196.535849
9151.765305
9119.690552
9164.12582
9214.037265
9178.766212
9127.513662
9157.84498
9211.243297
9192.221962
9139.65066
9152.011174
9205.253029
9201.721454
9142.243462
9141.57291
9195.038282
9197.765195
9145.372706
9135.314421
9193.183087
9215.870108
9161.175389
9134.375648
9180.621407
9212.472643
9167.880913
9132.207529
9177.805087
9211.578573
9160.661299
9094.455432
9093.539011
9100.915086
8953.505332
8630.679087
8421.377351
8470.573541
8543.417876
8568.45183
8636.982278
8754.88773
8813.717522
8805.156804
8827.597955
8914.345075
8964.770611
8939.826064
8925.476244
8994.252562
9052.858836
9030.797664
8998.387635
9048.164969
9103.239668
9083.190153
9044.812208
9068.974444
9124.630287
9124.295011
9075.702319
9096.400034
9149.038392
9142.042296
9086.22999
9089.359234
9139.628308
9152.234692
9101.228011
9093.941342
9148.814875
9171.747765
9123.89268
9096.355331
9147.384363
9181.671939
9142.109351
9107.195927
9141.617613
9187.036358
9158.023793
9107.888831
9133.816854
9190.836154
9181.56018
9129.212395
9139.985936
9196.759367
9196.42409
9148.479599
9144.232767
9198.703968
9211.131538
9156.705041
9136.342601
9181.04609
9214.86428
9170.116087
9144.992726
9195.77589
9238.467722
9198.167527
9154.559273
9178.654454
9221.748617
9194.50184
9148.680764
9168.216189
9214.685466
9198.435747
9141.729372
9149.39602
9207.868184
9209.09753
9145.082133
9136.186139
9186.29875
9198.614561
9148.36784
9132.74397
9181.627236
9188.511573
9122.663334
9093.807232
9153.531093
9198.838079
9168.596169
9129.681781
9169.669052
9226.353076
9201.855564
9148.211378
9157.800276
9212.56205
9199.508631
9138.041334
9144.568043
9205.700064
9211.399759
9154.000479
9152.994651
9206.661189
9224.09555
9172.284206
9147.227901
9189.785622
9214.707817
9173.714718
9131.447569
9178.22977
9218.038227
9179.950855
9127.73718
9157.375593
9200.469756
9163.790544
9099.395168
9098.277581
9117.321267
9059.631414
8944.877558
8998.544097
9228.83412
9414.644172
9458.498294
9519.116225
9617.419197
9627.812758
9543.14435
9510.935487
9497.770309
9423.026076
9293.832993
9178.162715
9157.241482
9166.316291
9104.111386
9054.334051
9084.263037
9126.261965
9102.256191
9044.566339
9055.98808
9112.783863
9105.564249
9046.622699
9042.979365
9096.802365
9104.200793
9046.220368
9034.128074
9083.704243
9099.708092
9044.365173
9009.898783
9059.519656
9088.554572
9040.677135
8996.130108
9032.854025
9068.616816
9027.713123
8981.914399
9005.11551
9048.164969
9021.097007
8967.072841
8982.719062
9034.798626
9024.807397
8967.586931
8968.838628
9021.499338
9035.983269
8983.970759
8958.534474
9019.97942
9052.031821
9007.909478
8981.489716
9029.255394
9081.111441
9046.041554
9010.479928
9062.13481
9128.407732
9115.242555
9066.783973
9099.819851
9173.312387
9169.445535
9124.607936
9149.954814
9207.82348
9208.896364
9160.214264
9164.796372
9223.290887
9229.34821
9175.771079
9158.426125
9209.768082
9228.007105
9178.676805
9149.708945
9197.049939
9232.991544
9196.871125
9154.961604
9188.064538
9229.102341
9202.414358
9149.463075
9179.950855
9233.282117
9215.244259
9160.214264
9166.18218
9221.078065
9219.714608
9166.360994
9163.812895
9216.831233
9226.442483
9163.74584
9142.623442
9192.512535
9217.524137
9175.301692
9138.600128
9174.206456
9208.561088
9172.753593
9127.826587
9156.816799
9204.895402
9182.364843
9130.82172
9153.687555
9206.661189
9192.289018
9133.325116
9136.700229
9197.362864
9199.285114
9144.14336
9130.754665
9193.250143
9212.025608
9151.362974
9131.089941
9184.823535
9217.81471
9170.384308
9135.225014
9177.089831
9218.507614
9184.264741
9135.023848
9167.769154
9216.518309
9180.733166
9130.374686
9145.819741
9203.017855
9186.499916
9116.538956
9117.23186
9187.259875
9199.463928
9135.582642
9112.11331
9172.731241
9192.221962
9135.068552
9107.955886
9154.849846
9181.448422
9132.09577
9095.461261
9136.789636
9178.60975
9139.740066
9088.800441
9116.740121
9167.255064
9147.630232
9090.342711
9098.903429
9149.552482
9146.400886
9091.817926
9086.788784
9134.822683
9139.91888
9084.151278
9071.410784
9118.975296
9135.068552
9082.25138
9051.987118
9100.043368
9130.441741
9090.32036
9047.717935
9081.178496
9120.316401
9088.9122
9043.359344
9062.693603
9119.80231
9094.611894
9025.142673
9036.273841
9099.797499
9094.589543
9029.501263
9016.917231
9060.078449
9044.365173
8960.27791
8931.175939
8975.5218
8979.656873
8882.426784
8805.760301
8831.688324
8860.253854
8828.626135
8801.692283
8850.97788
8908.153642
8896.441328
8865.797086
8908.086587
8985.535382
9004.757882
9007.998885
9109.609915
9261.065335
9367.817267
9411.336113
9436.057143
9481.654701
9479.307768
9395.332264
9347.23131
9364.77743
9355.4344
9272.375318
9213.143195
9232.790379
9244.21212
9174.072346
9095.237743
9082.407842
9085.447679
9021.789911
8917.139043
8911.551107
9065.398164
9217.054751
9305.567659
9368.800744
9482.526419
9522.468987
9426.915279
9396.516907
9451.636309
9384.782241
9225.459006
9124.630287
9107.419444
9080.597351
9005.294324
8952.544207
8971.878466
9006.836594
8956.656928
8903.415072
8938.507311
8984.641312
8949.280852
8897.156584
8910.522927
8955.092306
8932.494692
8865.394755
8866.624101
8919.865956
8901.403415
8796.819603
8707.457329
8504.212916
8086.81644
7915.959706
8005.523146
8169.853171
8303.315437
8332.417409
8360.312386
8460.425849
8539.327507
8542.456751
8522.362533
8579.515943
8650.996822
8648.471075
8616.843357
8651.063877
8718.834367
8723.952916
8685.239695
8706.518555
8779.988739
8808.263696
8775.160763
8776.367757
8839.198511
8854.263586
8800.909972
8786.895429
8848.362726
8880.482183
8846.932214
8830.369571
8879.386947
8931.287698
8900.196421
8863.316043
8902.900982
8950.621957
8934.081666
8890.629875
8908.980657
8966.402288
8965.53057
8909.360636
8911.215831
8966.446992
8971.409079
8916.669657
8905.672599
8960.233207
8987.837611
8938.99905
8909.159471
8960.479076
8995.660722
8952.164227
8921.117654
8963.898893
9002.366245
8964.547093
8919.485977
8948.140913
9003.126204
8983.72489
8933.075837
8955.137009
9001.91921
8993.693768
8940.586023
8942.642384
8996.465385
8999.549925
8947.313898
8938.149683
8985.423623
9006.814242
8949.929053
8925.588003
8973.823067
9015.218498
8977.198181
8935.400419
8968.883332
9014.570298
8983.255504
8933.031134
8968.033966
9026.103798
9003.081501
8950.689012
8974.448916
9028.204862
9016.13492
8962.58014
8960.344965
9016.827824
9026.126149
8971.610245
8955.561692
9007.440091
9033.099894
8986.138879
8952.812428
8999.929905
9039.179568
8999.505222
8959.24973
8992.240905
9040.163045
9012.983324
8958.556826
8988.128184
9036.854987
9017.051341
8967.743393
8983.188448
9038.844292
9041.884129
8980.126259
8977.689919
9031.64703
9047.337955
8990.966855
8970.291492
9027.66842
9053.417629
9018.884184
8989.581047
9032.652859
9072.77424
9035.558586
8995.101928
9030.149463
9080.150316
9058.603234
9018.660667
9040.09599
9100.535107
9094.723653
9045.214539
9045.99685
9096.109461
9103.26202
9059.899635
9056.301004
9109.006418
9121.925726
9068.79563
9052.031821
9095.394205
9134.979145
9098.52345
9077.289292
9124.674991
9159.297843
9122.819796
9091.169726
9126.261965
9175.189933
9141.774075
9087.213467
9101.049197
9154.358107
9143.003421
9086.051176
9092.667293
9146.646756
9152.189988
9096.847069
9089.403938
9141.103523
9148.613709
9094.544839
9073.087165
9129.078284
9153.307575
9101.138604
9075.635263
9120.495215
9161.82359
9125.94904
9075.72467
9090.476822
9121.054008
9072.282502
8998.119414
8957.998032
8993.246733
9069.265016
9177.246294
9330.646316
9452.016288
9499.849021
9470.769402
9431.229166
9487.175582
9505.705178
9390.325474
9288.736795
9279.684339
9254.091591
9159.588416
9097.785842
9125.569061
9163.589378
9125.524357
9076.797554
9105.027807
9156.258006
9132.878081
9080.46324
9096.467089
9144.568043
9135.895566
9086.408804
9089.515697
9138.577776
9148.859578
9097.450566
9087.191115
9133.906261
9141.70702
9084.732423
9057.060964
9092.644941
9109.811081
9068.527409
9028.204862
9066.046365
9099.708092
9054.356403
9000.868678
9022.79574
9069.734403
9048.366135
8986.697672
8992.956161
9042.577033
9031.468216
8970.604416
8966.491695
9020.739379
9016.78312
8968.324538
8960.501428
9021.454635
9043.605214
9000.175774
8981.623826
9033.725743
9069.354423
9039.000754
9011.753978
9054.423458
9104.848993
9080.798516
9039.626603
9076.842258
9136.342601
9120.741084
9076.127002
9093.159031
9149.328965
9145.238596
9093.717825
9098.14347
9156.235654
9164.952834
9114.884927
9099.618685
9146.400886
9172.641834
9119.198813
9087.816964
9133.101598
9173.35709
9132.766322
9095.371854
9134.174482
9175.480506
9144.14336
9102.010322
9125.837281
9171.010157
9157.420296
9108.380569
9114.594354
9167.769154
9162.538846
9114.884927
9106.391264
9160.482485
9177.71568
9127.133683
9091.527354
9144.590395
9169.713756
9110.548688
9076.574037
9124.809101
9163.276453
9120.718732
9075.59056
9111.420406
9156.012136
9132.09577
9081.849048
9100.803328
9148.680764
9134.219186
9074.741194
9083.14545
9144.00925
9144.948023
9084.799479
9078.071604
9125.323191
9147.205549
9094.902467
9065.733441
9110.213412
9146.467942
9104.513717
9072.237798
9113.990857
9150.781828
9118.975296
9077.89279
9107.799424
9155.296881
9141.259985
9092.689644
9113.543822
9165.645738
9162.382384
9119.087055
9120.539918
9179.839096
9185.695253
9126.105502
9116.85188
9170.004328
9194.88182
9152.21234
9135.917918
9183.951817
9219.155815
9177.760384
9143.428104
9183.504782
9224.877861
9190.411471
9150.714773
9177.96155
9229.102341
9210.438634
9154.179293
9169.669052
9226.822463
9218.373503
9163.61173
9167.07625
9212.115015
9212.338532
9162.918825
9147.809046
9200.112128
9225.101379
9169.065555
9136.990802
9179.056785
9219.111111
9174.787602
9131.760494
9164.885779
9200.112128
9166.316291
9126.306668
9163.835247
9211.355056
9182.811878
9128.63125
9145.149189
9195.239448
9179.168544
9111.822738
9101.384473
9146.06561
9159.90134
9125.94904
9124.004438
9173.35709
9194.345378
9149.977165
9128.720656
9171.077212
9200.447404
9152.167636
9113.052084
9155.788619
9188.712739
9154.246349
9107.911182
9137.884872
9190.366768
9178.699157
9128.161863
9139.561253
9195.328855
9191.819631
9133.682744
9127.111331
9184.488259
9197.474622
9139.985936
9122.99861
9173.22298
9189.875029
9141.058819
9108.313514
9145.909148
9164.170523
9096.824717
9029.411856
9012.446882
9004.288495
9050.489551
9177.179238
9369.381889
9515.942277
9566.323109
9551.548606
9543.323164
9573.498019
9560.221083
9433.598451
9330.512205
9296.828127
9228.498844
9126.507834
9082.720766
9119.377627
9128.228918
9073.377737
9036.922042
9078.518638
9104.916049
9060.994871
9018.526556
9053.149408
9092.533182
9058.42442
9005.450786
9032.742266
9079.412708
9061.24074
9004.444957
9009.429396
9059.296138
9047.941452
8991.436242
8979.209838
9027.936641
9036.877339
8981.333254
8959.830875
9006.121338
9024.025085
8965.284701
8932.092361
8970.984396
9003.953219
8957.595701
8908.578325
8935.534529
8980.059204
8950.487846
8898.207116
8917.071988
8973.040756
8956.723983
8902.319837
8901.783395
8952.521855
8959.003861
8921.207061
8913.361599
8977.30994
8999.169946
8953.460628
8944.184654
9009.205879
9049.506074
9014.592649
8990.273951
9039.626603
9086.60997
9057.843275
9020.851138
9059.921987
9117.142453
9100.780976
9050.377792
9066.381641
9124.071494
9110.124005
9053.417629
9059.586711
9114.370837
9109.431101
9053.730554
9041.50415
9098.434043
9107.888831
9048.656708
9027.869585
9080.574999
9102.949095
9054.44581
9013.519766
9046.041554
9086.74408
9053.864664
9007.03776
9040.900653
9079.144487
9053.104705
9001.516879
9011.932792
9061.665423
9057.485647
9007.931829
9018.347742
9071.522542
9080.597351
9036.720876
9027.735475
9079.502115
9096.288275
9052.545911
9032.585804
9080.217371
9117.254212
9074.227103
9040.699487
9079.993854
9119.243517
9090.208601
9035.893862
9067.074545
9118.662371
9097.294104
9043.605214
9055.652804
9111.040427
9096.981179
9039.5819
9046.175664
9091.080319
9094.857764
9044.611042
9021.767559
9076.909313
9091.326188
9040.140693
9006.233097
9045.438057
9075.299987
9029.545966
8987.368225
9011.284591
9045.750981
9018.839481
8968.928035
8994.431376
9039.134865
9023.287478
8964.144762
8974.985358
9021.052303
9016.671362
8955.427582
8947.291547
9000.801623
9010.032893
8960.590835
8945.950442
8995.839536
9015.643181
8959.741468
8932.159416
8980.90857
9016.961934
8973.241922
8932.718209
8962.535436
9007.261277
8982.786117
8930.17011
8945.011669
8995.481908
8985.401271
8933.679334
8943.447047
8984.686015
8978.047547
8930.952422
8928.985468
8980.90857
8990.788041
8937.501483
8921.989372
8973.867771
8987.0553
8940.9213
8909.382988
8948.766762
8976.572332
8946.419829
8904.130328
8938.842587
8984.931884
8953.706497
8902.789224
8930.371276
8983.814297
8970.291492
8910.835852
8924.179843
8976.862905
8970.202085
8909.338285
8907.125462
8954.198236
8941.703611
8880.482183
8868.076964
8937.255613
8969.330367
8934.796922
8914.970924
8964.077707
8999.371111
8965.284701
8922.883442
8947.470361
8988.731681
8957.528646
8907.013703
8928.11375
8978.092251
8962.535436
8913.898041
8929.857186
8990.743338
8983.501373
8922.145834
8920.089474
8972.370204
8989.201068
8943.134122
8916.915526
8964.256521
8990.810393
8942.396515
8911.215831
8953.192407
8979.902742
8941.457741
8890.473412
8901.381064
8923.799863
8859.538598
8749.433905
8761.906178
8934.752218
9112.828566
9182.990692
9247.564882
9359.368308
9374.858066
9292.603647
9285.71931
9327.047685
9251.342327
9111.845089
9023.198071
9008.714141
8994.431376
8924.582174
8878.984616
8916.267325
8946.352773
8911.729921
8869.30631
8896.173107
8937.143855
8916.848471
8865.551217
8891.792165
8935.489826
8921.229413
8860.991461
8861.662014
8916.513195
8918.703666
8858.957453
8845.456999
8896.016645
8906.812538
8858.108086
8826.726237
8878.247008
8902.386892
8849.525016
8817.316153
8854.710621
8888.595866
8859.918578
8809.448339
8832.381228
8879.789278
8854.732973
8794.919705
8805.849708
8862.332566
8850.5979
8795.612609
8795.36674
8847.736877
8854.218883
8812.689342
8802.966333
8863.114877
8892.708587
8847.513359
8831.576566
8894.988465
8944.452875
8913.898041
8883.924351
8930.505387
8977.935788
8945.816332
8903.7727
8939.691954
9000.108719
8984.015463
8933.433465
8957.238073
9017.654838
9007.998885
8954.846436
8954.242939
9010.681094
9017.744245
8966.357585
8952.186579
9001.40512
9026.461426
8977.935788
8958.445067
8997.828841
9029.07658
8994.699597
8958.378012
8999.907553
9049.84135
9020.784083
8971.29732
8994.990169
9043.269937
9028.607193
8981.936751
8993.805527
9041.951185
9039.514844
8985.155402
8984.462498
9038.17374
9046.89092
8999.885201
8983.881352
9030.149463
9047.494417
9000.131071
8971.722003
9013.69858
9044.923967
9008.803547
8977.287588
9016.581955
9059.653766
9034.709219
8982.294379
9002.098024
9061.128981
9044.0746
8995.034873
9009.518803
9061.933644
9063.319452
9007.55185
8999.706387
9060.369022
9070.181438
9020.448806
8997.985303
9051.473028
9076.10465
9035.111551
9005.584896
9044.409876
9080.798516
9048.746115
9006.926001
9037.056152
9086.162935
9058.916159
9004.73553
9024.874452
9077.333996
9063.811191
9005.942524
9013.922097
9064.638205
9056.010432
8996.890068
8993.738472
9050.646013
9058.133847
9007.887126
8990.229248
9040.274804
9073.690662
9028.718952
8996.711254
9039.917176
9073.869476
9046.779161
9003.684998
9041.168873
9087.63815
9063.431211
9015.307905
9038.397257
9086.386452
9073.891827
9027.176681
9040.498321
9097.405862
9101.719749
9046.577996
9035.893862
9087.951075
9096.578848
9039.805417
9010.88226
9058.446772
9098.031711
9058.469124
9030.574147
9072.930702
9115.756645
9078.496287
9044.499283
9077.289292
9125.256136
9096.444737
9040.74419
9051.808304
9095.684778
9088.062833
9035.044495
9042.577033
9109.207584
9117.790653
9064.481743
9053.819961
9104.491365
9118.662371
9073.042461
9050.35544
9103.060854
9131.2017
9082.519601
9043.381696
9087.682854
9125.189081
9084.531258
9036.564414
9055.138714
9091.48265
9045.773333
8968.436297
8935.333363
8936.540358
8986.362396
9092.086147
9257.220835
9393.342959
9451.278681
9440.63925
9413.683047
9448.082381
9476.089117
9378.076718
9265.267463
9232.633916
9206.258858
9105.631304
9030.641202
9047.717935
9080.306778
9049.416667
8997.538268
9011.105777
9053.216464
9038.82194
8981.646178
8991.436242
9050.757772
9040.967708
8984.909533
8974.761841
9028.853062
9046.153312
8994.587838
8979.835687
9024.360362
9045.281594
9001.539231
8967.653986
9008.311809
9037.950222
8999.818146
8948.587948
8987.077652
9034.32924
8999.751091
8944.363468
8965.061184
9012.580992
8990.676283
8930.773608
8939.222567
8991.056262
8977.421698
8922.101131
8920.357695
8974.426565
8981.757937
8936.205081
8915.999104
8967.631634
8992.866754
8942.46357
8923.866919
8982.339082
9029.903594
9003.237963
8971.610245
9018.124225
9072.684833
9051.383621
9022.371056
9050.936586
9104.558421
9096.377682
9053.350574
9069.332071
9127.156034
9130.419389
9075.59056
9070.092031
9127.111331
9141.84113
9095.796537
9075.72467
9128.25127
9150.334793
9105.385435
9071.947226
9113.52147
9150.088924
9112.895621
9069.421478
9106.391264
9157.017965
9128.184215
9076.395223
9095.662426
9154.402811
9139.91888
9087.034653
9095.818889
9150.133628
9153.039354
9094.67895
9088.174592
9140.187101
9154.894549
9107.24063
9083.190153
9131.536976
9159.051974
9108.693493
9076.194057
9116.404845
9142.534035
9104.044331
9072.796592
9110.70515
9157.017965
9132.207529
9082.005511
9102.658522
9160.862465
9153.687555
9101.60799
9108.313514
9159.811933
9162.091811
9102.88204
9096.802365
9147.85375
9168.931445
9119.310572
9091.080319
9137.370782
9164.394041
9123.423293
9089.470993
9123.065665
9157.397945
9121.545747
9071.88017
9093.91899
9134.867386
9113.096787
9060.637243
9074.383566
9126.284316
9114.974334
9057.172722
9057.083316
9119.042351
9128.474787
9070.986101
9062.872417
9118.595316
9140.142398
9090.633284
9061.531313
9110.079302
9148.814875
9106.413616
9067.856856
9112.448587
9150.357145
9120.942249
9076.149354
9101.250363
9156.839151
9137.907223
9082.89958
9093.315493
9143.62927
9143.718677
9084.732423
9086.60997
9141.796427
9144.165712
9093.337845
9082.76547
9132.341639
9147.652584
9102.055025
9087.414633
9131.559328
9161.108334
9118.930592
9082.966636
9124.518529
9161.82359
9130.106465
9089.627455
9115.980162
9161.622424
9137.929575
9085.0677
9093.047272
9151.564139
9148.569006
9088.778089
9084.553609
9138.711886
9141.84113
9091.125022
9075.72467
9118.12593
9142.489331
9087.951075
9057.083316
9102.591467
9132.319287
9077.803383
9018.727722
9059.117324
9123.155072
9103.709054
9071.991929
9102.278543
9154.626328
9143.092828
9089.202772
9096.198868
9145.640927
9139.516549
9082.38549
9069.30972
9123.780921
9139.293032
9092.488479
9078.049252
9133.436875
9161.3095
9117.030694
9087.928723
9132.162825
9162.382384
9123.5127
9081.603179
9113.879098
9158.984918
9133.481578
9081.35731
9097.584676
9147.630232
9131.313459
9070.561417
9064.615853
9107.173575
9073.333034
8982.853172
8926.035038
8936.026268
9042.822903
9172.574779
9319.515147
9454.586739
9556.510694
9547.055906
9490.796565
9515.025856
9543.658441
9433.352582
9279.505525
9224.497881
9199.463928
9121.21047
9039.514844
9038.441961
9083.033691
9066.940435
9006.546021
9010.88226
9058.089144
9059.340842
9000.846326
8987.144707
9045.974499
9055.406935
9001.293361
8981.28855
9028.271917
9056.904502
9009.742321
8973.867771
9012.089254
9050.623661
9011.083425
8955.293471
8982.741413
9028.830711
8998.722911
8944.207006
8962.96012
9014.078559
8990.072786
8927.554956
8936.205081
8982.204972
8975.119469
8912.825157
8902.811575
8947.872692
8956.142838
8908.421863
8880.549238
8924.805692
8961.775477
8912.422825
8883.700834
8926.258555
8962.96012
8929.208985
8891.054558
8928.672544
8983.188448
8975.074765
8939.334326
8960.389669
9024.874452
9031.065885
8990.117489
9001.203954
9062.961824
9077.915141
9032.898728
9024.427417
9078.92097
9098.65756
9052.165932
9030.61885
9081.402013
9108.849956
9067.298063
9031.177644
9068.169781
9108.738197
9082.027862
9035.111551
9057.887978
9103.39613
9084.710072
9024.382713
9043.493455
9098.14347
9090.543877
9026.930812
9018.124225
9078.943322
9081.402013
9023.019257
9012.469234
9062.872417
9082.653711
9038.464312
9004.690826
9051.24951
9087.615798
9041.861778
8999.99696
9038.844292
9078.809211
9049.126094
8996.375978
9022.013428
9081.312606
9069.086202
9015.710237
9030.551795
9081.804345
9078.92097
9030.596498
9032.496397
9081.49142
9094.746005
9049.975461
9032.809321
9080.239723
9101.160956
9064.682909
9039.380734
9081.267903
9115.130796
9074.092993
9039.805417
9076.283464
9116.516604
9088.956903
9045.058077
9064.034708
9115.890755
9102.770281
9049.751943
9051.875359
9107.642961
9105.117214
9054.512865
9051.584786
9102.256191
9114.661409
9066.62751
9047.717935
9103.485537
9132.60986
9082.318435
9053.976423
9102.613819
9139.673011
9101.585639
9059.4526
9085.268865
9136.767284
9111.174537
9057.01626
9071.589598
9121.07636
9104.066682
9051.137751
9060.570188
9118.64002
9118.192985
9061.933644
9056.993909
9112.537993
9124.451473
9062.537141
9042.867606
9097.361159
9122.819796
9071.209618
9035.670344
9075.523505
9112.292124
9067.52158
9012.245716
9045.147484
9092.421423
9060.86076
9013.3186
9032.965783
9085.760604
9069.063851
9011.239888
9013.430359
9059.966691
9064.504095
9012.245716
9002.790928
9053.283519
9070.092031
9014.324428
8988.508164
9034.820978
9041.995888
8970.112678
8928.180805
8979.321597
9026.684943
8999.013483
8967.184599
8998.342931
9046.37683
9023.645106
8975.812373
8986.205934
9023.980382
9012.737455
8961.015518
8960.859056
9014.145614
9019.800606
8964.703556
8953.930015
9009.272934
9023.980382
8964.815314
8933.232299
8988.262294
9020.158234
8971.81141
8937.255613
8976.997015
9013.9668
8977.95814
8931.153587
8956.858093
9001.181603
8976.840553
8914.076854
8920.000067
8953.371221
8909.427692
8815.9974
8755.848855
8821.183005
8967.765745
9105.005456
9212.450291
9331.585089
9405.725826
9357.08843
9294.883525
9337.016563
9341.553967
9200.357997
9076.10465
9039.5819
9016.090216
8944.609337
8875.341281
8883.432613
8925.230375
8905.247915
8845.501702
8853.168351
8913.227488
8905.292619
8840.33845
8834.504644
8891.032206
8899.525869
8847.692173
8830.213109
8876.190648
8898.967075
8848.921519
8814.388074
8853.950662
8880.146906
8837.633888
8800.127661
8831.956545
8875.45304
8838.527958
8780.659292
8807.771958
8861.393793
8840.137284
8779.09467
8783.095632
8831.263641
8822.345295
8763.694318
8755.915911
8809.135414
8817.897298
8763.895483
8751.333803
8799.993551
8818.925478
8774.937245
8746.03644
8797.847783
8838.863234
8801.088786
8768.187018
8819.059589
8864.567741
8845.21113
8808.330751
8842.752438
8896.687197
8894.966113
8850.799066
8871.206209
8932.181767
8933.947555
8888.037072
8887.411223
8936.965041
8951.538378
8908.757139
8897.849488
8943.067067
8966.335233
8921.609392
8894.317912
8934.036962
8970.023271
8931.846491
8890.875744
8927.532605
8968.950387
8942.59768
8900.017607
8921.251764
8969.263312
8953.728849
8906.566668
8920.55886
8973.688957
8968.771573
8917.139043
8914.121558
8965.128239
8980.953274
8924.023381
8908.623029
8958.378012
8983.769594
8932.695858
8902.208078
8946.375125
8982.406137
8945.346945
8909.606506
8949.77259
8995.839536
8965.955253
8918.569555
8938.686125
8992.330312
8974.292454
8915.954401
8928.985468
8996.867716
9002.992094
8936.31684
8930.795959
8986.898838
8999.616981
8943.938785
8920.000067
8967.206951
9005.093158
8972.124335
8936.160378
8976.728794
9013.989152
8981.065033
8942.97766
8969.263312
9014.078559
8990.676283
8941.368334
8958.378012
9013.765635
9000.89103
8942.374163
8944.251709
8999.549925
9000.131071
8942.776494
8932.226471
8991.41389
9011.418702
8957.975681
8928.024343
8973.577198
9002.321542
8961.730774
8922.883442
8963.273044
9004.623771
8972.794887
8924.693933
8954.444105
9007.216574
8981.780288
8936.138026
8962.691899
9011.01637
8989.715158
8941.122465
8952.07482
9007.820071
9020.068827
8961.216684
8948.163265
9004.936696
9019.688847
8967.497524
8948.252672
8995.861887
9033.05519
8997.493565
8959.562654
8988.016425
9034.776275
9005.674303
8960.322614
8987.278818
9030.752961
9003.84146
8950.554901
8963.362451
9025.097969
9022.751036
8980.506239
8988.016425
9042.733496
9050.914234
9003.528536
8995.77248
9043.582862
9053.819961
9007.395388
8979.992149
9026.483777
9065.554627
9016.090216
8982.853172
9032.451693
9071.813115
9033.993963
8990.810393
9018.437149
9072.461316
9058.335013
9000.689864
9011.686923
9063.833542
9057.619757
9004.422606
9002.94739
9057.887978
9069.913217
9011.619867
8986.429451
9023.354533
9021.946373
8948.051506
8874.313101
8865.551217
8938.484959
9053.350574
9177.402756
9296.73872
9387.643264
9394.058215
9338.178854
9335.518996
9407.178689
9361.089392
9222.933259
9166.04807
9152.480561
9084.665368
8992.084443
8978.941617
9030.909423
9034.32924
8974.359509
8961.060221
9003.32737
9023.913327
8972.616073
8940.697782
8983.903704
9017.990114
8983.456669
8936.763875
8972.638425
9009.719969
8979.634521
8940.116637
8955.606396
9000.131071
8985.356568
8932.494692
8931.667677
8975.65591
8980.841515
8925.073913
8919.195404
8966.312881
8976.460573
8921.899965
8901.425767
8943.134122
8959.24973
8914.14391
8873.284921
8913.361599
8948.967928
8908.645381
8862.667842
8889.914619
8938.507311
8916.870823
8866.333528
8884.03611
8941.793018
8926.370314
8875.207171
8891.322779
8958.154495
8968.391594
8918.860128
8918.748369
8983.188448
9002.522707
8957.70746
8941.390686
9003.483832
9042.800551
9004.377902
8977.622864
9023.645106
9066.135772
9035.111551
8995.481908
9024.382713
9074.204752
9056.479818
9001.181603
9015.039684
9072.64013
9062.559493
9000.600457
9011.821033
9072.573074
9073.556551
9020.404103
9003.819108
9055.786914
9078.675101
9030.48474
9003.483832
9050.780124
9086.520563
9043.672269
9010.859908
9054.021127
9094.343674
9070.740231
9017.073693
9037.570243
9091.169726
9083.525429
9037.324373
9056.904502
9101.630342
9092.153203
9043.493455
9051.003641
9107.061816
9114.572002
9061.352499
9047.829693
9099.082243
9122.171595
9080.597351
9052.702374
9100.468051
9133.727447
9089.113365
9056.233949
9089.359234
9132.766322
9105.228973
9065.264054
9094.835412
9146.177369
9128.586546
9071.500191
9090.342711
9140.120046
9133.682744
9077.713976
9076.283464
9124.943212
9134.576814
9088.576923
9075.188229
9116.516604
9139.762418
9094.67895
9064.772316
9111.621572
9149.194854
9103.060854
9064.168818
9107.464148
9149.01604
9119.489386
9071.74606
9095.930647
9150.647718
9133.794502
9079.256246
9086.878191
9141.170578
9142.824607
9091.817926
9084.888886
9138.533072
9151.586491
9102.770281
9082.988987
9131.224052
9151.586491
9103.038502
9072.282502
9116.784825
9154.045183
9118.908241
9082.787822
9114.169671
9152.525264
9123.490348
9074.070641
9092.600237
9149.664241
9136.923747
9077.177534
9085.827659
9139.158921
9138.37661
9085.0677
9075.858781
9132.654564
9146.534997
9097.227049
9069.689699
9118.729427
9145.573872
9099.395168
9065.800496
9108.201755
9141.237633
9107.508851
9061.37485
9091.750871
9120.584621
9074.964711
9024.069789
9064.57115
9125.367895
9115.175499
9061.307795
9077.356348
9140.969412
9142.198758
9083.368967
9071.656653
9122.372761
9135.895566
9080.686758
9053.708202
9098.791671
9126.865462
9085.939418
9060.570188
9106.838299
9144.411581
9107.173575
9060.413725
9094.053101
9144.411581
9112.739159
9064.615853
9080.865572
9129.637078
9117.991819
9067.633339
9068.616816
9114.326133
9111.710979
9048.097914
9029.367152
9048.790818
9031.557623
8930.483035
8863.092525
8997.761786
9206.437672
9325.974801
9383.351729
9493.992864
9567.552455
9510.421397
9436.593585
9461.1358
9439.275794
9309.970952
9179.995558
9122.99861
9112.49329
9070.539066
8994.632541
8983.389614
9033.479873
9024.941507
8961.507256
8944.095247
8990.341007
9006.858946
8950.845474
8922.682276
8974.11364
9002.075672
8960.389669
8921.207061
8955.360526
8994.207858
8958.154495
8906.477261
8929.678372
8973.241922
8951.627785
8897.201287
8908.600677
8962.781306
8941.413038
8878.738746
8878.694043
8924.515119
8920.514157
8865.238293
8849.413258
8897.089529
8909.271229
8854.218883
8819.730141
8866.177066
8895.010816
8853.570682
8809.783615
8844.026487
8891.367482
8865.059479
8821.026542
8845.367592
8893.893229
8881.264494
8836.739819
8856.297595
8920.55886
8932.204119
8893.736767
8899.592924
8965.329405
8990.072786
8948.297375
8948.833817
9009.250582
9038.374905
8994.699597
8973.800716
9022.92985
9060.190208
9020.582917
8987.256466
9022.348705
9062.827714
9037.79376
8991.458594
9012.871565
9057.128019
9035.022144
8986.608265
9001.002789
9054.848141
9052.836484
9000.734568
8996.15246
9038.263147
9050.467199
9006.769539
8992.106794
9045.929795
9062.581845
9014.436187
8981.355605
9016.894879
9054.177589
9019.778254
8978.718099
9011.284591
9054.088182
9021.991077
8976.639387
8993.604361
9043.04642
9028.383676
8970.604416
8974.739489
9026.483777
9027.400199
8974.873599
8969.084498
9022.751036
9041.213577
8990.542172
8969.933864
9017.051341
9041.370039
8996.197164
8964.971777
9007.03776
9050.668365
9014.927925
8971.498486
9006.680132
9052.389449
9030.551795
8985.64714
9005.897821
9056.278653
9040.453618
8982.897876
8986.094175
9040.185397
9043.314641
8985.423623
8975.208876
9024.136844
9038.844292
8986.585913
8961.663718
9007.954181
9043.135827
8996.085405
8961.417849
9001.092196
9040.945356
8998.320579
8955.181713
8992.062091
9039.71601
9014.592649
8961.797829
8984.976588
9034.575109
9024.449769
8972.973701
8978.293416
9027.131978
9032.272879
8985.378919
8976.281759
9025.924984
9046.488589
8994.073748
8973.174867
9018.884184
9047.516769
9007.283629
8974.024233
9010.010542
9045.10278
9018.370094
8968.816277
8992.889105
9041.146522
9017.632487
8966.312881
8986.54121
9035.647993
9015.531423
8956.925149
8960.881407
9014.637353
9028.18251
8973.08546
8953.415925
9002.455652
9024.673286
8968.436297
8940.742486
8985.64714
9014.950277
8970.582064
8933.835797
8967.139896
9001.807451
8965.821143
8915.619125
8930.706552
8958.109791
8921.721151
8883.119688
8914.300372
8973.465439
8967.899855
8922.458759
8935.936861
8988.575219
8987.010597
8926.05739
8908.935953
8962.893064
8974.761841
8919.888308
8892.127441
8943.514102
8971.185562
8936.31684
8903.727997
8936.853282
8978.762803
8951.717192
8905.069101
8925.699762
8980.439184
8961.104925
8909.651209
8916.289677
8970.470306
8965.105887
8908.846546
8907.840718
8958.981509
8956.992204
8886.070119
8856.901092
8880.996273
8863.003118
8758.59812
8706.630314
8854.889435
9080.530295
9193.965399
9221.055713
9322.353819
9393.655884
9336.994211
9272.934112
9286.568676
9259.008975
9150.558311
9011.955143
8953.527683
8963.697727
8926.817349
8853.771848
8843.713563
8887.970017
8892.552125
8841.120761
8818.903127
8870.379194
8894.742596
8841.076057
8816.489138
8859.963281
8892.038034
8844.071191
8802.631057
8833.968202
8882.672654
8845.72522
8792.505716
8804.240382
8849.904996
8831.285993
8775.607798
8781.463955
8829.877833
8826.905051
8765.370699
8754.977137
8798.741853
8806.944943
8748.271614
8720.823672
8763.783725
8776.054832
8725.137559
8696.527326
8740.78378
8775.25017
8729.339687
8692.235791
8729.853777
8773.439678
8749.299794
8701.131785
8726.724532
8784.257923
8772.389146
8725.763407
8747.846931
8814.432778
8823.976973
8771.53978
8764.342518
8832.26947
8861.639662
8822.993496
8810.74474
8862.198456
8903.795052
8862.198456
8830.816606
8874.402508
8911.282886
8882.315026
8842.238348
8870.133325
8915.216793
8893.937933
8845.546406
8865.260645
8915.060331
8900.419939
8845.434647
8843.579452
8911.059369
8923.464587
8871.519133
8859.538598
8916.803767
8937.0768
8891.412186
8865.551217
8912.534584
8943.670564
8900.352883
8880.32572
8924.023381
8968.548056
8931.399456
8882.382081
8912.802805
8965.262349
8940.228395
8883.901999
8905.449081
8954.846436
8945.592814
8895.703721
8897.223639
8955.472285
8968.659814
8914.747407
8903.1245
8953.080649
8971.565541
8927.08557
8903.280962
8950.867826
8982.607303
8942.955308
8911.171128
8951.426619
8995.437204
8967.899855
8926.1915
8950.890178
9000.980437
8980.90857
8927.59966
8942.418866
8991.972684
8983.859001
8923.285773
8921.050599
8980.90857
8992.017387
8935.467474
8919.597735
8975.208876
8996.487736
8945.92809
8920.469453
8971.945521
9005.76371
8959.540303
8914.747407
8946.084553
8989.044605
8955.829913
8910.344113
8935.42277
8993.514954
8983.970759
8925.967983
8936.518006
8984.864829
8980.752108
8926.996163
8928.069047
8982.294379
8988.686977
8936.719172
8925.543299
8976.460573
8991.503297
8953.304166
8923.665753
8970.626768
8999.952257
8963.071878
8922.503462
8960.166152
9008.378864
8980.729756
8930.885366
8952.901835
9003.908515
8992.509126
8936.741523
8937.680297
8984.529553
8981.355605
8943.983489
8945.011669
9004.690826
9016.514899
8966.379937
8951.828951
9013.810338
9046.399182
8995.548963
8953.147704
8998.208821
9049.796647
9013.095082
8961.283739
8999.549925
9049.930757
9028.853062
8978.47223
8999.214649
9052.501208
9034.552757
8983.456669
9000.086367
9050.467199
9051.294214
9001.852155
8989.290475
9037.570243
9055.764563
9006.814242
8989.089309
9032.697562
9052.300042
8996.644198
8942.910605
8960.65789
8952.96889
8871.250912
8874.894246
9057.39624
9267.212065
9324.477234
9311.312057
9364.375098
9407.022227
9381.652997
9349.891168
9315.469481
9290.681397
9229.951707
9119.198813
9048.612004
9068.236836
9067.052194
9000.89103
8974.135992
9022.594574
9049.975461
9006.546021
8967.564579
9002.81328
9040.207748
9004.35555
8960.724945
8992.531478
9042.040591
9015.598478
8962.043698
8979.075727
9028.406027
9020.091178
8961.775477
8960.009689
9011.39635
9014.167966
8959.495599
8948.655003
8996.867716
9014.302077
8960.65789
8928.605488
8971.16321
9008.557678
8964.815314
8920.134177
8955.874617
8994.252562
8952.946538
8907.907773
8933.277003
8979.098079
8960.792
8909.874727
8923.442235
8979.008672
8973.487791
8923.576346
8927.040866
8984.820126
8996.711254
8949.213797
8943.827026
9004.199088
9038.911347
8990.586876
8973.107812
9027.064923
9063.587673
9038.397257
9005.383731
9040.967708
9087.727557
9056.077487
9017.230155
9040.341859
9093.360197
9077.401051
9030.507091
9042.01824
9089.94038
9088.621627
9030.820016
9028.875414
9083.436022
9093.203735
9041.772371
9026.550833
9074.897656
9098.65756
9045.818036
9012.580992
9060.547836
9096.444737
9059.743173
9013.229193
9051.093048
9093.986046
9061.218388
9011.373998
9029.233042
9083.503077
9065.644034
9008.915306
9017.766597
9073.333034
9073.243627
9017.67719
9008.222402
9055.98808
9063.140638
9009.250582
8997.515917
9051.7636
9070.784935
9028.003696
9002.165079
9048.522597
9079.56917
9041.414743
9005.361379
9042.979365
9084.263037
9052.255339
9005.920172
9031.825844
9085.0677
9071.544894
9017.744245
9029.970649
9089.605104
9087.057005
9033.323411
9032.228176
9091.393243
9098.746967
9045.48276
9037.167911
9089.359234
9111.532165
9058.580882
9033.032838
9070.650824
9105.854822
9071.030804
9025.634411
9055.272824
9104.357255
9080.060909
9034.686868
9063.274749
9113.90145
9099.864554
9047.069734
9053.68585
9117.164805
9119.6682
9066.001662
9060.570188
9117.187156
9138.711886
9086.74408
9054.043478
9104.826642
9137.527244
9090.275656
9056.435115
9096.891772
9139.65066
9097.338807
9059.117324
9091.706168
9130.531148
9108.291162
9068.505057
9083.771298
9133.325116
9119.15411
9067.342766
9076.663444
9126.932517
9129.547671
9076.216409
9060.190208
9110.43693
9132.028715
9078.786859
9055.183417
9109.587563
9133.63804
9088.688682
9061.710127
9090.521525
9114.907278
9067.052194
9028.115455
9064.034708
9121.545747
9103.820813
9058.335013
9079.368005
9140.231805
9130.531148
9076.10465
9070.449659
9124.630287
9127.178386
9068.840333
9064.034708
9112.225069
9123.155072
9075.501153
9058.692641
9108.067645
9132.051066
9092.711996
9062.403031
9103.172613
9144.500988
9109.319342
9067.432173
9094.097804
9139.225976
9115.644886
9058.692641
9071.075508
9128.474787
9120.450511
9051.338917
9039.71601
9065.621682
9039.224272
8935.936861
8874.268398
9009.183527
9205.476547
9316.251792
9378.277883
9492.741167
9562.411554
9504.766405
9446.137779
9477.564332
9449.177617
9313.122548
9181.493125
9125.837281
9125.367895
9081.35731
9004.802585
9006.590725
9054.781086
9041.750019
8987.211762
8984.820126
9034.84333
9043.493455
8990.430414
8974.650082
9022.102835
9038.844292
8986.854134
8958.847399
8999.751091
9033.122245
8993.939637
8948.856169
8978.315768
9021.566394
8990.810393
8936.205081
8948.409134
8994.766652
8976.840553
8925.520948
8928.62784
8975.074765
8967.095192
8904.264439
8896.955418
8943.558805
8943.558805
8882.672654
8860.499723
8909.494747
8935.80275
8882.046805
8844.45117
8885.06429
8919.933012
8882.538543
8839.779656
8878.202305
8929.723076
8902.74452
8862.265511
8901.291657
8958.668585
8955.248768
8921.519985
8942.418866
9002.790928
9012.536289
8970.023271
8974.068937
9036.676173
9058.580882
9016.447844
8999.080539
9056.971557
9083.123098
9039.648955
9011.150481
9057.485647
9094.924819
9058.983214
9015.687885
9046.354478
9093.673121
9073.713013
9024.270955
9035.268013
9087.168764
9076.127002
9024.494472
9033.636336
9088.442813
9089.806269
9031.758789
9022.706333
9079.345653
9093.561362
9046.019202
9022.080484
9068.907388
9092.287313
9050.556606
9019.890013
9058.335013
9097.070586
9058.022089
9010.792853
9041.750019
9081.089089
9060.145504
9008.781196
9027.064923
9082.519601
9068.169781
9008.624734
9011.508109
9068.013319
9072.841295
9022.348705
9010.614039
9060.637243
9076.551685
9030.507091
9009.317638
9055.451638
9080.597351
9043.828731
9005.003751
9043.068772
9084.061871
9048.276728
9002.030969
9027.511958
9076.506981
9057.217426
9006.52367
9024.047437
9078.92097
9069.197961
9007.931829
9011.709274
9069.354423
9073.444792
9019.912364
9009.071768
9060.86076
9075.657615
9020.649972
9001.896858
9055.384583
9084.30774
9044.923967
9010.256411
9043.784028
9085.33592
9055.876321
9012.379827
9038.956051
9088.263999
9064.369984
9011.955143
9021.029952
9080.038557
9076.730499
9021.700504
9018.57126
9073.109516
9085.604141
9031.222347
9017.118396
9073.064813
9093.427252
9035.692696
9010.077597
9053.082353
9085.402976
9045.505112
9006.501318
9037.771408
9081.983159
9054.222292
9010.077597
9033.613984
9083.324263
9063.252397
9014.771463
9022.326353
9075.054118
9070.069679
9009.898783
8998.342931
9039.157216
9025.656763
8969.911512
8976.326463
9039.894824
9069.846162
9020.515862
8996.599495
9045.616871
9081.49142
9037.27967
8993.358492
9025.522652
9067.789801
9032.40699
8980.170963
9000.220478
9053.372926
9045.527464
8997.247696
8998.208821
9052.210635
9046.063905
8995.839536
8988.128184
9037.41378
9049.282557
8995.325446
8971.073803
9017.341914
9036.89969
8990.720986
8956.768686
8993.961989
9026.237908
8979.545114
8920.380046
8930.17011
8940.720134
8866.579398
8756.362946
8828.894356
9055.339879
9226.822463
9276.957426
9352.081639
9460.688765
9455.391402
9365.559741
9355.009717
9354.965014
9261.221798
9119.645848
9036.609118
9024.807397
9015.866699
8958.243902
8912.154604
8945.726925
8976.617035
8933.120541
8879.699872
8901.649285
8947.492712
8922.704628
8868.613406
8888.595866
8939.691954
8921.140006
8862.37727
8861.147924
8912.244011
8910.500575
8855.470581
8845.34524
8890.942799
8903.102148
8852.095467
8818.858423
8854.911787
8880.772755
8838.527958
8794.316208
8823.909917
8856.968147
8815.48331
8766.041251
8782.738004
8818.880775
8793.936228
8739.219158
8753.278405
8810.968257
8796.886658
8741.566091
8741.409629
8796.216106
8797.221934
8740.672021
8732.401876
8794.405615
8814.946868
8775.138411
8764.208408
8821.786502
8862.757249
8830.235461
8803.212202
8854.688269
8909.517099
8881.21979
8838.974993
8874.223694
8934.640459
8919.597735
8863.494857
8883.723186
8945.011669
8936.83093
8879.29754
8879.074023
8937.523834
8942.664736
8894.943761
8872.077927
8921.877613
8940.407209
8889.959322
8861.840828
8902.722168
8936.048619
8890.361654
8857.839865
8896.776604
8936.160378
8905.985523
8867.093488
8892.820345
8941.971832
8921.654096
8875.07306
8885.846601
8937.121503
8933.791093
8880.795107
8876.8612
8930.93007
8931.712381
8882.225619
8863.226636
8913.272192
8933.791093
8889.221715
8863.092525
8908.623029
8942.396515
8900.643456
8862.712546
8898.922372
8940.049582
8913.652171
8863.830133
8885.019587
8940.876596
8927.800826
8876.727089
8885.287808
8942.485922
8942.441218
8889.020549
8884.505497
8936.875634
8957.215721
8905.717302
8886.874781
8937.769704
8964.234169
8915.730884
8887.187706
8927.644363
8965.575274
8925.856224
8888.528811
8919.262459
8962.513085
8941.323631
8896.754253
8921.207061
8974.270102
8953.99707
8902.297485
8913.048674
8968.078669
8969.419774
8916.692009
8913.898041
8963.965948
8977.667567
8926.616183
8910.522927
8956.880445
8987.144707
8943.804675
8912.087549
8945.235186
8981.892047
8945.79398
8905.69495
8937.389724
8984.417794
8959.428544
8909.874727
8933.321706
8986.518858
8970.894989
8921.140006
8931.332401
8985.378919
8977.667567
8924.78334
8921.788206
8975.767669
8988.754033
8939.759009
8915.753235
8963.563617
8992.397367
8949.12439
8915.105035
8952.96889
8995.079576
8966.737564
8920.849433
8942.642384
8992.106794
8971.476134
8918.994238
8940.988355
9002.276838
8991.391539
8928.739599
8937.009744
8991.525649
8991.972684
8931.891195
8919.888308
8979.053376
8990.273951
8925.230375
8903.973866
8966.04466
9000.153422
8963.585968
8934.595756
8971.744355
9009.272934
8983.948408
8936.562709
8955.248768
9000.846326
8986.697672
8934.282831
8944.631689
9003.237963
8987.547039
8938.61907
8943.827026
8995.12428
9001.047492
8953.930015
8937.34502
8989.312826
9004.154385
8956.098134
8928.091398
8970.157381
9004.534364
8963.697727
8925.81152
8961.149628
8998.991132
8958.512122
8906.566668
8924.291602
8947.023326
8907.661904
8808.397807
8765.035422
8866.288825
9012.692751
9118.64002
9199.419224
9304.874755
9354.27211
9292.313074
9251.677603
9314.620115
9301.544345
9169.937273
9073.333034
9067.879208
9044.164007
8966.022309
8909.382988
8928.404323
8965.172942
8930.639497
8874.670729
8899.078834
8948.386782
8932.405285
8875.207171
8880.236313
8936.227433
8935.065143
8878.694043
8876.458869
8923.665753
8928.292564
8877.621159
8860.812647
8913.942744
8935.42277
8887.567686
8856.834037
8899.481165
8935.311012
8892.395662
8850.5979
8884.281979
8929.678372
8900.934029
8847.580415
8869.462773
8924.693933
8899.011779
8839.913766
8849.748534
8899.458814
8899.883497
8849.256796
8846.775752
8895.211982
8912.668695
8853.101296
8835.421066
8882.359729
8907.304276
8866.86997
8840.85254
8889.713453
8938.216738
8902.945686
8869.909807
8913.719227
8967.341062
8946.598643
8902.051616
8926.526776
8988.396405
8983.031986
8929.387799
8935.959212
8994.923114
8997.56062
8943.581157
8939.379029
8997.158289
9014.056207
8958.512122
8939.200215
8995.817184
9025.947335
8983.07669
8946.464532
8982.69671
9028.987173
8995.660722
8951.113695
8983.233152
9033.703391
9007.976533
8959.205027
8973.711309
9028.048399
9021.991077
8965.91055
8970.805582
9033.144597
9039.246623
8984.306036
8975.432393
9026.729647
9046.555644
8997.672379
8970.64912
9016.693713
9044.365173
9000.466347
8965.731736
9007.060111
9040.498321
9009.272934
8971.185562
9000.779271
9043.024068
9019.554737
8965.307053
8981.556771
9035.558586
9026.215556
8971.16321
8975.342986
9032.049362
9037.078504
8980.014501
8969.129201
9024.069789
9040.677135
8993.783175
8964.323576
9009.697617
9038.17374
8999.684036
8963.451858
9004.35555
9047.963804
9018.05717
8976.728794
9004.154385
9052.52356
9031.468216
8986.809431
9004.042626
9058.782048
9049.863702
9001.338065
9003.32737
9058.737345
9066.985138
9014.21267
9006.031931
9060.190208
9078.876266
9031.51292
9005.517841
9053.507036
9089.180421
9049.617833
9016.671362
9050.35544
9092.533182
9058.223254
9016.470196
9040.475969
9092.779051
9081.938455
9022.527519
9030.462388
9092.711996
9088.867496
9033.591632
9030.931774
9085.671197
9096.578848
9043.158179
9024.270955
9071.768412
9097.316456
9054.714031
9029.680077
9073.601255
9106.570078
9063.386507
9027.176681
9065.062888
9105.206621
9075.657615
9029.188338
9055.6081
9101.33977
9066.247531
8996.353626
9010.189356
9084.218333
9090.007435
9047.002679
9046.287423
9102.36795
9119.131758
9067.298063
9047.762638
9096.131813
9116.248383
9067.432173
9037.79376
9076.10465
9111.442758
9074.227103
9034.016315
9078.384528
9124.40677
9093.650769
9049.282557
9072.438964
9124.496177
9111.219241
9058.625586
9064.504095
9116.091921
9109.319342
9052.098876
9049.863702
9103.284371
9117.701246
9062.78301
9030.641202
9068.773278
9076.439926
8999.192297
8932.628802
8910.8135
8976.237056
9098.14347
9229.48232
9364.486857
9473.541018
9502.933562
9450.831646
9434.693686
9485.320388
9440.214567
9286.568676
9195.462965
9177.156887
9123.423293
9029.545966
8999.438167
9045.750981
9056.725688
8991.41389
8962.088402
9014.302077
9044.923967
8997.270047
8964.055355
9003.819108
9039.693658
9000.265181
8955.874617
8985.580085
9032.40699
9006.14369
8947.582119
8963.340099
9014.749112
8994.073748
8934.729866
8935.80275
8995.191335
8993.470251
8933.411113
8915.127386
8961.239035
8977.421698
8921.609392
8883.946703
8926.169148
8948.275023
8900.263476
8859.69506
8887.210058
8919.485977
8885.824249
8836.315136
8864.455982
8909.382988
8887.701796
8837.946813
8850.486142
8902.275133
8905.516136
8853.883607
8859.315081
8926.638535
8941.189521
8897.760081
8894.362616
8957.685108
8987.792908
8949.012631
8936.629765
8997.761786
9039.134865
9003.774405
8968.950387
9010.167004
9056.949205
9027.534309
8989.49164
9021.029952
9066.806324
9046.712106
8995.213687
9008.937658
9067.722746
9063.051231
9007.082463
9007.395388
9062.693603
9062.626548
9004.154385
8997.359454
9057.239778
9081.603179
9029.523615
8999.34876
9042.800551
9076.797554
9034.530405
8995.884239
9032.809321
9083.100746
9048.142618
8996.264219
9020.918193
9069.30972
9049.997813
8995.414853
9004.534364
9058.022089
9050.511903
8996.085405
8991.011559
9037.123208
9042.755847
8989.402233
8972.839591
9024.539176
9047.203844
8993.693768
8966.446992
9013.475062
9053.149408
9014.324428
8974.292454
9011.150481
9052.970595
9021.924021
8975.946483
9001.360417
9058.156199
9045.885092
8982.786117
8997.337103
9057.239778
9055.228121
9000.198126
8993.917286
9045.460408
9058.759696
9002.030969
8981.579123
9031.714086
9064.325281
9014.771463
8979.165134
9026.170853
9061.531313
9026.215556
8980.77446
9011.91044
9057.306833
9028.249565
8984.775422
9007.954181
9063.319452
9047.896749
8998.186469
9004.847289
9057.843275
9060.436077
9000.578106
8994.543135
9052.545911
9067.946263
9013.989152
8990.944504
9043.18053
9072.908351
9027.847234
8991.257428
9030.574147
9073.355385
9039.827769
8992.062091
9027.556661
9071.030804
9044.499283
8998.253524
9021.454635
9074.763545
9060.637243
9005.674303
9008.602382
9064.995833
9072.684833
9022.482815
9008.289457
9065.59933
9081.312606
9020.225289
9002.925039
9051.204807
9080.351481
9032.630507
9004.489661
9046.399182
9084.620665
9051.540083
9008.736492
9035.782103
9083.592484
9063.453563
9010.099949
9018.079521
9072.573074
9062.872417
8983.546076
8972.504314
9031.088237
9055.026955
9017.096045
9015.486719
9075.434098
9101.205659
9041.727667
9010.949315
9059.69847
9087.436984
9040.118341
9006.188393
9039.648955
9074.495324
9042.733496
9005.495489
9045.303946
9096.757662
9069.510885
9015.307905
9034.709219
9086.900543
9081.267903
9020.806434
9025.947335
9081.670234
9089.091014
9033.256356
9011.888088
9060.369022
9081.066737
9030.574147
9009.004713
9050.243682
9069.30972
9013.3186
8942.664736
8942.575329
8925.342134
8870.490953
8938.484959
9154.246349
9359.904749
9414.733579
9424.702457
9455.905492
9483.845172
9457.313652
9390.839564
9307.065225
9257.600815
9185.292922
9063.788839
9001.606286
9017.230155
9029.858891
8975.119469
8938.864939
8975.342986
9009.071768
8965.575274
8920.134177
8950.487846
8991.011559
8964.256521
8911.864032
8936.070971
8984.48485
8962.870713
8908.421863
8918.793073
8972.05728
8962.915416
8904.823232
8898.989427
8947.246843
8949.169093
8889.266418
8867.696985
8913.942744
8930.55009
8879.610465
8848.67565
8885.690139
8917.876651
8866.713508
8814.142205
8843.557101
8880.862162
8847.803932
8792.751586
8814.052798
8862.779601
8837.611537
8782.670949
8790.784632
8842.417162
8840.919595
8785.196696
8782.916818
8841.210168
8864.880665
8815.349199
8805.223859
8864.455982
8902.297485
8867.562874
8845.568758
8902.722168
8947.403305
8916.356732
8876.280055
8918.524852
8964.457686
8940.317802
8892.038034
8915.417959
8968.816277
8953.415925
8904.622067
8909.651209
8954.108829
8952.924186
8892.954456
8879.498706
8932.718209
8946.82216
8894.764947
8868.546351
8912.914564
8940.340154
8887.36652
8849.480313
8890.853392
8930.304221
8895.748424
8841.299575
8869.373366
8930.773608
8899.838793
8848.407429
8870.669767
8921.83291
8909.494747
8855.671746
8860.991461
8920.782378
8914.836814
8855.828208
8853.838903
8902.453947
8914.680352
8864.657147
8840.293746
8887.210058
8912.691046
8865.171238
8830.503682
8875.341281
8914.121558
8876.905903
8842.081886
8869.842752
8914.546241
8891.143965
8843.534749
8854.732973
8910.43352
8906.521965
8847.356897
8852.162522
8910.925259
8918.368389
8871.943816
8859.717412
8916.356732
8933.74639
8879.632816
8854.844732
8899.570572
8934.349887
8892.261552
8849.927348
8889.80286
8938.887291
8902.23043
8853.324813
8886.763023
8932.047657
8912.400474
8865.238293
8879.185781
8931.488863
8929.253689
8876.682386
8876.570627
8936.875634
8937.300317
8882.784412
8869.1722
8920.223584
8938.149683
8889.311122
8868.635758
8912.780453
8947.157436
8909.964133
8869.351014
8907.572497
8949.884349
8922.123482
8879.319892
8907.639552
8958.981509
8943.223529
8890.585171
8904.622067
8959.920282
8953.125352
8899.592924
8894.697892
8954.466457
8965.284701
8913.406302
8892.440366
8948.900872
8971.632596
8921.631744
8887.522982
8938.931994
8978.002844
8940.429561
8896.798956
8934.819273
8976.840553
8943.536454
8895.614314
8921.028247
8973.532495
8957.774515
8902.722168
8909.204174
8965.597625
8962.468381
8905.382026
8901.515174
8945.570462
8955.338175
8889.847563
8877.554104
8941.5695
8970.336195
8938.060276
8916.58025
8960.948463
8999.058187
8960.27791
8914.635648
8940.183692
8985.893009
8955.762858
8900.82227
8922.324648
8972.258445
8957.930977
8908.868898
8923.553994
8981.109736
8978.002844
8927.890233
8913.987447
8965.038832
8983.322559
8930.907718
8912.489881
8961.954291
8983.188448
8938.641422
8910.634686
8957.819218
8991.682111
8943.245881
8894.608485
8909.941782
8936.965041
8885.95836
8785.621379
8753.770143
8866.579398
9018.325391
9129.905299
9202.324951
9305.545307
9343.051534
9267.882617
9231.091646
9303.91363
9286.658083
9154.402811
9066.046365
9059.162028
9040.073638
8970.78323
8923.129311
8955.53934
8992.196201
8950.957233
8908.064235
8935.981564
8987.368225
8962.96012
8906.343151
8927.510253
8983.389614
8967.184599
8910.992314
8914.501538
8969.464477
8969.039794
8909.092415
8893.557953
8948.319727
8961.998995
8909.561802
8873.888418
8920.089474
8944.251709
8898.363578
8859.717412
8899.190593
8943.782323
8907.259572
8851.693136
8874.402508
8921.654096
8895.279037
8840.181987
8859.091563
8906.678427
8893.803822
8841.143112
8848.206264
8897.067177
8902.521003
8847.736877
8840.47256
8899.771738
8920.067122
8870.088621
8854.621214
8909.382988
8944.050544
8909.003008
8883.499668
8922.302296
8976.237056
8956.187541
8918.547203
8946.911567
8997.448861
8984.596608
8930.393628
8943.648212
9003.19326
9002.030969
8950.957233
8944.989317
9002.880335
9018.548908
8971.051451
8957.685108
9013.9668
9033.725743
8988.441108
8966.536399
9015.307905
9050.154275
9010.837556
8968.883332
9006.613077
9051.62949
9021.253469
8974.158344
9000.019312
9054.646975
9036.631469
8986.205934
9000.265181
9051.182455
9048.053211
8991.145669
8990.072786
9050.981289
9063.67708
9014.302077
8992.754995
9044.543987
9067.543932
9017.8113
8991.972684
9034.552757
9068.03567
9031.110588
8996.823012
9034.597461
9075.501153
9043.538158
8999.34876
9021.611097
9070.248493
9064.638205
9004.891992
9014.704408
9068.750926
9069.712051
9020.560565
9012.849213
9069.287368
9083.704243
9030.350629
9014.816167
9066.895731
9092.488479
9045.035725
9011.798681
9055.943377
9093.896639
9064.727612
9023.332181
9056.904502
9102.479708
9076.685795
9027.266088
9049.550778
9104.111386
9086.60997
9035.379772
9040.252452
9098.769319
9103.709054
9044.991022
9033.166949
9094.500136
9110.772206
9056.993909
9035.715048
9088.085185
9112.828566
9066.515752
9035.200958
9079.882095
9118.572964
9086.006473
9047.986156
9077.51281
9125.323191
9101.742101
9048.902577
9071.142563
9119.28822
9106.793595
9059.251435
9068.817981
9122.10454
9125.099674
9063.051231
9045.706278
9091.505002
9097.472918
9048.164969
9041.481798
9086.833487
9119.690552
9081.73729
9046.935624
9085.738252
9140.276508
9117.075398
9056.725688
9081.625531
9126.798406
9102.390302
9055.451638
9075.456449
9129.190043
9128.89947
9082.430194
9086.565266
9144.903319
9148.703116
9093.315493
9083.458374
9137.437837
9163.879951
9113.253249
9079.524467
9128.206566
9159.923692
9115.95781
9082.206676
9122.193947
9156.705041
9114.080264
9054.378754
9057.284481
9080.195019
9013.542117
8903.146851
8965.508218
9176.776907
9340.279918
9373.673424
9429.821006
9525.441769
9521.127882
9437.398247
9444.86373
9456.374878
9387.755023
9263.412269
9171.591302
9158.739049
9152.435857
9095.371854
9051.964766
9073.914179
9112.090959
9077.088127
9028.629545
9051.607138
9098.791671
9077.065775
9023.578051
9038.240795
9088.01813
9084.888886
9029.501263
9025.254431
9077.781031
9082.094918
9026.886109
9003.595591
9059.072621
9076.797554
9022.706333
8988.485812
9026.059094
9066.940435
9018.794777
8974.739489
9006.255449
9048.969632
9012.826861
8958.623881
8973.152515
9016.894879
8997.270047
8938.037925
8938.507311
8992.084443
8993.291437
8939.155512
8938.328497
8994.409024
9006.434263
8953.99707
8938.328497
8995.660722
9024.919155
8985.490678
8962.58014
9020.471158
9063.945301
9040.677135
9011.01637
9053.484685
9116.673066
9097.182345
9052.411801
9088.688682
9145.015078
9126.440779
9078.228066
9092.644941
9152.838189
9156.079192
9103.038502
9094.053101
9155.475695
9171.94893
9120.674028
9104.267848
9159.253139
9181.403718
9132.09577
9098.076415
9141.662317
9177.380404
9142.377572
9102.36795
9137.48254
9181.448422
9155.140418
9105.743063
9123.266831
9174.049994
9159.90134
9100.780976
9109.431101
9168.260892
9174.273512
9118.304744
9107.419444
9155.207474
9167.098602
9118.505909
9092.823755
9144.52334
9169.222017
9119.355276
9085.738252
9123.445645
9163.768192
9125.077322
9076.775202
9107.553554
9155.073363
9130.978183
9079.837391
9100.982142
9153.017003
9141.952889
9082.988987
9084.955941
9147.518474
9150.155979
9096.377682
9085.738252
9135.962622
9157.487352
9107.888831
9081.826697
9133.548633
9163.522323
9119.221165
9086.319397
9122.48452
9159.029622
9114.437892
9067.633339
9096.355331
9145.663279
9126.686648
9081.133793
9096.511793
9137.34843
9121.255174
9068.527409
9067.052194
9115.30961
9111.666275
9056.278653
9045.750981
9092.555534
9106.167746
9056.636281
9022.102835
9070.986101
9102.457357
9058.044441
9017.118396
9055.965728
9094.67895
9063.811191
9021.320524
9045.303946
9095.863592
9069.868513
9014.21267
9029.009524
9082.363138
9076.529333
9025.120321
9023.466292
9076.216409
9086.498211
9031.356458
9018.012466
9071.343728
9093.315493
9049.349612
9018.012466
9051.875359
9090.208601
9048.343783
9007.395388
9045.885092
9086.498211
9057.128019
9008.736492
9030.641202
9076.395223
9047.717935
8980.796812
8985.982416
9053.596443
9063.386507
9017.788949
9021.879318
9082.094918
9097.025883
9045.080429
9027.66842
9074.607083
9093.382548
9035.826807
9013.542117
9054.423458
9088.062833
9047.449714
9010.256411
9044.275766
9092.443775
9070.963749
9019.107702
9045.929795
9091.773223
9071.634301
9018.683019
9027.467254
9080.46324
9079.300949
9019.577088
9015.24085
9071.611949
9081.089089
9024.740341
8997.135937
9037.369077
9039.224272
8952.633614
8878.984616
8861.036165
8928.538433
9052.434153
9196.044111
9346.761924
9461.806352
9492.115318
9430.3798
9414.420654
9468.601283
9413.21366
9255.09742
9173.066517
9149.619538
9091.527354
9002.902687
8970.067974
9005.741358
9012.178661
8957.930977
8932.85232
8978.807506
9003.237963
8952.097172
8921.45293
8962.624843
8995.973646
8956.701631
8907.907773
8945.078724
8993.403196
8962.155457
8906.320799
8922.011724
8972.124335
8957.618053
8897.514212
8897.089529
8949.705535
8949.77259
8888.215886
8874.111935
8923.88927
8930.617145
8872.346148
8841.88072
8881.644473
8906.052578
8854.844732
8813.248135
8847.803932
8889.66875
8850.08381
8796.707844
8832.336525
8881.979749
8853.503627
8805.536783
8825.161615
8875.341281
8872.882589
8825.765112
8834.594051
8895.726072
8913.965096
8870.06627
8873.307273
8934.439294
8968.21278
8934.171073
8911.886384
8963.250692
9007.373036
8974.158344
8940.16134
8981.780288
9029.143635
8998.164117
8953.974718
8977.645216
9029.031876
9013.69858
8960.344965
8977.421698
9025.813225
9018.079521
8961.462553
8961.68607
9025.299135
9030.395333
8971.274969
8954.354698
9006.79189
9027.847234
8979.656873
8954.622919
8997.493565
9029.791836
8985.356568
8948.722058
8986.116527
9029.009524
8992.240905
8940.988355
8964.927073
9014.972629
8995.727777
8939.669602
8946.732753
8994.051396
8984.574256
8929.946593
8927.152625
8977.801678
8980.685053
8923.866919
8911.551107
8960.233207
8978.963969
8934.461645
8903.079796
8942.642384
8976.527628
8929.879538
8885.354863
8925.364485
8969.37507
8933.858148
8886.964188
8901.470471
8951.717192
8936.763875
8880.772755
8891.948627
8947.425657
8941.94948
8885.667787
8882.315026
8931.891195
8936.585061
8879.923389
8863.807781
8924.939802
8939.915471
8888.349997
8869.105145
8918.748369
8949.280852
8902.409244
8872.390851
8910.142947
8955.181713
8927.957288
8874.04488
8896.329569
8948.789114
8929.253689
8879.364595
8892.194497
8943.134122
8938.75318
8883.901999
8884.729014
8936.249785
8945.034021
8892.865049
8873.128459
8921.229413
8947.71623
8903.795052
8867.853447
8904.66677
8942.664736
8904.018569
8858.465714
8883.387909
8932.718209
8910.05354
8859.605653
8877.129421
8931.06418
8921.229413
8863.740726
8872.033223
8927.264384
8920.134177
8865.685328
8850.08381
8904.175032
8922.659924
8867.115839
8844.83115
8894.072043
8918.681314
8875.520095
8839.757304
8884.907828
8927.018515
8890.607523
8848.116857
8872.033223
8916.58025
8890.428709
8841.657202
8860.924406
8905.806709
8888.484107
8826.346257
8826.614478
8893.222677
8910.187651
8854.196531
8853.056592
8918.860128
8936.249785
8886.919485
8860.186799
8903.236258
8926.929108
8887.36652
8843.668859
8879.655168
8921.095302
8886.405395
8845.904034
8880.213962
8932.025305
8901.895154
8853.503627
8872.971996
8929.074875
8920.916488
8867.428764
8865.126534
8922.190538
8926.035038
8865.506514
8854.509456
8907.706607
8925.766817
8876.816496
8839.623194
8872.815534
8881.130383
8811.303533
8736.604004
8719.057884
8771.897408
8874.111935
9008.512975
9150.826532
9249.59889
9280.511353
9232.365696
9207.890535
9275.392804
9255.186827
9108.760549
9021.14171
9013.229193
8969.777402
8868.322834
8834.772865
8879.655168
8894.452023
8840.137284
8806.564964
8843.93708
8875.117764
8822.41235
8789.7341
8825.60865
8866.802915
8840.114932
8790.851687
8813.806929
8863.450153
8838.215034
8781.709824
8796.417272
8848.832112
8838.796179
8781.91099
8776.054832
8821.630039
8828.000287
8773.909065
8752.741963
8804.21803
8827.285031
8774.534914
8743.287175
8777.284178
8813.829281
8771.450373
8727.417437
8750.864416
8791.030501
8756.228835
8706.540907
8734.63705
8785.688434
8769.952806
8725.763407
8730.837253
8789.622341
8791.723405
8733.452408
8737.229852
8804.97799
8822.881737
8780.324016
8764.610739
8824.312249
8862.712546
8822.501757
8792.863344
8843.758266
8888.26059
8855.403525
8815.036275
8859.583301
8916.692009
8893.602657
8841.657202
8865.260645
8917.429616
8900.419939
8848.787409
8853.257758
8907.393683
8907.594849
8856.051726
8843.825322
8901.984561
8910.366465
8856.074078
8840.830188
8893.379139
8918.63661
8876.525924
8847.736877
8891.948627
8924.090436
8887.187706
8845.72522
8882.605598
8931.95825
8906.432558
8861.416145
8879.766927
8933.165244
8921.005895
8866.847618
8875.631854
8931.220642
8943.335288
8887.120651
8869.127496
8924.515119
8947.626823
8896.508383
8875.855371
8926.526776
8951.493675
8907.840718
8874.290749
8911.394645
8953.974718
8925.386837
8887.7465
8914.658
8966.648157
8949.102038
8895.56961
8915.350904
8971.386727
8964.033003
8908.623029
8903.795052
8963.563617
8976.617035
8913.965096
8898.341226
8952.790076
8977.376995
8925.029209
8896.508383
8942.195349
8970.492657
8924.984506
8892.261552
8931.287698
8974.001881
8944.564634
8898.408282
8925.81152
8977.555809
8957.103963
8913.428654
8927.73377
8982.227323
8973.018405
8921.274116
8927.867881
8982.048509
8983.501373
8930.505387
8920.670619
8975.968835
9000.108719
8953.192407
8930.55009
8973.554846
9008.289457
8977.399347
8936.741523
8971.431431
9014.816167
8977.533457
8931.399456
8949.437314
9012.513937
9002.098024
8957.975681
8969.777402
9019.890013
9022.125187
8976.92996
8985.893009
9036.89969
9043.873435
8991.480946
8979.567466
9034.32924
9061.196036
9011.664571
8981.690881
9031.021181
9072.975406
9037.302022
8995.236039
9029.59067
9072.39426
9041.235929
8992.665588
9015.643181
9067.700394
9045.795685
8988.105832
8990.855097
9048.232025
9044.543987
8984.954236
8974.62773
9015.330257
9007.954181
8927.08557
8876.34711
8875.341281
8877.822325
8926.996163
9068.974444
9247.207254
9333.663801
9332.970897
9316.698827
9317.50349
9367.973729
9338.849406
9220.675733
9159.476657
9148.434895
9080.418537
8984.797774
8962.133105
9000.846326
8992.576181
8928.62784
8923.576346
8977.533457
8988.105832
8933.344058
8909.114767
8952.186579
8978.516934
8933.858148
8900.621104
8938.507311
8972.593721
8935.690991
8896.240162
8924.26925
8968.078669
8937.523834
8884.907828
8901.314008
8953.572387
8935.623936
8875.564799
8876.324758
8926.951459
8929.767779
8871.362671
8859.359784
8914.725055
8926.638535
8866.802915
8838.282089
8884.997235
8913.607468
8870.267435
8832.91767
8870.468601
8911.193479
8874.961302
8836.11397
8861.080868
8908.824195
8891.456889
8847.960394
8874.603674
8934.416942
8930.840663
8891.389834
8902.945686
8972.236094
8988.709329
8943.692916
8937.546186
8999.86285
9021.924021
8982.115565
8968.793925
9022.773388
9054.646975
9012.536289
8986.831783
9033.43517
9075.188229
9048.321432
9009.429396
9036.720876
9085.7159
9067.566284
9017.230155
9029.948298
9083.14545
9085.939418
9028.718952
9027.511958
9083.614836
9092.488479
9040.207748
9024.941507
9076.149354
9095.774185
9057.463295
9029.657725
9070.092031
9107.732368
9068.728574
9030.574147
9067.454525
9111.934496
9080.954979
9039.805417
9065.644034
9115.220203
9094.611894
9040.185397
9049.84135
9105.385435
9101.47388
9047.807342
9049.774295
9099.059892
9099.417519
9047.717935
9037.056152
9093.516659
9111.666275
9061.710127
9038.330202
9081.245551
9113.923802
9072.930702
9037.078504
9077.691624
9120.875194
9086.833487
9040.051286
9064.19117
9115.466072
9098.948133
9048.410839
9060.704298
9112.739159
9111.778034
9056.323356
9055.809266
9111.107482
9114.773168
9058.29031
9041.325336
9095.729482
9120.383456
9076.194057
9043.694621
9088.353406
9121.165767
9085.045348
9045.34865
9077.021072
9119.6682
9092.7567
9041.235929
9062.000699
9116.695418
9096.6012
9042.331164
9051.808304
9101.272714
9102.36795
9046.130961
9039.783065
9099.417519
9110.638095
9056.010432
9033.81515
9085.20181
9110.816909
9062.984176
9030.797664
9074.852952
9114.750816
9079.81504
9033.368115
9061.084278
9107.173575
9081.089089
9030.395333
9045.572167
9100.535107
9085.514734
9029.255394
9036.989097
9089.94038
9072.662481
8997.292399
8985.691844
9057.239778
9086.073528
9036.3856
9008.714141
9054.44581
9087.459336
9054.222292
9024.159196
9056.055135
9082.541952
9044.208711
8993.246733
9019.957068
9060.793705
9029.21069
8989.178716
9018.548908
9071.701356
9057.128019
8997.448861
9002.120376
9055.272824
9054.982252
9000.779271
8988.150536
9040.140693
9063.431211
9012.536289
8987.323521
9032.697562
9058.692641
9009.675266
8971.654948
9003.32737
9020.649972
8952.298337
8866.422935
8831.3754
8889.646398
9017.1631
9146.5797
9292.581295
9413.437177
9467.461344
9420.142701
9391.621875
9439.946346
9421.506157
9269.246074
9161.845942
9133.213357
9084.933589
8993.58201
8947.358602
8977.756974
8996.264219
8949.280852
8909.874727
8949.616128
8993.269085
8957.595701
8909.226526
8941.793018
8988.619922
8960.993166
8903.392721
8916.781416
8974.426565
8964.189466
8899.257648
8899.078834
8952.745372
8955.852265
8904.510308
8884.661959
8931.488863
8943.938785
8886.248933
8852.609557
8895.301389
8922.145834
8872.949645
8831.598917
8865.640624
8896.866011
8858.041031
8808.174289
8820.959487
8864.679499
8847.245139
8791.946923
8795.612609
8854.218883
8851.62608
8792.68453
8794.383263
8849.234444
8861.125572
8817.159691
8808.397807
8867.719336
8901.71634
8864.701851
8852.698964
8904.242087
8947.448009
8920.715323
8891.591
8933.858148
8988.038777
8969.777402
8927.845529
8954.37705
9011.776329
9000.198126
8948.878521
8960.009689
9012.826861
9003.908515
8951.493675
8947.492712
9008.535327
9021.566394
8965.351756
8950.01846
9003.640295
9027.780179
8977.846381
8952.298337
8992.777347
9032.675211
8996.465385
8953.952367
8989.245771
9036.229138
9004.534364
8950.331384
8969.844457
9023.265126
9011.709274
8960.65789
8970.067974
9024.919155
9023.06396
8964.6365
8948.833817
8999.281704
9011.955143
8958.668585
8935.176901
8982.450841
9005.607248
8962.736602
8930.483035
8971.543189
9008.177699
8962.915416
8919.664791
8952.96889
9002.545059
8976.482925
8918.815424
8942.552977
8996.800661
8988.217591
8936.093323
8937.300317
8988.441108
8989.670454
8934.416942
8925.67741
8986.92119
9004.512013
8948.990279
8923.688105
8970.000919
8993.760823
8943.916433
8917.206099
8962.401326
8996.398329
8964.860018
8920.625916
8945.592814
8990.788041
8964.412983
8914.702703
8933.165244
8987.010597
8972.012576
8917.98841
8923.509291
8982.160268
8976.080594
8924.716285
8920.871785
8973.465439
8980.752108
8925.431541
8906.700779
8953.751201
8980.90857
8934.372238
8897.067177
8932.740561
8973.577198
8935.892157
8891.591
8915.283849
8955.360526
8933.679334
8886.517154
8898.251819
8945.92809
8936.473302
8882.091508
8879.766927
8933.679334
8934.39459
8876.905903
8866.892322
8917.697837
8930.594794
8880.102203
8849.033278
8890.026377
8910.768796
8843.512397
8796.238458
8854.375345
8904.28679
8873.329624
8835.264604
8859.69506
8918.88248
8907.147814
8850.061458
8853.347165
8901.783395
8896.016645
8840.629022
8834.974031
8884.885476
8892.395662
8843.199473
8834.459941
8894.630837
8914.836814
8863.807781
8836.963336
8880.929217
8915.194442
8870.423898
8835.152845
8874.223694
8916.96023
8876.615331
8829.855481
8850.46379
8902.208078
8883.544372
8822.747627
8824.893394
8862.913711
8828.93906
8741.633146
8688.681863
8697.667265
8800.731158
8923.553994
9065.733441
9185.471736
9264.596911
9242.356925
9206.817652
9234.690277
9270.296606
9161.354203
9020.247641
8977.421698
8955.852265
8877.040014
8792.483365
8797.043121
8840.897243
8818.120816
8757.502885
8759.715707
8807.727254
8801.625228
8746.483475
8739.956765
8794.47267
8810.476519
8762.30851
8742.504864
8787.096594
8805.983818
8759.671004
8724.51171
8773.551437
8805.894411
8763.023765
8721.024838
8744.11419
8779.966388
8748.428076
8697.801375
8704.506898
8756.318242
8741.968422
8682.289264
8686.424337
8739.129751
8733.161835
8675.784907
8660.764535
8708.440805
8723.282364
8675.561389
8655.690689
8701.9588
8728.177396
8680.322311
8651.242691
8690.425299
8735.285251
8707.703198
8670.241674
8706.429148
8764.029594
8747.981041
8706.026817
8741.342573
8799.233591
8793.735062
8747.19873
8763.135524
8826.972106
8829.095522
8785.733138
8788.862382
8841.970127
8860.924406
8808.710731
8785.911952
8841.836016
8865.46181
8820.803025
8789.555286
8832.425932
8874.715432
8841.523092
8798.272466
8828.201452
8871.385023
8849.033278
8798.272466
8818.456092
8874.894246
8867.540523
8808.889545
8813.024618
8870.356842
8880.146906
8824.424007
8811.214126
8865.685328
8883.991406
8831.353048
8807.615496
8859.002156
8895.636665
8849.033278
8804.441548
8850.195569
8890.026377
8854.487104
8811.236478
8831.934194
8879.252837
8862.801953
8815.662124
8825.899223
8878.090546
8873.15081
8816.086807
8820.758321
8879.945741
8889.579343
8836.717467
8821.719446
8873.955473
8902.990389
8855.470581
8830.146054
8878.64934
8912.556936
8868.903979
8836.069266
8868.635758
8912.623991
8884.505497
8834.057609
8858.778639
8915.462663
8902.096319
8847.580415
8852.766019
8909.807671
8906.365503
8849.770886
8849.748534
8906.633724
8911.484052
8858.935101
8846.954566
8900.598753
8919.307163
8865.908845
8839.243214
8890.115784
8928.62784
8896.687197
8857.079906
8885.511325
8929.767779
8901.828099
8858.331604
8879.945741
8926.504424
8910.277058
8862.712546
8873.597845
8930.237166
8928.694895
8873.486087
8871.161505
8928.337267
8938.842587
8878.805802
8864.903017
8917.384913
8935.758047
8892.038034
8866.266473
8909.047712
8944.139951
8900.151718
8848.519188
8880.772755
8939.960175
8921.274116
8878.559933
8901.224601
8951.448971
8938.61907
8900.017607
8914.367427
8960.836704
8962.915416
8906.633724
8892.954456
8952.231282
8968.257483
8914.501538
8891.836869
8952.946538
8988.642274
8944.586986
8914.188613
8958.601529
8992.509126
8956.545169
8911.931087
8938.328497
8985.624788
8962.334271
8920.245936
8939.535491
8994.699597
8986.16123
8931.846491
8933.075837
8981.556771
8971.543189
8890.786337
8851.603729
8851.559025
8829.855481
8853.615386
9000.712216
9197.161698
9282.299493
9278.16442
9267.614397
9284.042929
9316.743531
9292.983626
9187.975131
9137.460189
9125.613764
9051.294214
8953.080649
8934.081666
8969.37507
8952.857131
8891.993331
8893.177973
8940.988355
8939.759009
8880.079851
8863.383098
8908.712436
8926.504424
8869.529828
8837.231557
8887.120651
8920.223584
8869.127496
8830.056647
8870.446249
8907.058407
8876.101241
8832.805912
8850.5979
8893.066215
8875.229523
8831.040124
8841.947775
8891.948627
8881.532715
8823.105255
8834.459941
