Detector 2,,,,,,,,Detector 4,,,,,,,,Detector 6,,,,,,,,Detector 8,,,,,,,,Detector 10,,,,,,,,Detector 12,,,,,,,,Detector 14,,,,,,,,Detector 16,,,,,,,
"RED1,2,3,4","IR1,2,3,4 ","RED5,6,7,8","IR5,6,7,8 ","RED9,10,11,12","IR9,10,11,12 ","RED13,14,15,16","IR13,14,15,16 ","RED1,2,3,4","IR1,2,3,4 ","RED5,6,7,8","IR5,6,7,8 ","RED9,10,11,12","IR9,10,11,12 ","RED13,14,15,16","IR13,14,15,16 ","RED1,2,3,4","IR1,2,3,4 ","RED5,6,7,8","IR5,6,7,8 ","RED9,10,11,12","IR9,10,11,12 ","RED13,14,15,16","IR13,14,15,16 ","RED1,2,3,4","IR1,2,3,4 ","RED5,6,7,8","IR5,6,7,8 ","RED9,10,11,12","IR9,10,11,12 ","RED13,14,15,16","IR13,14,15,16 ","RED1,2,3,4","IR1,2,3,4 ","RED5,6,7,8","IR5,6,7,8 ","RED9,10,11,12","IR9,10,11,12 ","RED13,14,15,16","IR13,14,15,16 ","RED1,2,3,4","IR1,2,3,4 ","RED5,6,7,8","IR5,6,7,8 ","RED9,10,11,12","IR9,10,11,12 ","RED13,14,15,16","IR13,14,15,16 ","RED1,2,3,4","IR1,2,3,4 ","RED5,6,7,8","IR5,6,7,8 ","RED9,10,11,12","IR9,10,11,12 ","RED13,14,15,16","IR13,14,15,16 ","RED1,2,3,4","IR1,2,3,4 ","RED5,6,7,8","IR5,6,7,8 ","RED9,10,11,12","IR9,10,11,12 ","RED13,14,15,16","IR13,14,15,16 "
1310,12858,389,215,217,213,213,215,1777,17335,395,167,157,155,153,154,1827,8073,1382,1344,1319,1311,1318,1317,396,3916,202,178,168,172,173,173,1035,1038,17139,37743,9933,24410,1363,1059,717,773,11525,16923,5140,30607,1079,763,176,636,9761,31961,11899,35943,39304,29586,326,3243,22589,38830,4565,34795,40642,39399
1295,12887,384,218,218,208,215,215,1745,17333,391,163,155,158,137,153,1825,8095,1381,1341,1318,1310,1317,1317,392,3935,205,183,169,166,173,173,1046,1045,17211,37977,9965,24561,1370,1063,722,781,11557,17016,5154,30750,1083,763,571,648,9775,32033,11928,36093,39338,29627,767,3265,22655,39007,4577,34915,40695,39478
1295,12916,392,217,217,207,217,215,1751,17404,398,163,158,163,159,155,1822,8110,1383,1340,1319,1311,1322,1317,394,3949,206,178,168,168,173,177,1050,1046,17264,38197,10003,24711,1377,1066,724,781,11582,17108,5167,30892,1089,764,575,655,9784,32101,11955,36237,39375,29677,767,3279,22707,39173,4589,35036,40757,39567
1297,12941,388,214,216,209,215,215,1751,17429,395,165,159,160,160,153,1825,8129,1383,1345,1322,1313,1324,1321,396,3973,204,180,167,170,175,177,1051,1054,17304,38302,10030,24708,1375,1064,727,785,11604,17146,5166,30795,1083,760,576,658,9793,32163,11964,36219,39417,29699,777,3295,22754,39306,4595,35084,40788,39583
1295,12877,388,215,218,207,214,218,1756,17389,397,165,163,162,154,156,1831,8089,1388,1349,1324,1318,1323,1322,400,3995,206,178,172,169,175,175,1047,1044,17097,37518,9919,24105,1357,1055,720,775,11451,16692,5113,30137,1068,752,575,658,9848,32176,11889,35758,39453,29692,774,3275,22667,38875,4565,34682,40732,39449
1291,12835,386,215,217,209,214,215,1755,17311,392,159,159,160,156,159,1830,8070,1388,1346,1323,1315,1322,1320,403,4001,204,176,168,167,173,174,1041,1039,16989,37115,9849,23899,1349,1050,715,764,11407,16581,5095,29999,1061,750,577,653,9829,32063,11861,35625,39454,29691,770,3234,22526,38505,4547,34504,40681,39381
1291,12806,392,215,219,207,217,218,1750,17279,395,162,160,155,157,156,1827,8068,1390,1347,1325,1316,1322,1318,404,4008,206,178,169,173,178,176,1037,1034,16972,37066,9843,23893,1353,1051,711,765,11411,16595,5103,30052,1066,752,574,651,9815,32033,11860,35639,39454,29696,767,3222,22491,38432,4550,34479,40666,39373
1288,12808,386,215,219,208,218,217,1749,17277,393,163,159,158,158,152,1829,8065,1389,1348,1323,1315,1324,1323,402,4007,212,180,169,169,174,175,1037,1034,17005,37159,9854,23955,1350,1049,712,766,11441,16659,5107,30109,1065,751,577,654,9813,32044,11869,35695,39466,29709,772,3227,22514,38505,4551,34519,40670,39389
1288,12800,388,214,217,207,216,216,1751,17301,395,164,162,157,156,155,1826,8066,1385,1347,1323,1312,1320,1315,405,4021,207,179,170,169,175,179,1035,1034,17003,37164,9863,23985,1349,1051,713,766,11447,16670,5109,30126,1066,754,573,653,9814,32045,11873,35717,39477,29723,770,3231,22518,38519,4554,34520,40670,39403
1288,12809,387,219,220,209,216,215,1751,17316,393,165,158,157,155,150,1825,8066,1383,1345,1322,1309,1318,1320,406,4029,204,183,170,168,179,175,1035,1032,17036,37285,9875,24092,1353,1049,713,770,11460,16735,5112,30235,1071,754,580,653,9809,32054,11886,35814,39483,29743,774,3237,22534,38598,4555,34591,40690,39443
1287,12834,386,216,218,207,216,216,1755,17355,395,168,155,154,156,159,1823,8072,1384,1345,1323,1311,1319,1319,407,4030,207,179,169,172,179,175,1039,1035,17095,37505,9907,24249,1359,1055,715,772,11489,16827,5132,30397,1073,759,579,656,9810,32087,11911,35951,39503,29769,771,3253,22571,38733,4567,34693,40714,39499
1288,12861,389,217,217,209,214,215,1760,17397,400,164,157,161,157,151,1825,8087,1383,1344,1321,1312,1319,1321,407,4036,206,181,171,173,177,175,1041,1039,17152,37724,9936,24402,1364,1055,721,773,11519,16916,5139,30531,1077,759,580,656,9809,32126,11933,36091,39513,29796,773,3265,22618,38879,4573,34806,40751,39566
1291,12890,390,218,218,207,215,219,1762,17444,397,163,156,156,158,155,1825,8103,1385,1344,1321,1314,1319,1322,412,4040,207,180,170,175,178,178,1045,1043,17199,37921,9971,24539,1369,1061,720,777,11536,16992,5152,30668,1083,757,579,658,9811,32163,11958,36217,39524,29824,773,3283,22660,39029,4584,34915,40786,39629
1292,12920,384,216,218,208,217,215,1762,17475,401,159,157,158,161,164,1832,8117,1387,1347,1325,1316,1325,1320,406,4043,206,180,170,173,176,177,1047,1048,17251,38106,9997,24671,1377,1065,724,781,11559,17061,5162,30775,1086,765,581,659,9818,32213,11974,36337,39556,29856,779,3296,22703,39164,4590,35018,40819,39689
1297,12956,392,221,217,208,216,215,1766,17517,399,163,159,157,157,153,1831,8138,1391,1349,1327,1317,1323,1323,407,4056,206,179,171,169,177,176,1049,1048,17300,38314,10031,24818,1383,1069,727,783,11577,17142,5171,30913,1089,769,586,660,9819,32263,12000,36482,39578,29886,777,3314,22747,39315,4601,35142,40867,39760
1297,12978,389,216,219,207,215,215,1765,17546,403,163,159,157,155,154,1830,8151,1392,1353,1330,1323,1328,1324,406,4058,207,182,170,170,179,179,1054,1055,17308,38282,10043,24681,1377,1063,728,786,11586,17101,5162,30654,1081,760,583,661,9835,32339,11985,36342,39613,29895,782,3328,22786,39393,4602,35123,40869,39731
1297,12914,393,213,217,209,216,216,1765,17467,403,161,161,159,157,160,1839,8106,1395,1354,1331,1321,1327,1328,407,4043,214,179,169,169,177,175,1048,1042,17074,37414,9910,24077,1359,1056,721,772,11410,16645,5104,30040,1065,746,581,658,9877,32263,11898,35860,39624,29866,778,3295,22647,38842,4567,34689,40794,39578
1292,12889,390,217,219,207,217,217,1762,17395,396,161,155,158,156,160,1839,8088,1390,1351,1327,1319,1325,1328,407,4024,206,180,172,173,175,176,1044,1038,16985,37086,9854,23908,1351,1052,712,766,11377,16555,5094,29930,1063,749,582,654,9850,32130,11875,35743,39613,29849,777,3259,22522,38523,4551,34526,40738,39517
1292,12887,391,217,218,209,217,216,1760,17370,398,163,155,155,157,156,1832,8083,1396,1351,1326,1316,1323,1324,406,4021,205,180,171,172,176,178,1039,1036,16982,37069,9851,23933,1353,1055,711,764,11387,16583,5098,29990,1071,751,583,655,9843,32095,11873,35767,39612,29855,772,3248,22489,38459,4550,34510,40724,39503
1298,12908,389,217,217,209,216,217,1759,17367,392,170,159,155,155,152,1831,8087,1386,1347,1324,1318,1327,1321,408,4024,205,182,171,168,175,178,1039,1036,17011,37131,9862,23963,1353,1053,715,767,11409,16624,5102,30008,1066,755,584,657,9837,32094,11873,35779,39620,29859,775,3255,22509,38517,4551,34516,40719,39505
1297,12910,392,217,218,209,217,218,1759,17379,396,162,156,161,156,156,1830,8084,1390,1348,1323,1316,1321,1320,407,4015,206,181,171,169,179,180,1039,1037,17011,37119,9861,23975,1357,1053,714,767,11410,16623,5106,30018,1063,752,581,657,9839,32069,11873,35783,39603,29852,773,3252,22507,38497,4554,34512,40713,39511
1295,12921,389,216,218,206,215,218,1757,17381,394,164,159,157,159,159,1827,8085,1387,1347,1325,1319,1327,1334,406,4021,205,181,170,170,177,176,1039,1037,17047,37248,9876,24093,1360,1061,715,770,11427,16685,5108,30129,1069,755,585,658,9827,32051,11880,35871,39595,29859,778,3259,22525,38569,4555,34575,40729,39549
1298,12948,393,219,219,210,218,218,1758,17407,397,162,157,160,156,155,1845,8113,1416,1374,1351,1344,1351,1345,415,4025,206,179,175,170,177,177,1044,1045,17118,37457,9916,24242,1372,1067,718,773,11453,16765,5122,30245,1077,761,581,656,9830,32083,11899,35985,39581,29867,775,3272,22567,38709,4564,34666,40747,39593
1300,12967,391,221,219,212,218,218,1761,17433,396,167,158,161,153,155,1856,8129,1414,1371,1349,1339,1342,1341,409,4029,205,185,170,173,180,179,1054,1053,17190,37667,9947,24377,1379,1071,724,778,11479,16841,5129,30364,1080,763,585,658,9841,32125,11909,36089,39577,29876,777,3283,22611,38847,4571,34767,40765,39647
1301,12989,391,221,219,209,219,217,1765,17466,398,163,156,156,155,153,1849,8130,1401,1358,1334,1324,1331,1331,407,4031,207,181,173,172,175,176,1056,1056,17223,37829,9971,24496,1381,1071,725,781,11498,16907,5145,30485,1081,765,581,660,9838,32150,11926,36185,39581,29894,778,3297,22645,38961,4581,34859,40797,39695
1300,13019,391,216,219,210,218,219,1763,17498,396,163,155,154,160,156,1842,8139,1394,1353,1328,1320,1327,1331,407,4035,205,183,174,169,176,177,1058,1056,17269,38010,9995,24631,1387,1071,725,783,11514,16978,5153,30607,1086,766,583,662,9836,32163,11940,36310,39586,29915,781,3308,22677,39086,4587,34955,40832,39758
1301,13040,396,217,220,208,217,216,1762,17527,399,166,159,158,155,159,1836,8151,1393,1351,1324,1315,1327,1327,407,4038,206,182,171,170,176,177,1060,1059,17289,38070,10016,24586,1382,1071,728,783,11528,16994,5149,30468,1085,759,586,661,9831,32199,11943,36255,39606,29922,781,3321,22711,39175,4595,34985,40834,39743
1300,12983,389,215,221,211,216,217,1765,17467,399,159,159,163,156,154,1837,8111,1393,1351,1328,1318,1325,1327,413,4020,207,180,170,170,175,179,1054,1052,17086,37295,9896,24022,1364,1063,721,772,11375,16568,5094,29877,1065,751,581,660,9867,32132,11862,35791,39625,29887,781,3299,22618,38732,4559,34595,40761,39600
1297,12953,394,220,219,207,217,217,1760,17384,397,162,158,154,153,156,1838,8095,1393,1351,1331,1319,1327,1325,405,4008,206,181,171,172,176,179,1043,1046,16986,36951,9846,23853,1360,1062,715,769,11342,16471,5082,29759,1063,751,582,656,9839,31989,11830,35656,39602,29859,777,3262,22484,38401,4545,34427,40701,39526
1297,12943,392,216,220,210,217,218,1756,17354,394,160,162,157,155,160,1835,8083,1393,1354,1331,1323,1327,1329,402,4008,206,180,171,167,180,176,1047,1044,16995,36944,9843,23879,1365,1065,715,767,11352,16496,5087,29831,1066,755,585,654,9823,31931,11825,35666,39583,29849,776,3255,22467,38353,4543,34415,40681,39521
1297,12959,393,216,219,210,216,218,1754,17345,397,160,162,158,156,160,1835,8086,1396,1354,1334,1322,1330,1329,407,4006,206,181,171,170,177,176,1050,1048,17016,37020,9860,23925,1364,1064,717,769,11376,16545,5097,29860,1067,755,584,653,9815,31915,11829,35671,39571,29844,774,3259,22489,38412,4546,34431,40679,39519
1299,12959,391,217,220,209,219,217,1755,17332,394,163,158,160,157,149,1834,8080,1390,1349,1324,1319,1326,1326,412,4003,206,183,171,173,176,175,1049,1048,17017,37001,9853,23927,1364,1062,718,771,11379,16545,5098,29869,1067,756,584,658,9809,31869,11821,35657,39545,29821,777,3259,22495,38404,4544,34429,40676,39520
1297,12966,393,217,220,207,219,218,1754,17338,397,167,159,161,157,161,1834,8084,1392,1348,1329,1316,1322,1325,406,4001,206,181,173,169,176,177,1049,1047,17045,37114,9873,24031,1369,1065,720,773,11394,16605,5107,29975,1072,758,581,655,9791,31832,11831,35735,39522,29820,779,3267,22508,38484,4554,34488,40684,39556
1297,12984,394,216,220,210,217,218,1752,17362,392,161,161,160,160,158,1833,8094,1388,1346,1324,1315,1323,1321,401,4005,205,181,171,172,176,177,1054,1051,17102,37317,9900,24195,1373,1070,722,776,11418,16687,5119,30118,1075,762,581,656,9781,31838,11838,35851,39503,29823,779,3280,22551,38615,4558,34595,40703,39610
1299,13007,395,216,218,210,216,218,1755,17390,401,163,158,160,158,157,1831,8105,1390,1344,1323,1315,1320,1319,406,4010,206,183,170,169,179,180,1057,1052,17152,37519,9929,24343,1380,1072,723,777,11441,16768,5128,30255,1079,762,582,656,9777,31853,11859,35979,39499,29839,773,3291,22591,38764,4568,34697,40727,39664
1301,13039,391,219,218,207,220,217,1756,17424,395,162,159,157,157,159,1827,8111,1389,1345,1323,1314,1320,1320,410,4015,205,177,169,169,176,177,1057,1054,17204,37707,9956,24479,1382,1074,727,780,11463,16840,5137,30367,1081,765,585,657,9775,31872,11872,36089,39499,29853,780,3306,22636,38898,4575,34803,40760,39721
1301,13069,397,217,220,209,219,218,1757,17459,399,159,159,161,157,155,1827,8125,1384,1340,1318,1310,1317,1318,409,4020,205,175,173,169,176,179,1062,1057,17238,37882,9982,24607,1385,1075,727,782,11480,16910,5147,30485,1088,767,582,658,9775,31904,11888,36206,39500,29870,776,3319,22670,39022,4583,34911,40793,39779
1302,13093,393,218,220,209,217,216,1760,17502,395,162,161,159,155,153,1829,8141,1385,1343,1319,1308,1315,1317,406,4029,205,181,170,170,179,179,1062,1059,17289,38082,10004,24747,1389,1077,728,785,11503,16995,5157,30618,1088,770,580,659,9773,31917,11907,36340,39500,29884,782,3334,22715,39162,4592,35025,40832,39839
1300,13068,395,217,219,208,217,216,1759,17508,402,163,159,157,161,158,1827,8135,1385,1339,1319,1309,1318,1317,407,4021,207,177,171,173,175,178,1064,1061,17199,37707,9961,24323,1375,1068,728,782,11447,16753,5123,30062,1071,754,582,659,9807,31990,11859,35963,39521,29859,780,3342,22732,39083,4584,34831,40781,39723
1296,12996,392,217,218,208,217,217,1763,17398,396,165,158,157,157,156,1829,8083,1381,1339,1318,1309,1315,1315,406,3997,206,181,170,170,175,175,1051,1047,16980,36903,9832,23836,1356,1056,717,767,11307,16406,5076,29624,1058,749,582,655,9800,31799,11781,35552,39503,29803,782,3294,22546,38487,4545,34432,40695,39563
1297,12963,396,218,221,208,217,220,1756,17338,397,166,158,157,157,156,1823,8073,1380,1340,1313,1305,1311,1313,404,3982,204,180,170,173,177,176,1042,1042,16911,36661,9789,23696,1351,1051,711,765,11287,16341,5071,29528,1057,748,580,654,9772,31674,11755,35419,39460,29755,778,3264,22439,38215,4535,34271,40629,39483
1295,12955,390,215,218,209,215,217,1752,17303,393,160,157,157,159,158,1823,8063,1381,1336,1312,1303,1309,1309,405,3979,205,179,172,170,175,176,1037,1037,16911,36659,9778,23734,1351,1051,711,765,11301,16371,5075,29596,1057,748,585,652,9762,31613,11745,35425,39421,29731,777,3253,22411,38155,4529,34257,40602,39464
1295,12958,391,219,218,209,217,216,1752,17298,398,167,158,160,153,160,1816,8050,1376,1331,1307,1298,1305,1306,405,3975,204,180,172,169,175,175,1039,1037,16921,36699,9786,23751,1347,1051,713,764,11313,16393,5078,29623,1057,747,581,646,9755,31589,11741,35401,39386,29707,777,3253,22416,38180,4533,34245,40589,39452
1292,12940,389,215,219,209,216,217,1756,17331,394,162,162,157,157,154,1812,8047,1368,1328,1305,1295,1302,1301,406,3973,218,181,171,169,175,179,1036,1037,16929,36738,9787,23801,1347,1049,713,765,11324,16418,5082,29683,1061,748,583,650,9747,31553,11732,35409,39359,29681,778,3253,22442,38207,4533,34260,40581,39453
1289,12941,387,214,220,207,218,215,1764,17402,398,162,158,154,156,152,1812,8051,1368,1325,1303,1294,1300,1302,403,3967,205,182,170,171,175,175,1034,1032,16971,36912,9811,23943,1351,1050,717,764,11346,16487,5093,29798,1063,751,579,650,9735,31543,11740,35486,39329,29677,771,3262,22451,38278,4541,34333,40586,39483
1292,12963,391,225,221,207,215,215,1763,17456,397,166,158,158,158,156,1808,8062,1365,1325,1303,1291,1298,1298,403,3969,204,182,169,169,177,175,1036,1037,17033,37140,9838,24104,1357,1052,716,768,11373,16579,5101,29934,1066,755,584,651,9729,31549,11751,35601,39307,29678,777,3273,22486,38404,4545,34435,40598,39529
1290,12979,395,218,218,207,217,215,1771,17523,399,162,162,155,157,160,1807,8070,1366,1323,1302,1292,1299,1302,405,3969,206,182,169,172,178,175,1041,1037,17086,37344,9871,24245,1361,1057,716,770,11397,16659,5111,30059,1070,752,582,652,9727,31571,11763,35698,39294,29687,776,3285,22526,38539,4553,34529,40613,39573
1291,13005,391,216,218,206,216,217,1772,17554,399,161,155,155,157,157,1806,8075,1362,1325,1300,1296,1301,1303,403,3981,206,179,173,169,175,175,1040,1040,17134,37532,9892,24376,1365,1059,717,771,11416,16729,5120,30167,1073,756,580,654,9726,31599,11775,35804,39290,29699,783,3299,22562,38669,4559,34628,40630,39619
1293,13029,390,216,221,207,215,215,1773,17591,401,162,159,161,159,156,1809,8093,1365,1324,1302,1293,1300,1302,406,3983,209,181,171,170,176,175,1048,1046,17181,37724,9920,24509,1371,1060,719,778,11435,16803,5133,30305,1076,759,580,655,9724,31628,11791,35918,39282,29709,777,3311,22602,38796,4570,34733,40659,39671
1293,13060,390,216,219,209,217,215,1777,17620,397,165,163,160,156,157,1810,8110,1367,1327,1304,1295,1301,1302,405,3993,205,184,170,170,180,174,1048,1047,17237,37939,9949,24653,1378,1065,723,777,11464,16895,5146,30458,1080,764,581,658,9724,31658,11810,36053,39287,29731,776,3331,22646,38943,4575,34856,40695,39742
1295,13070,393,215,216,207,216,217,1776,17657,403,169,160,157,156,156,1811,8127,1373,1330,1308,1298,1306,1308,403,3997,206,181,169,170,176,177,1054,1049,17214,37811,9945,24423,1368,1057,724,780,11459,16816,5133,30145,1070,752,580,655,9742,31730,11788,35839,39307,29715,778,3343,22683,38993,4576,34805,40675,39681
1295,12993,389,216,219,208,215,216,1773,17551,399,163,160,158,157,157,1814,8073,1372,1333,1309,1300,1305,1304,403,3973,206,180,171,169,176,180,1042,1039,16976,36921,9801,23821,1349,1047,713,767,11291,16366,5076,29545,1054,745,583,652,9761,31591,11695,35319,39293,29653,781,3305,22545,38431,4540,34351,40568,39489
1290,12949,389,216,217,207,215,216,1770,17477,401,165,157,161,155,154,1814,8053,1371,1326,1305,1297,1305,1305,402,3958,205,179,170,169,176,177,1033,1032,16877,36573,9747,23626,1341,1044,711,760,11256,16268,5061,29399,1051,742,578,649,9731,31440,11662,35145,39251,29595,778,3269,22419,38098,4522,34146,40492,39382
1289,12940,391,211,220,207,217,217,1770,17440,395,162,161,157,153,152,1813,8041,1367,1328,1306,1295,1301,1299,401,3953,205,180,171,170,179,178,1031,1027,16859,36505,9730,23613,1340,1043,706,762,11260,16273,5060,29434,1053,743,580,647,9720,31375,11645,35109,39202,29553,773,3255,22379,37999,4515,34097,40450,39341
1292,12946,390,215,219,210,215,216,1768,17432,399,162,159,157,157,156,1807,8035,1368,1323,1300,1292,1298,1297,402,3952,205,181,172,167,178,177,1029,1026,16878,36569,9739,23648,1339,1045,708,761,11281,16314,5068,29481,1051,743,577,647,9712,31354,11645,35098,39167,29524,771,3257,22391,38040,4517,34099,40422,39316
1291,12931,388,215,218,207,215,215,1766,17425,395,163,162,158,156,158,1803,8029,1365,1322,1301,1289,1296,1294,402,3951,205,181,171,169,179,177,1027,1025,16886,36581,9739,23675,1337,1041,708,761,11291,16331,5069,29506,1053,743,580,646,9706,31326,11632,35087,39125,29503,772,3260,22395,38039,4518,34095,40396,39303
1289,12939,392,215,220,207,215,215,1767,17419,399,160,158,157,156,157,1801,8031,1363,1319,1296,1288,1294,1297,403,3954,205,180,170,173,179,174,1027,1023,16921,36727,9757,23793,1343,1043,707,761,11305,16395,5079,29620,1057,746,577,649,9698,31314,11639,35155,39106,29491,771,3263,22412,38114,4523,34157,40389,39322
1288,12951,389,217,218,207,215,217,1764,17441,396,162,159,156,155,156,1804,8040,1363,1322,1299,1294,1299,1297,404,3960,204,180,168,170,173,177,1029,1028,16984,36954,9787,23954,1349,1048,709,764,11341,16489,5094,29775,1060,749,578,646,9691,31334,11653,35263,39083,29491,774,3273,22454,38247,4526,34255,40399,39362
1290,12977,391,217,217,207,216,216,1765,17477,398,164,159,158,160,155,1803,8059,1363,1323,1303,1294,1299,1299,402,3968,205,179,170,169,175,175,1033,1032,17043,37173,9820,24102,1357,1051,713,767,11366,16579,5103,29909,1064,752,575,645,9691,31356,11665,35373,39071,29497,772,3288,22502,38395,4535,34364,40417,39403
1290,13008,393,217,219,210,217,217,1767,17496,397,163,162,158,158,156,1807,8064,1365,1326,1302,1294,1303,1301,402,3973,204,182,170,176,175,177,1040,1039,17099,37374,9850,24235,1361,1057,715,770,11395,16659,5113,30031,1070,755,579,647,9691,31397,11679,35479,39071,29517,775,3295,22545,38535,4542,34461,40441,39453
1296,13028,394,217,217,207,217,216,1766,17524,398,162,160,157,156,160,1808,8077,1365,1323,1301,1292,1299,1300,401,3981,206,180,169,170,175,174,1041,1041,17143,37567,9876,24366,1367,1060,717,773,11413,16732,5127,30161,1074,757,576,649,9691,31433,11694,35590,39073,29532,775,3311,22583,38668,4552,34571,40471,39513
1293,13059,394,219,221,208,219,218,1768,17566,395,163,158,157,157,159,1807,8097,1363,1325,1299,1295,1303,1304,403,3993,207,181,171,170,177,177,1046,1046,17196,37787,9903,24514,1373,1064,720,775,11439,16821,5137,30311,1078,761,578,648,9691,31476,11717,35729,39084,29554,779,3324,22631,38813,4559,34697,40505,39575
1293,13076,394,216,218,209,216,216,1770,17612,401,159,162,157,159,155,1811,8117,1369,1329,1307,1299,1307,1308,405,3997,208,181,168,170,175,175,1052,1050,17233,37861,9925,24463,1373,1060,724,781,11462,16855,5139,30190,1072,755,578,651,9693,31528,11719,35679,39111,29560,776,3340,22677,38926,4567,34738,40514,39568
1293,13015,390,217,220,210,217,215,1769,17551,397,157,159,155,153,157,1815,8074,1373,1332,1310,1298,1303,1304,404,3983,205,181,171,168,178,176,1045,1043,17013,37033,9791,23841,1353,1051,715,767,11306,16393,5077,29542,1054,745,579,648,9740,31489,11629,35140,39111,29506,780,3314,22586,38496,4532,34311,40415,39382
1290,12965,393,215,219,209,218,217,1766,17463,398,162,157,154,157,157,1812,8053,1371,1333,1315,1307,1322,1319,405,3971,207,185,171,169,177,176,1037,1032,16896,36630,9728,23619,1347,1051,707,759,11252,16261,5062,29375,1049,745,577,642,9708,31325,11586,34941,39061,29445,771,3275,22440,38108,4513,34078,40329,39263
1289,12951,391,218,219,212,217,216,1762,17425,396,157,158,162,156,154,1829,8066,1390,1348,1322,1311,1319,1316,403,3972,207,181,171,172,177,183,1039,1035,16889,36561,9718,23606,1351,1054,707,762,11260,16263,5061,29400,1055,750,577,642,9710,31289,11577,34907,39029,29414,772,3258,22397,37999,4503,34014,40283,39213
1290,12964,392,218,218,207,218,218,1765,17421,400,165,161,155,157,157,1821,8054,1381,1340,1320,1305,1313,1311,400,3968,206,181,169,174,177,180,1041,1041,16913,36649,9735,23651,1355,1055,712,765,11283,16322,5069,29451,1056,749,576,644,9707,31293,11574,34907,39007,29390,769,3260,22411,38052,4508,34034,40267,39198
1288,12949,393,215,218,209,217,215,1761,17418,397,163,158,156,157,153,1817,8049,1375,1336,1312,1301,1309,1308,401,3968,205,180,171,159,175,178,1041,1039,16917,36635,9731,23654,1352,1056,711,767,11290,16325,5073,29468,1057,750,578,641,9704,31267,11566,34871,38979,29367,771,3257,22411,38035,4503,34010,40244,39183
1289,12953,392,216,219,209,216,218,1761,17418,398,162,159,156,154,156,1814,8047,1374,1329,1306,1299,1308,1307,403,3969,204,181,170,172,175,180,1043,1041,16944,36742,9747,23747,1357,1059,711,766,11303,16380,5082,29580,1060,750,574,642,9694,31248,11574,34938,38956,29360,768,3259,22416,38081,4510,34062,40231,39195
1289,12966,391,217,219,207,218,217,1762,17441,394,165,160,155,160,157,1813,8054,1372,1331,1310,1300,1311,1307,403,3977,204,180,168,169,176,175,1044,1043,17000,36943,9774,23891,1365,1063,716,769,11336,16465,5092,29717,1064,755,577,641,9684,31261,11587,35035,38946,29365,770,3268,22451,38205,4515,34146,40247,39225
1289,12987,393,213,220,210,218,217,1761,17463,397,163,155,159,156,155,1815,8063,1375,1332,1310,1305,1306,1309,403,3981,207,184,170,170,175,175,1050,1051,17057,37137,9806,24018,1369,1067,719,771,11361,16551,5105,29827,1069,757,575,643,9677,31279,11599,35139,38939,29372,773,3276,22499,38341,4523,34247,40266,39273
1289,13010,390,217,219,211,217,218,1761,17490,395,160,159,160,154,158,1814,8074,1374,1334,1309,1301,1307,1313,402,3989,205,182,178,183,180,177,1054,1052,17100,37295,9829,24137,1374,1070,720,776,11383,16617,5113,29938,1074,758,575,640,9676,31306,11613,35229,38945,29389,775,3290,22541,38471,4527,34337,40284,39314
1290,13025,392,218,221,207,216,217,1763,17531,400,168,158,154,154,156,1815,8088,1375,1331,1310,1301,1308,1307,402,3992,206,183,170,170,175,177,1058,1054,17136,37469,9852,24254,1379,1074,723,775,11402,16684,5122,30045,1076,761,576,641,9680,31343,11628,35331,38954,29405,773,3306,22580,38597,4539,34433,40316,39368
1291,13049,392,216,218,209,217,215,1763,17568,401,162,157,160,158,155,1817,8104,1375,1330,1308,1298,1306,1306,402,4001,209,181,175,169,174,176,1058,1056,17188,37670,9871,24397,1381,1071,725,780,11425,16773,5132,30182,1079,764,577,644,9675,31360,11653,35473,38963,29424,777,3317,22626,38737,4544,34553,40356,39433
1293,13053,394,219,219,209,218,217,1768,17602,400,162,154,157,157,157,1815,8113,1373,1330,1308,1301,1306,1306,402,4006,209,181,170,170,177,179,1057,1056,17158,37485,9854,24106,1371,1064,725,779,11406,16648,5112,29814,1065,751,576,645,9700,31445,11624,35226,38971,29400,774,3331,22655,38763,4545,34473,40329,39349
1295,13004,390,217,219,209,216,217,1768,17543,397,160,162,158,157,156,1817,8066,1375,1332,1311,1301,1306,1307,403,4002,206,181,173,170,176,177,1051,1047,16959,36758,9732,23629,1358,1060,716,763,11274,16293,5059,29365,1051,744,578,643,9727,31357,11544,34809,38957,29344,774,3289,22525,38256,4514,34088,40235,39186
1287,12978,393,218,219,209,218,220,1767,17497,399,167,158,161,157,156,1813,8056,1372,1334,1310,1304,1310,1309,403,3992,209,180,170,168,177,185,1046,1043,16899,36534,9693,23508,1354,1057,708,761,11253,16238,5054,29293,1050,743,574,639,9712,31266,11521,34687,38934,29309,770,3256,22416,38003,4501,33931,40161,39093
1291,12965,390,217,221,213,218,219,1765,17459,399,155,159,161,160,159,1817,8051,1374,1328,1305,1296,1303,1303,403,3988,208,180,164,171,175,175,1045,1042,16902,36554,9685,23548,1351,1053,707,759,11263,16271,5054,29362,1049,742,575,639,9703,31235,11522,34692,38911,29290,769,3246,22393,37965,4495,33914,40130,39075
1291,12962,394,217,219,208,218,218,1764,17461,398,163,158,156,156,148,1806,8046,1363,1321,1301,1289,1292,1292,403,3987,205,183,173,170,179,179,1041,1036,16906,36577,9690,23553,1347,1048,707,759,11278,16293,5055,29365,1047,741,573,637,9695,31215,11518,34681,38887,29267,768,3248,22405,37991,4494,33897,40103,39050
1285,12950,389,222,217,208,217,216,1760,17441,396,166,157,158,158,160,1800,8028,1357,1312,1290,1286,1292,1291,402,3982,205,183,171,172,175,175,1036,1031,16908,36574,9685,23581,1342,1048,705,760,11284,16305,5059,29407,1049,742,575,640,9686,31184,11514,34699,38871,29254,770,3248,22400,37986,4490,33901,40089,39048
1287,12960,390,217,218,209,216,216,1760,17447,400,163,161,158,157,159,1796,8030,1358,1313,1291,1283,1293,1294,404,3982,206,183,170,170,174,174,1033,1031,16940,36728,9712,23704,1349,1051,709,760,11302,16379,5068,29533,1054,745,573,639,9674,31179,11529,34781,38873,29263,769,3254,22423,38085,4495,33966,40099,39074
1287,12984,391,219,219,209,217,218,1758,17470,395,163,155,160,156,156,1796,8042,1357,1314,1293,1285,1291,1289,400,3983,204,182,169,169,176,176,1035,1037,16998,36932,9737,23850,1352,1055,711,763,11333,16464,5082,29660,1057,749,577,637,9676,31211,11541,34885,38876,29274,769,3264,22463,38215,4503,34059,40119,39118
1288,13006,392,217,217,207,217,217,1759,17499,400,161,159,156,157,156,1795,8048,1356,1314,1290,1281,1288,1288,402,3989,205,183,174,173,180,192,1043,1040,17044,37118,9771,23979,1358,1058,711,769,11356,16544,5090,29782,1060,749,574,643,9671,31227,11566,35005,38875,29291,767,3279,22508,38354,4513,34160,40147,39171
1291,13027,389,216,218,207,216,216,1762,17529,400,162,157,156,156,157,1796,8059,1353,1311,1291,1287,1299,1303,407,3991,208,180,172,167,178,175,1041,1038,17089,37288,9790,24095,1359,1059,716,768,11381,16615,5101,29907,1065,749,575,644,9671,31255,11577,35109,38885,29310,770,3289,22552,38479,4521,34253,40176,39221
1288,13043,394,219,221,208,217,215,1760,17557,401,162,158,157,153,159,1817,8106,1383,1340,1317,1304,1309,1306,405,3999,205,181,171,173,177,173,1044,1043,17139,37467,9813,24218,1366,1061,714,770,11393,16676,5111,29989,1066,752,575,643,9675,31305,11596,35227,38898,29338,768,3303,22589,38606,4529,34347,40211,39271
1293,13085,391,212,218,210,220,215,1761,17591,398,160,160,160,157,156,1806,8101,1364,1317,1295,1284,1293,1291,398,4005,206,180,171,170,177,173,1045,1047,17185,37647,9835,24355,1367,1060,718,773,11421,16763,5118,30141,1069,756,578,644,9681,31347,11622,35370,38925,29367,773,3316,22626,38744,4539,34463,40253,39348
1295,13114,394,217,218,208,215,218,1765,17647,402,164,158,157,159,159,1795,8108,1358,1317,1301,1293,1309,1308,404,4011,205,191,170,169,175,179,1045,1045,17220,37805,9856,24391,1368,1059,717,775,11443,16842,5125,30148,1068,749,577,647,9673,31381,11641,35421,38950,29382,769,3333,22671,38887,4547,34560,40295,39371
1291,13057,391,219,219,210,215,216,1767,17603,400,162,162,160,155,158,1814,8097,1368,1325,1301,1291,1295,1295,401,4001,206,181,171,168,176,175,1042,1038,17023,36996,9735,23720,1344,1043,711,767,11307,16391,5063,29431,1047,737,578,645,9732,31403,11554,34858,38977,29336,775,3319,22623,38541,4514,34155,40209,39187
1289,12998,393,217,218,209,216,217,1764,17508,398,162,158,162,160,156,1800,8049,1356,1313,1290,1283,1289,1287,401,3982,203,182,172,169,176,176,1028,1025,16850,36403,9645,23386,1332,1034,701,752,11234,16199,5037,29179,1038,735,575,641,9708,31235,11507,34573,38952,29282,773,3268,22444,38036,4491,33834,40109,39032
1285,12963,389,217,217,209,216,217,1760,17451,396,163,160,159,153,157,1794,8035,1351,1311,1289,1280,1285,1289,397,3973,204,180,169,173,178,176,1021,1019,16791,36177,9608,23257,1325,1033,698,749,11220,16147,5030,29119,1039,734,575,637,9691,31147,11484,34463,38931,29237,769,3246,22367,37825,4479,33700,40045,38951
1287,12961,390,216,217,207,215,214,1757,17427,395,163,156,155,155,157,1790,8025,1351,1309,1287,1279,1285,1287,402,3971,204,183,171,172,178,174,1020,1021,16798,36199,9610,23283,1324,1034,697,746,11239,16185,5039,29171,1041,735,575,637,9681,31118,11486,34455,38908,29215,767,3235,22349,37805,4477,33683,40024,38922
1285,12949,389,221,216,208,215,217,1758,17420,396,168,158,156,156,153,1791,8023,1351,1308,1286,1277,1284,1286,402,3970,206,185,170,168,175,179,1018,1019,16801,36189,9607,23281,1324,1034,699,752,11250,16199,5041,29180,1039,735,578,636,9682,31100,11477,34428,38887,29187,767,3233,22357,37804,4476,33659,39998,38895
1283,12940,394,217,217,208,217,217,1758,17414,398,164,159,159,154,159,1794,8036,1366,1332,1312,1306,1313,1318,402,3975,207,178,174,168,179,176,1020,1017,16824,36261,9625,23344,1331,1039,698,752,11263,16231,5045,29237,1046,738,575,635,9673,31084,11479,34462,38852,29170,764,3235,22361,37834,4477,33679,39979,38887
1285,12952,391,216,217,208,218,218,1755,17418,396,162,158,158,153,169,1819,8063,1373,1328,1303,1295,1297,1296,405,3980,207,180,170,170,179,175,1025,1025,16890,36447,9650,23477,1336,1043,703,756,11290,16318,5057,29367,1049,740,576,636,9691,31143,11493,34559,38859,29181,767,3243,22399,37952,4482,33759,39984,38921
1286,12977,394,216,218,208,217,218,1757,17455,403,172,163,156,157,156,1801,8048,1358,1319,1295,1287,1294,1292,402,3984,206,180,171,168,175,176,1027,1025,16934,36631,9680,23605,1339,1042,705,758,11322,16401,5068,29490,1050,743,572,637,9683,31159,11510,34655,38856,29185,771,3254,22435,38081,4492,33858,39999,38963
1285,12991,390,217,218,210,216,215,1759,17482,396,163,156,161,159,156,1800,8060,1359,1315,1291,1282,1291,1291,401,3991,206,180,172,173,175,175,1031,1027,16980,36799,9698,23723,1341,1043,705,763,11349,16475,5076,29605,1053,746,575,638,9680,31179,11523,34756,38855,29204,769,3261,22474,38202,4498,33944,40021,39001
1288,13008,393,218,218,207,215,218,1759,17515,398,162,153,155,157,156,1797,8075,1359,1317,1296,1282,1291,1291,404,3996,205,181,170,169,176,177,1032,1029,17012,36959,9722,23837,1350,1045,706,763,11362,16544,5084,29707,1057,746,575,639,9679,31214,11540,34855,38874,29226,766,3275,22511,38323,4507,34037,40047,39049
1288,13046,392,211,218,208,215,216,1759,17545,397,161,159,158,155,159,1798,8087,1356,1315,1292,1286,1289,1290,401,4004,206,179,170,169,178,186,1034,1030,17060,37141,9743,23968,1351,1048,710,764,11383,16613,5092,29823,1058,747,574,640,9676,31242,11558,34968,38886,29251,771,3287,22549,38449,4513,34134,40079,39106
1291,13078,389,215,217,207,215,216,1761,17585,402,169,161,160,159,156,1799,8106,1355,1315,1294,1286,1296,1294,402,4008,206,181,176,166,172,178,1034,1035,17113,37357,9772,24107,1355,1051,712,765,11407,16707,5103,29960,1063,751,574,642,9676,31285,11584,35117,38907,29279,773,3300,22589,38601,4523,34254,40127,39172
1288,13079,390,219,219,209,216,218,1762,17612,398,159,155,158,153,158,1807,8125,1367,1332,1314,1311,1318,1322,402,4013,205,180,175,173,179,176,1037,1035,17102,37223,9757,23854,1349,1046,711,766,11400,16606,5087,29625,1053,741,575,643,9701,31357,11562,34907,38939,29270,774,3312,22634,38645,4518,34179,40109,39102
1290,13011,391,217,217,208,217,217,1763,17511,398,158,162,162,155,157,1826,8094,1378,1334,1309,1300,1303,1303,402,3994,205,183,169,166,173,180,1032,1029,16875,36381,9629,23307,1328,1038,703,754,11249,16224,5037,29121,1039,733,570,639,9727,31257,11488,34463,38948,29221,769,3275,22491,38111,4486,33747,40018,38929
1286,12963,388,213,217,207,215,217,1756,17438,396,162,157,158,160,153,1810,8061,1369,1322,1299,1290,1297,1294,402,3979,205,180,171,166,175,179,1019,1017,16776,36019,9568,23097,1319,1031,697,748,11224,16135,5026,28994,1034,731,573,637,9709,31136,11461,34301,38919,29169,769,3241,22371,37785,4467,33542,39948,38821
1285,12938,393,215,218,207,215,217,1755,17391,397,163,162,154,160,156,1802,8049,1360,1319,1296,1287,1295,1294,400,3974,205,182,184,169,176,177,1016,1013,16735,35895,9555,23056,1319,1028,696,747,11221,16126,5025,29003,1034,733,573,634,9694,31082,11450,34237,38895,29141,763,3222,22319,37659,4461,33470,39887,38760
1282,12927,387,215,217,208,216,215,1751,17385,393,162,162,153,160,156,1802,8051,1359,1320,1297,1288,1296,1296,401,3969,204,179,170,169,175,177,1013,1013,16759,35939,9559,23087,1318,1028,698,749,11245,16170,5030,29037,1034,733,575,636,9688,31063,11445,34233,38881,29120,761,3221,22329,37690,4462,33464,39871,38737
1280,12910,391,215,218,208,219,219,1753,17370,395,163,163,157,157,155,1808,8062,1375,1336,1314,1303,1307,1304,401,3971,209,180,175,169,176,177,1016,1011,16774,35967,9567,23098,1321,1032,697,749,11251,16181,5034,29041,1039,737,572,633,9686,31051,11447,34236,38844,29099,766,3221,22333,37695,4461,33453,39846,38716
1284,12923,391,217,217,204,215,216,1753,17376,395,166,159,156,153,154,1807,8053,1363,1323,1299,1291,1296,1295,401,3971,205,185,169,171,179,180,1018,1015,16806,36073,9580,23205,1324,1034,700,752,11274,16253,5041,29162,1042,736,575,633,9697,31080,11456,34310,38849,29107,766,3224,22358,37779,4463,33512,39837,38736
1284,12935,391,215,217,206,214,215,1754,17393,398,163,158,155,154,161,1804,8060,1363,1320,1299,1287,1295,1295,402,3975,205,190,172,165,175,177,1018,1017,16863,36285,9613,23342,1328,1037,702,755,11306,16339,5052,29289,1043,738,571,634,9695,31117,11472,34399,38861,29126,766,3234,22391,37898,4472,33601,39843,38768
1283,12943,388,212,215,209,214,213,1753,17420,395,162,159,161,156,155,1804,8071,1358,1318,1296,1287,1294,1292,401,3981,207,181,171,172,174,178,1024,1020,16915,36469,9636,23465,1332,1037,702,755,11335,16416,5060,29411,1046,741,574,637,9696,31149,11486,34497,38879,29139,767,3243,22432,38022,4478,33686,39862,38807
1282,12942,391,213,215,205,215,217,1753,17452,400,162,159,154,157,157,1804,8082,1361,1317,1295,1286,1293,1292,401,3987,205,181,167,167,179,177,1023,1021,16961,36658,9666,23580,1338,1040,704,758,11357,16485,5070,29511,1050,743,572,637,9703,31202,11509,34589,38911,29172,768,3253,22471,38155,4486,33773,39882,38850
1281,12947,393,217,217,206,214,215,1756,17493,397,163,163,157,161,159,1801,8095,1355,1315,1292,1285,1291,1293,401,3993,206,179,171,171,176,175,1025,1026,17011,36834,9688,23699,1340,1040,705,760,11376,16557,5077,29625,1052,745,576,638,9710,31256,11524,34697,38950,29203,771,3264,22512,38277,4493,33869,39915,38906
1281,12943,386,213,217,206,213,214,1758,17528,400,159,159,158,158,157,1801,8108,1356,1313,1290,1283,1290,1287,408,4003,199,180,172,169,174,177,1028,1025,17049,37010,9712,23821,1344,1042,707,762,11401,16634,5088,29738,1055,747,573,639,9711,31284,11546,34811,38963,29229,766,3275,22545,38402,4501,33967,39949,38961
1279,12959,389,214,218,206,213,217,1759,17563,398,162,163,156,159,157,1795,8118,1355,1313,1294,1284,1292,1292,402,4010,201,180,169,169,176,176,1031,1029,17097,37191,9739,23943,1353,1049,710,764,11424,16710,5097,29849,1059,747,578,643,9709,31317,11564,34931,38979,29257,769,3289,22595,38541,4511,34076,39991,39021
1280,12986,389,213,218,206,215,214,1759,17597,400,164,158,159,156,156,1804,8141,1360,1318,1294,1287,1292,1294,405,4021,210,181,170,168,175,175,1035,1033,17149,37399,9766,24090,1355,1049,712,767,11446,16800,5110,29985,1065,752,576,641,9712,31370,11589,35075,39004,29289,767,3299,22637,38691,4520,34197,40039,39090
1282,12983,387,216,216,205,214,214,1762,17624,397,166,155,157,160,155,1806,8153,1361,1317,1294,1287,1295,1292,403,4025,204,182,173,167,175,174,1036,1034,17108,37188,9740,23784,1341,1039,714,765,11431,16663,5087,29598,1047,739,576,643,9740,31445,11563,34827,39044,29281,771,3311,22667,38706,4513,34087,40025,39011
1275,12890,387,213,215,205,212,213,1760,17513,398,160,154,155,153,157,1803,8103,1359,1315,1293,1281,1289,1287,401,4003,205,179,170,169,175,179,1023,1020,16863,36311,9607,23241,1319,1031,701,751,11275,16275,5036,29094,1034,730,575,639,9747,31306,11489,34379,39053,29232,770,3274,22507,38126,4479,33650,39929,38830
1271,12847,386,213,211,205,213,213,1755,17433,395,166,157,159,155,155,1797,8083,1353,1312,1290,1283,1290,1290,401,3991,207,183,172,167,175,175,1014,1013,16777,35972,9558,23043,1317,1026,694,747,11246,16194,5027,28968,1034,731,575,636,9726,31186,11458,34223,39037,29201,766,3233,22392,37822,4460,33462,39863,38721
1268,12825,386,213,219,204,213,214,1753,17390,398,160,159,154,155,156,1797,8077,1359,1314,1291,1283,1290,1288,402,3991,205,180,169,171,175,179,1014,1012,16742,35850,9542,22991,1315,1027,695,747,11246,16189,5027,28987,1033,730,573,635,9719,31146,11451,34179,39020,29171,764,3220,22343,37702,4459,33403,39818,38675
1270,12818,387,215,211,206,211,213,1753,17382,394,159,159,157,157,159,1797,8070,1352,1309,1286,1278,1284,1284,403,3994,206,180,171,172,176,176,1011,1010,16752,35849,9535,22987,1311,1022,697,747,11265,16213,5029,28989,1034,730,576,635,9711,31129,11446,34163,39006,29155,764,3220,22351,37716,4457,33379,39789,38651
1266,12796,383,215,216,203,212,215,1751,17367,396,162,158,157,156,156,1791,8067,1346,1303,1281,1272,1278,1279,405,3991,206,179,171,173,176,179,1010,1007,16741,35827,9532,22992,1309,1020,694,748,11266,16220,5031,29003,1033,729,575,632,9702,31093,11445,34162,38984,29137,762,3214,22342,37699,4461,33375,39773,38636
1263,12794,383,213,212,207,214,213,1749,17364,394,171,155,161,161,156,1787,8064,1343,1304,1279,1271,1280,1281,400,3991,205,182,173,165,175,176,1005,1007,16770,35931,9545,23089,1315,1022,695,747,11289,16285,5039,29105,1035,732,575,633,9692,31084,11451,34223,38976,29141,763,3215,22359,37769,4460,33423,39766,38646
1265,12799,386,211,215,208,217,212,1748,17372,400,161,159,157,155,152,1790,8077,1345,1303,1282,1272,1279,1278,402,3996,205,181,170,167,174,177,1010,1008,16815,36105,9571,23199,1315,1023,696,751,11313,16349,5046,29206,1039,733,572,634,9693,31118,11463,34297,38983,29149,762,3226,22397,37882,4469,33497,39769,38673
1265,12799,384,211,215,205,212,212,1751,17396,393,162,159,161,157,156,1788,8083,1342,1301,1278,1269,1277,1276,402,4004,205,181,164,168,175,176,1011,1009,16859,36254,9587,23302,1315,1022,696,751,11330,16413,5051,29292,1040,735,574,635,9691,31133,11477,34391,38981,29165,764,3233,22427,37993,4472,33574,39781,38706
1266,12816,386,207,214,206,212,211,1753,17423,397,166,159,157,155,159,1785,8092,1343,1302,1281,1271,1277,1278,401,4007,208,179,169,167,175,176,1009,1007,16894,36399,9608,23407,1318,1025,698,751,11349,16471,5057,29383,1042,734,573,634,9692,31166,11491,34468,38982,29181,763,3243,22461,38108,4479,33647,39803,38743
1265,12834,386,213,219,203,213,212,1751,17454,396,165,162,157,160,160,1784,8102,1342,1300,1280,1272,1277,1277,401,4013,208,181,176,171,175,173,1009,1008,16932,36560,9625,23519,1321,1025,699,751,11365,16532,5061,29477,1043,736,577,639,9697,31204,11507,34577,38997,29200,766,3249,22497,38217,4486,33741,39830,38791
1263,12846,387,212,214,205,214,211,1752,17482,403,163,160,156,157,155,1787,8117,1345,1301,1279,1268,1275,1276,406,4019,207,180,169,172,175,182,1010,1010,16970,36729,9649,23636,1323,1023,701,755,11379,16597,5071,29580,1047,735,573,639,9697,31243,11526,34687,39022,29231,765,3262,22525,38335,4494,33828,39865,38843
1265,12864,385,217,212,204,212,212,1753,17515,395,162,158,154,159,158,1789,8140,1345,1309,1292,1287,1299,1302,401,4027,205,181,179,170,176,174,1014,1010,17016,36914,9668,23759,1333,1033,699,755,11397,16663,5079,29675,1049,739,576,638,9693,31270,11546,34812,39041,29254,767,3272,22564,38465,4497,33929,39907,38905
1267,12879,387,213,217,203,214,213,1755,17558,398,157,158,160,160,157,1813,8191,1370,1324,1299,1292,1294,1294,403,4040,207,181,171,169,177,184,1018,1014,17077,37090,9700,23850,1333,1028,703,757,11412,16731,5088,29727,1050,738,576,639,9708,31339,11570,34915,39084,29292,766,3288,22617,38614,4508,34020,39945,38941
1262,12845,385,211,213,204,210,213,1755,17536,397,163,157,157,157,159,1801,8148,1356,1310,1288,1280,1283,1283,402,4028,206,183,177,169,177,178,1012,1009,16909,36437,9604,23271,1308,1014,699,753,11310,16377,5039,29111,1029,725,577,639,9762,31390,11508,34437,39147,29271,769,3283,22583,38353,4484,33668,39882,38789
1259,12783,389,215,213,207,211,213,1754,17433,398,162,156,157,156,156,1793,8107,1346,1303,1283,1273,1281,1279,402,4012,206,180,169,168,174,179,998,997,16718,35807,9507,22912,1296,1007,691,742,11224,16173,5011,28836,1023,723,574,633,9732,31215,11455,34162,39142,29227,765,3233,22396,37817,4456,33356,39795,38647
1257,12753,382,212,220,206,215,212,1752,17379,390,163,157,158,156,154,1789,8094,1345,1303,1281,1274,1279,1279,401,4002,205,179,160,169,175,173,994,991,16645,35510,9461,22733,1288,1006,686,741,11209,16105,5001,28721,1019,723,576,631,9714,31110,11433,34018,39123,29191,763,3204,22309,37563,4441,33181,39733,38550
1258,12741,385,213,213,205,212,212,1748,17343,395,163,157,156,157,159,1789,8083,1344,1301,1279,1268,1277,1277,403,3999,205,179,168,169,174,182,992,991,16626,35455,9453,22735,1291,1007,685,740,11211,16125,5003,28766,1021,723,577,631,9699,31057,11424,33997,39081,29167,759,3190,22275,37511,4437,33166,39703,38527
1260,12749,381,211,216,202,212,213,1749,17340,398,163,158,155,159,156,1785,8079,1342,1297,1279,1268,1274,1273,402,4000,205,180,166,167,175,178,991,990,16630,35447,9455,22737,1292,1005,687,740,11227,16141,5009,28772,1021,724,579,631,9695,31033,11420,33982,39057,29146,762,3195,22287,37518,4435,33143,39677,38503
1259,12749,383,213,217,203,213,213,1749,17335,394,165,159,160,156,154,1782,8075,1339,1298,1275,1268,1273,1275,403,3996,206,179,170,167,178,170,995,992,16642,35478,9463,22783,1294,1008,687,742,11233,16169,5014,28821,1024,723,574,631,9691,31017,11423,34010,39041,29137,758,3191,22293,37539,4440,33160,39661,38495
1258,12757,380,207,215,204,214,213,1747,17340,393,163,159,153,159,156,1781,8078,1338,1299,1276,1267,1276,1273,401,4002,205,180,175,168,174,173,996,995,16675,35617,9479,22885,1297,1011,688,741,11256,16231,5017,28923,1027,728,575,629,9690,31037,11431,34077,39039,29145,762,3196,22317,37634,4438,33220,39663,38523
1259,12773,386,211,214,205,212,213,1753,17379,400,164,155,157,160,156,1781,8084,1339,1297,1275,1265,1273,1273,401,4004,205,181,171,169,175,177,997,997,16717,35782,9508,23003,1302,1012,691,746,11277,16299,5027,29027,1031,728,573,632,9689,31056,11443,34163,39029,29151,759,3207,22351,37753,4447,33291,39671,38550
1260,12794,384,209,213,205,213,213,1752,17408,396,166,157,156,156,153,1785,8096,1340,1297,1275,1267,1272,1273,403,4009,205,183,173,169,174,177,1000,1000,16768,35940,9531,23119,1305,1017,692,747,11298,16365,5032,29122,1033,730,574,631,9690,31082,11457,34247,39035,29166,765,3213,22390,37867,4452,33377,39685,38585
1261,12826,387,213,214,205,212,211,1752,17445,402,161,155,157,157,153,1782,8101,1340,1296,1278,1269,1274,1275,404,4018,206,181,169,163,171,168,1005,1001,16803,36107,9555,23226,1311,1019,694,750,11315,16423,5041,29216,1036,732,574,633,9695,31126,11473,34340,39041,29182,760,3229,22415,37981,4460,33457,39706,38630
1264,12842,384,214,214,205,216,212,1753,17467,395,163,156,159,156,156,1785,8118,1351,1315,1297,1294,1305,1303,403,4028,206,182,173,169,175,181,1006,1006,16859,36297,9583,23353,1318,1026,695,751,11329,16483,5047,29306,1039,735,577,633,9697,31159,11483,34443,39039,29192,764,3234,22456,38110,4461,33542,39735,38671
1266,12867,386,213,219,205,213,212,1756,17508,402,163,158,157,159,159,1814,8164,1367,1319,1292,1282,1286,1285,402,4033,205,185,174,168,176,178,1013,1011,16926,36500,9610,23493,1326,1032,698,755,11345,16557,5059,29419,1044,737,575,632,9712,31221,11508,34576,39044,29223,762,3250,22496,38241,4471,33654,39763,38734
1269,12913,386,215,215,205,211,213,1759,17549,395,166,159,158,157,157,1792,8146,1347,1307,1286,1275,1279,1280,405,4041,204,183,171,173,177,176,1015,1014,16963,36681,9635,23621,1328,1033,700,756,11372,16641,5067,29545,1046,736,575,637,9712,31255,11528,34693,39061,29247,765,3261,22536,38386,4479,33766,39812,38801
1269,12945,388,211,213,209,215,213,1759,17583,402,167,159,154,158,156,1790,8160,1350,1305,1282,1273,1281,1278,403,4048,207,179,177,167,175,176,1017,1019,17005,36857,9665,23743,1335,1033,703,757,11391,16708,5078,29655,1050,741,574,638,9711,31297,11553,34804,39093,29280,767,3273,22572,38515,4487,33869,39859,38873
1273,12980,386,212,214,204,213,212,1761,17633,397,162,155,157,158,158,1789,8174,1345,1302,1281,1277,1283,1283,405,4061,205,180,174,170,175,177,1019,1019,17053,37045,9692,23878,1337,1036,705,761,11411,16789,5089,29795,1053,742,579,641,9710,31329,11574,34950,39118,29319,768,3289,22616,38659,4493,33991,39916,38939
1271,12991,387,212,214,203,213,212,1762,17661,403,162,161,157,156,157,1793,8196,1350,1308,1283,1275,1282,1281,402,4061,206,180,170,170,177,179,1021,1021,17027,36898,9678,23613,1326,1029,706,761,11399,16683,5072,29447,1042,733,575,641,9726,31410,11557,34720,39167,29314,769,3301,22641,38685,4493,33895,39914,38879
1271,12926,384,215,213,204,212,211,1763,17568,400,160,159,157,153,152,1794,8141,1350,1308,1287,1278,1283,1282,404,4044,209,185,171,169,178,179,1014,1009,16768,35963,9530,23006,1310,1021,695,748,11236,16267,5017,28889,1026,725,577,637,9749,31271,11471,34232,39187,29279,767,3263,22486,38086,4455,33424,39825,38703
1268,12883,385,212,218,199,213,213,1757,17496,398,163,159,157,156,154,1793,8131,1350,1306,1285,1278,1283,1283,403,4033,209,183,170,167,175,175,1001,1002,16655,35558,9462,22752,1300,1016,690,743,11197,16155,5003,28723,1024,723,575,629,9722,31151,11438,34055,39175,29242,765,3221,22342,37698,4437,33195,39765,38590
1264,12843,384,211,215,204,213,212,1759,17452,395,159,158,158,158,156,1793,8117,1352,1310,1285,1277,1285,1285,401,4023,204,180,170,169,175,175,1001,1001,16597,35349,9428,22657,1299,1015,687,741,11188,16116,4999,28687,1021,724,577,633,9715,31074,11422,33979,39165,29222,763,3200,22276,37507,4425,33092,39725,38544
1265,12835,387,213,214,208,216,212,1758,17444,405,164,163,160,156,153,1792,8117,1350,1305,1283,1276,1279,1281,402,4025,206,191,170,163,173,176,999,999,16606,35381,9439,22690,1296,1013,691,744,11208,16161,5006,28742,1026,725,578,634,9700,31050,11430,33999,39151,29217,761,3196,22267,37531,4429,33103,39713,38533
1264,12831,383,212,217,204,212,213,1758,17437,396,159,158,159,156,156,1789,8111,1348,1305,1285,1275,1280,1282,403,4023,206,180,171,167,175,167,999,1000,16615,35383,9440,22711,1296,1012,689,744,11217,16174,5013,28792,1027,727,577,630,9699,31030,11426,34004,39146,29214,764,3196,22276,37529,4428,33104,39708,38527
1265,12835,385,213,213,204,215,213,1759,17451,401,163,159,159,156,157,1789,8112,1351,1306,1284,1276,1282,1282,402,4022,206,180,172,176,171,179,1002,998,16631,35481,9460,22801,1299,1015,688,744,11231,16221,5023,28898,1030,730,576,631,9692,31031,11441,34065,39143,29216,760,3198,22286,37589,4433,33147,39717,38554
1266,12841,384,215,214,205,213,211,1764,17473,397,165,161,153,154,153,1793,8119,1350,1307,1286,1277,1283,1284,402,4030,207,180,170,167,177,182,1005,1001,16685,35659,9484,22931,1304,1019,693,747,11256,16295,5032,29014,1035,731,575,632,9689,31050,11451,34153,39149,29229,763,3211,22321,37707,4438,33236,39734,38591
1264,12850,382,213,215,204,212,213,1759,17492,399,163,158,160,156,161,1792,8127,1353,1307,1285,1279,1286,1285,405,4030,209,187,167,163,172,175,1009,1005,16730,35832,9517,23053,1312,1025,696,750,11274,16359,5045,29130,1036,733,576,632,9685,31062,11470,34246,39154,29246,762,3221,22358,37830,4450,33322,39756,38637
1266,12866,383,213,215,204,215,213,1763,17520,397,162,161,157,158,159,1792,8139,1350,1308,1287,1281,1287,1287,405,4038,205,179,170,171,176,175,1012,1011,16775,35987,9542,23173,1317,1028,697,752,11290,16419,5051,29230,1039,735,577,633,9687,31084,11485,34345,39162,29259,765,3232,22389,37952,4454,33414,39788,38679
1263,12887,387,212,214,208,212,213,1762,17558,399,160,161,154,158,160,1794,8148,1354,1313,1293,1281,1287,1290,405,4042,210,178,171,176,174,175,1017,1014,16818,36158,9570,23297,1328,1034,700,756,11309,16483,5062,29329,1044,738,577,635,9688,31122,11505,34446,39181,29284,763,3244,22429,38075,4460,33508,39817,38732
1267,12899,385,212,214,204,210,214,1764,17592,397,165,158,153,157,157,1797,8163,1353,1314,1291,1282,1289,1290,404,4050,206,183,170,169,174,175,1019,1019,16867,36342,9594,23423,1330,1037,703,759,11325,16553,5068,29428,1049,743,578,637,9691,31151,11523,34563,39197,29313,766,3255,22463,38204,4468,33612,39851,38786
1266,12921,386,213,215,207,212,213,1770,17657,402,162,160,157,159,159,1800,8181,1356,1315,1292,1286,1293,1293,404,4053,206,178,179,164,175,175,1025,1022,16915,36534,9627,23559,1339,1041,704,761,11345,16624,5077,29534,1051,745,577,637,9693,31203,11547,34682,39223,29341,766,3270,22507,38342,4479,33723,39893,38851
1267,12945,385,214,215,207,213,210,1782,17783,401,161,161,157,156,156,1805,8203,1361,1315,1297,1287,1297,1296,403,4053,206,180,169,169,175,177,1028,1025,16964,36723,9650,23686,1342,1044,708,763,11366,16697,5085,29659,1056,748,580,638,9705,31247,11567,34805,39256,29378,769,3284,22539,38479,4485,33826,39954,38924
1268,12971,390,216,214,209,216,214,1786,17849,406,163,160,156,156,151,1807,8224,1364,1319,1297,1288,1296,1299,403,4060,207,184,174,168,175,175,1032,1032,17005,36923,9680,23830,1348,1048,710,769,11386,16777,5097,29782,1061,749,579,642,9700,31290,11599,34958,39277,29413,767,3300,22583,38622,4499,33951,40006,39003
1267,12987,390,213,217,205,212,213,1786,17871,404,166,158,157,156,155,1812,8244,1367,1326,1302,1296,1301,1301,402,4063,205,183,171,170,175,178,1035,1033,16996,36822,9672,23607,1339,1039,711,769,11380,16693,5084,29491,1049,741,579,642,9726,31376,11579,34757,39342,29417,773,3314,22615,38663,4494,33875,40009,38952
1266,12917,387,213,215,206,217,213,1789,17795,403,161,162,154,157,159,1814,8206,1371,1328,1305,1295,1301,1304,403,4046,207,181,168,173,175,176,1027,1024,16743,35932,9536,23029,1322,1035,702,755,11221,16291,5035,28959,1038,734,579,638,9747,31253,11498,34285,39363,29390,768,3277,22462,38088,4457,33433,39933,38784
1264,12874,386,218,216,207,215,215,1783,17708,401,162,156,158,158,156,1812,8187,1369,1329,1307,1300,1306,1304,405,4035,207,181,173,169,176,177,1019,1016,16647,35575,9479,22822,1317,1033,699,752,11187,16195,5020,28819,1034,734,579,636,9719,31118,11471,34149,39353,29364,766,3240,22330,37733,4439,33243,39885,38700
1262,12858,390,214,215,206,214,214,1783,17671,405,160,157,153,158,153,1816,8173,1375,1329,1311,1299,1306,1308,404,4033,206,181,172,170,180,176,1019,1016,16607,35438,9463,22773,1321,1031,700,754,11179,16171,5017,28813,1035,735,577,633,9712,31063,11462,34101,39351,29355,765,3223,22270,37589,4436,33181,39861,38671
1263,12858,386,215,217,211,219,211,1780,17669,399,166,158,153,160,156,1815,8169,1373,1332,1309,1299,1308,1307,403,4025,206,181,169,168,175,175,1019,1017,16630,35497,9472,22802,1321,1030,700,753,11203,16217,5027,28845,1035,738,581,633,9704,31049,11465,34107,39335,29348,765,3224,22289,37631,4435,33189,39859,38665
1262,12852,389,211,213,206,215,218,1781,17665,403,159,156,156,160,156,1816,8173,1375,1333,1310,1301,1307,1307,402,4025,207,181,171,173,176,177,1022,1018,16629,35471,9475,22799,1322,1033,700,754,11210,16214,5027,28856,1038,739,575,631,9699,31019,11465,34102,39336,29342,764,3225,22289,37611,4436,33186,39859,38663
1261,12850,384,213,215,205,215,213,1783,17690,399,162,157,160,157,156,1816,8173,1376,1333,1308,1302,1307,1307,401,4021,206,181,173,173,178,174,1019,1021,16657,35563,9487,22881,1326,1036,701,757,11225,16261,5037,28945,1039,741,579,632,9699,31005,11471,34166,39335,29348,766,3226,22304,37672,4439,33233,39877,38695
1261,12857,390,214,218,206,214,217,1785,17693,403,163,158,156,153,155,1817,8175,1374,1331,1307,1301,1307,1305,401,4027,206,181,170,170,175,175,1023,1022,16697,35738,9512,23007,1326,1039,703,760,11245,16330,5045,29057,1043,742,577,634,9690,31018,11490,34250,39328,29355,764,3239,22339,37792,4450,33316,39893,38733
1260,12882,387,215,216,203,210,215,1788,17764,400,162,157,154,156,159,1815,8177,1371,1330,1306,1298,1305,1308,399,4022,207,180,171,168,175,176,1025,1025,16745,35893,9537,23123,1328,1042,705,762,11266,16393,5050,29154,1046,741,579,633,9690,31029,11499,34338,39330,29367,769,3248,22381,37909,4456,33402,39918,38781
1262,12893,388,215,215,209,215,217,1788,17779,403,162,156,157,160,155,1819,8197,1387,1350,1335,1329,1337,1336,401,4030,207,184,171,168,178,176,1027,1025,16785,36054,9561,23232,1341,1044,706,761,11278,16439,5055,29226,1049,746,577,634,9689,31049,11511,34426,39329,29375,767,3260,22414,38025,4462,33483,39944,38820
1266,12914,387,216,219,201,215,215,1792,17832,401,164,159,154,159,155,1844,8227,1393,1347,1323,1308,1313,1310,401,4033,206,181,171,169,177,176,1033,1031,16841,36207,9583,23351,1343,1047,709,765,11296,16502,5062,29328,1049,747,579,636,9702,31092,11535,34547,39341,29404,769,3274,22450,38161,4466,33577,39973,38871
1263,12930,390,213,213,206,213,214,1795,17870,409,167,159,155,154,156,1817,8211,1377,1332,1306,1297,1305,1304,402,4030,206,182,172,171,176,176,1033,1030,16864,36367,9605,23478,1340,1046,709,766,11313,16570,5071,29443,1054,747,580,639,9698,31109,11557,34662,39354,29420,767,3286,22487,38284,4478,33683,40008,38935
1263,12951,386,212,216,202,213,213,1794,17893,402,159,159,157,159,156,1813,8215,1370,1327,1307,1299,1305,1303,401,4038,205,181,169,169,176,176,1032,1030,16911,36550,9632,23617,1348,1047,710,766,11331,16641,5080,29570,1056,749,580,639,9692,31131,11579,34803,39374,29453,774,3297,22531,38423,4485,33793,40058,38999
1266,12985,391,219,215,205,213,214,1800,17938,411,162,158,160,152,157,1812,8237,1374,1327,1306,1297,1305,1305,400,4043,207,182,170,170,177,179,1033,1034,16955,36741,9661,23730,1350,1051,713,768,11355,16715,5091,29658,1058,747,578,638,9691,31167,11607,34915,39405,29476,771,3311,22575,38571,4496,33908,40101,39051
1266,12963,387,212,222,207,213,214,1801,17933,404,159,157,160,159,153,1816,8220,1375,1331,1310,1301,1307,1306,402,4039,205,182,171,169,175,179,1035,1031,16817,36175,9577,23188,1330,1038,707,763,11263,16399,5047,29084,1038,736,581,641,9731,31201,11543,34449,39458,29458,773,3312,22554,38347,4475,33603,40058,38921
1263,12906,388,216,217,207,215,214,1799,17839,407,163,158,155,157,160,1814,8180,1373,1328,1305,1297,1306,1306,399,4015,205,182,170,169,177,176,1022,1019,16631,35554,9476,22821,1317,1032,702,754,11167,16171,5021,28813,1033,731,580,637,9714,31035,11486,34167,39444,29424,769,3266,22370,37815,4450,33287,39987,38791
1261,12879,387,214,217,209,215,213,1797,17793,404,164,160,160,158,157,1814,8169,1371,1327,1306,1296,1306,1304,398,4006,207,180,171,173,176,176,1015,1015,16574,35329,9442,22693,1311,1029,695,752,11147,16109,5012,28739,1029,731,580,632,9697,30935,11466,34065,39431,29402,772,3239,22287,37582,4437,33165,39952,38733
1263,12862,390,214,217,209,215,214,1794,17763,404,161,163,158,156,158,1812,8150,1374,1331,1307,1299,1305,1304,400,4002,205,181,170,168,179,175,1016,1013,16570,35335,9442,22733,1312,1030,695,749,11151,16131,5015,28791,1033,731,579,631,9685,30897,11471,34079,39417,29396,765,3232,22261,37541,4437,33166,39951,38736
1259,12866,387,214,213,206,215,214,1795,17751,401,162,155,158,160,155,1810,8142,1370,1328,1304,1297,1304,1301,400,3997,205,184,173,169,175,176,1013,1014,16587,35357,9443,22746,1313,1029,696,750,11165,16142,5020,28803,1032,732,579,632,9685,30877,11468,34077,39411,29384,767,3234,22274,37558,4435,33165,39946,38731
1258,12851,388,212,216,207,216,215,1795,17747,405,167,159,158,155,153,1810,8133,1368,1325,1299,1291,1298,1298,399,3992,205,181,173,166,175,176,1012,1013,16592,35388,9449,22798,1313,1028,696,752,11171,16166,5023,28859,1033,734,577,632,9677,30848,11468,34100,39402,29377,765,3235,22279,37569,4441,33186,39951,38746
1260,12863,386,216,217,207,214,214,1791,17732,401,164,159,160,155,158,1806,8133,1368,1326,1304,1295,1299,1301,402,3994,205,181,170,173,175,177,1015,1013,16633,35551,9472,22927,1317,1031,700,753,11193,16231,5030,28982,1038,735,579,633,9675,30852,11483,34191,39399,29392,768,3243,22305,37670,4444,33265,39972,38783
1261,12875,388,216,217,205,216,213,1792,17769,402,166,161,160,156,156,1803,8134,1366,1324,1300,1293,1297,1297,399,3994,209,181,172,169,175,178,1019,1014,16684,35737,9504,23061,1322,1035,699,755,11212,16300,5040,29090,1042,737,577,633,9673,30877,11501,34291,39397,29400,766,3255,22346,37799,4452,33360,39996,38836
1260,12889,386,213,214,207,213,215,1793,17790,401,160,161,160,154,156,1803,8139,1364,1321,1302,1294,1305,1315,398,3993,206,180,171,170,178,175,1022,1022,16733,35909,9528,23187,1325,1037,701,760,11234,16366,5049,29198,1042,741,579,633,9674,30894,11514,34396,39399,29410,770,3263,22387,37924,4461,33455,40026,38881
1260,12897,391,216,220,208,215,216,1791,17803,407,163,159,157,158,159,1827,8183,1402,1360,1337,1327,1333,1329,399,4002,206,182,171,169,177,177,1024,1025,16789,36095,9558,23305,1336,1045,703,760,11251,16420,5059,29284,1048,742,581,636,9683,30938,11533,34498,39395,29429,769,3277,22430,38047,4467,33546,40051,38929
1264,12925,392,219,216,206,213,215,1797,17837,405,167,159,157,158,157,1831,8177,1383,1338,1313,1307,1307,1309,401,4004,211,185,170,169,176,177,1030,1029,16839,36271,9582,23439,1339,1043,705,763,11271,16494,5067,29417,1050,745,581,634,9698,30987,11557,34634,39420,29454,772,3289,22474,38177,4472,33658,40089,38991
1262,12942,390,215,217,207,212,216,1793,17864,404,166,157,159,160,156,1811,8179,1371,1331,1309,1303,1305,1305,399,4009,205,181,170,170,176,177,1031,1030,16883,36454,9612,23579,1345,1047,709,764,11290,16570,5076,29546,1055,748,579,637,9690,31016,11576,34752,39442,29483,771,3303,22507,38319,4484,33771,40129,39058
1262,12962,387,216,214,205,214,214,1797,17914,403,168,160,157,154,159,1810,8190,1370,1327,1305,1295,1301,1302,399,4013,206,182,166,170,179,176,1033,1031,16927,36657,9639,23715,1348,1049,713,767,11313,16645,5085,29673,1057,747,584,640,9691,31056,11599,34874,39464,29511,773,3316,22551,38452,4492,33887,40183,39123
1266,12991,391,214,218,206,214,217,1797,17947,407,166,158,155,156,157,1807,8204,1371,1330,1305,1296,1304,1304,401,4022,206,182,169,170,176,175,1036,1030,16974,36854,9669,23860,1353,1052,711,768,11334,16727,5101,29811,1064,752,582,640,9692,31091,11623,35005,39483,29535,771,3326,22591,38593,4504,34013,40226,39196
1267,13019,387,215,215,204,214,214,1800,17985,405,167,157,155,161,157,1809,8222,1371,1327,1305,1297,1307,1306,400,4021,205,186,172,169,174,176,1038,1039,17007,36935,9689,23812,1348,1047,715,774,11357,16761,5100,29708,1056,745,585,642,9699,31145,11630,34961,39524,29554,775,3342,22638,38713,4507,34066,40251,39196
1262,12951,388,215,215,212,213,215,1801,17938,405,167,157,158,154,152,1813,8180,1372,1331,1308,1299,1305,1304,398,4005,206,180,169,169,175,178,1032,1028,16747,36005,9538,23095,1325,1035,708,759,11183,16274,5037,29013,1036,734,581,634,9741,31097,11531,34355,39557,29519,774,3323,22537,38233,4471,33577,40164,39007
1261,12895,386,214,217,205,214,215,1799,17835,403,157,162,158,156,158,1809,8146,1370,1330,1310,1301,1307,1309,398,3984,205,181,170,169,175,177,1020,1018,16596,35450,9447,22775,1314,1029,697,751,11115,16088,5010,28767,1029,730,581,635,9713,30922,11481,34109,39547,29475,771,3273,22344,37714,4444,33278,40085,38870
1258,12861,391,212,216,206,216,215,1793,17759,403,166,155,158,155,157,1811,8123,1372,1331,1306,1298,1305,1303,398,3971,201,181,171,169,175,177,1015,1014,16523,35173,9406,22605,1310,1026,693,748,11089,16011,5004,28656,1028,730,579,632,9697,30823,11457,33963,39522,29438,768,3246,22261,37457,4430,33116,40031,38794
1258,12837,387,214,217,205,212,213,1793,17740,398,161,161,158,158,155,1807,8106,1369,1325,1305,1298,1301,1301,399,3967,205,179,170,170,175,176,1013,1010,16519,35159,9399,22635,1309,1025,693,748,11095,16023,5003,28708,1029,734,580,632,9686,30764,11453,33967,39490,29417,768,3238,22229,37404,4428,33103,40015,38775
1257,12829,388,214,216,206,215,213,1792,17707,405,162,158,157,157,155,1803,8095,1367,1323,1301,1292,1301,1300,397,3963,206,183,173,174,175,176,1012,1009,16521,35172,9405,22646,1310,1024,695,751,11105,16034,5009,28727,1030,732,574,631,9682,30737,11451,33949,39479,29402,766,3238,22233,37402,4429,33092,40008,38763
1258,12816,386,213,217,205,213,213,1795,17723,402,162,158,158,156,154,1801,8081,1365,1323,1302,1292,1298,1298,396,3954,208,181,171,169,175,177,1013,1011,16539,35229,9413,22713,1310,1025,696,751,11116,16066,5013,28799,1031,735,579,630,9672,30717,11454,33982,39459,29391,769,3236,22245,37424,4428,33120,40009,38778
1254,12818,386,212,217,207,211,215,1792,17734,403,163,162,158,160,154,1799,8081,1362,1319,1299,1290,1298,1296,397,3952,209,184,171,168,175,176,1014,1011,16583,35397,9441,22845,1315,1028,695,753,11139,16131,5023,28923,1036,737,575,627,9665,30723,11466,34061,39443,29388,765,3244,22274,37530,4434,33195,40019,38812
1255,12823,386,215,215,206,215,214,1794,17749,399,163,164,157,158,157,1797,8085,1360,1320,1295,1289,1294,1291,399,3952,204,179,174,170,174,175,1015,1013,16635,35578,9465,22973,1316,1030,700,754,11161,16203,5035,29039,1039,740,579,631,9666,30743,11478,34157,39431,29394,768,3255,22313,37653,4442,33290,40035,38853
1255,12836,386,213,218,206,213,212,1793,17770,403,161,157,159,158,150,1795,8086,1359,1318,1297,1293,1297,1298,395,3957,209,181,169,169,178,176,1016,1017,16683,35748,9495,23101,1322,1031,703,757,11184,16269,5044,29149,1041,738,578,632,9664,30763,11492,34249,39433,29405,767,3265,22349,37767,4450,33383,40056,38891
1254,12847,382,216,214,208,213,214,1793,17792,400,164,155,159,157,155,1800,8099,1364,1320,1298,1288,1294,1293,396,3963,205,182,169,173,175,175,1021,1019,16732,35930,9517,23236,1325,1035,700,758,11203,16335,5050,29263,1045,740,579,632,9673,30791,11509,34344,39430,29421,771,3276,22390,37895,4454,33487,40084,38943
1257,12868,386,217,215,206,213,214,1793,17817,404,162,159,154,157,156,1794,8103,1356,1315,1295,1285,1291,1292,395,3966,207,182,174,170,176,175,1020,1023,16778,36127,9547,23383,1331,1037,702,761,11222,16409,5063,29411,1048,743,578,634,9671,30823,11529,34461,39433,29436,768,3287,22429,38025,4467,33597,40121,39003
1257,12887,385,213,214,204,214,212,1795,17853,403,163,155,159,159,159,1795,8119,1361,1318,1296,1289,1295,1296,399,3968,204,181,171,172,176,175,1025,1028,16833,36333,9576,23528,1336,1041,705,763,11248,16492,5075,29550,1051,744,580,634,9673,30861,11550,34598,39442,29460,773,3299,22470,38165,4473,33719,40159,39069
1259,12915,387,214,218,209,213,216,1794,17880,404,159,159,155,153,153,1796,8130,1360,1315,1294,1287,1294,1294,397,3979,206,181,170,170,175,176,1030,1026,16885,36541,9611,23673,1343,1046,707,765,11272,16570,5083,29674,1056,748,580,636,9677,30907,11575,34727,39461,29485,771,3315,22516,38313,4485,33838,40201,39132
1257,12942,386,213,218,206,212,211,1798,17927,403,162,164,157,161,152,1797,8148,1364,1317,1297,1286,1295,1291,396,3981,205,182,170,169,176,177,1032,1031,16940,36751,9636,23813,1348,1050,710,768,11300,16650,5093,29797,1057,749,581,637,9687,30964,11596,34853,39479,29515,776,3327,22565,38461,4491,33959,40247,39209
1261,12967,391,216,216,206,214,213,1797,17955,407,163,162,158,160,162,1796,8166,1359,1317,1294,1287,1295,1295,397,3990,208,182,171,169,173,175,1035,1033,16989,36950,9667,23949,1355,1052,711,771,11319,16732,5104,29936,1063,751,582,639,9690,31014,11622,34994,39504,29551,773,3343,22610,38607,4503,34081,40298,39281
1260,13004,386,212,214,205,214,218,1800,18014,405,159,157,158,160,152,1798,8184,1363,1321,1299,1292,1298,1297,396,3998,201,182,172,171,175,179,1038,1038,17037,37123,9688,24042,1357,1049,713,774,11347,16807,5113,29990,1064,748,582,641,9697,31068,11642,35074,39547,29572,777,3356,22654,38751,4509,34193,40347,39334
1259,12957,388,213,218,205,212,212,1800,17980,406,164,162,159,155,152,1802,8160,1365,1321,1297,1289,1296,1294,399,3984,208,181,173,169,176,176,1034,1030,16841,36357,9574,23340,1331,1034,709,765,11207,16379,5053,29259,1041,734,583,639,9750,31105,11555,34474,39590,29543,776,3354,22617,38464,4485,33795,40263,39143
1255,12890,385,214,215,205,215,215,1798,17876,402,165,168,157,155,156,1799,8117,1361,1321,1296,1291,1294,1292,397,3964,206,180,170,168,176,175,1021,1017,16632,35662,9458,22937,1315,1028,696,752,11103,16118,5016,28922,1028,732,581,633,9732,30926,11487,34144,39577,29497,775,3298,22406,37857,4450,33416,40172,38985
1256,12858,388,212,214,202,211,212,1796,17821,405,167,154,161,164,160,1795,8096,1359,1321,1297,1290,1295,1295,395,3947,204,180,170,169,175,175,1015,1011,16560,35375,9413,22755,1309,1027,693,747,11075,16031,5005,28805,1027,728,582,632,9711,30822,11462,33996,39559,29462,768,3270,22293,37561,4435,33235,40107,38894
1252,12830,390,218,215,202,212,213,1791,17779,403,163,161,155,160,159,1794,8084,1359,1320,1298,1285,1293,1294,394,3944,204,181,169,167,176,175,1009,1007,16549,35319,9404,22759,1309,1022,691,749,11076,16035,5008,28851,1029,730,581,632,9702,30775,11455,33979,39538,29442,769,3254,22252,37455,4431,33204,40087,38870
1253,12820,383,213,215,205,213,214,1791,17781,404,163,161,159,153,155,1792,8078,1355,1313,1292,1284,1290,1290,394,3941,204,180,170,169,177,175,1010,1012,16557,35342,9415,22781,1308,1021,695,748,11090,16053,5010,28870,1031,731,577,632,9696,30761,11457,33974,39517,29421,768,3252,22253,37461,4430,33197,40080,38854
1249,12799,383,211,214,206,213,206,1790,17765,402,159,158,159,157,155,1790,8080,1357,1312,1290,1280,1292,1289,394,3937,205,181,171,169,175,177,1008,1011,16570,35371,9417,22822,1308,1022,695,751,11096,16074,5015,28926,1032,733,581,630,9694,30741,11459,33994,39501,29409,769,3251,22256,37463,4429,33206,40071,38853
1249,12798,387,212,214,205,213,216,1789,17771,404,163,158,155,159,155,1788,8074,1356,1314,1291,1283,1290,1289,395,3935,204,181,169,170,176,175,1011,1012,16607,35531,9442,22948,1314,1025,695,752,11118,16146,5026,29051,1037,734,580,631,9688,30747,11473,34076,39487,29414,768,3255,22277,37549,4439,33286,40081,38878
1248,12799,382,213,214,204,211,217,1790,17795,401,166,159,157,162,156,1789,8082,1357,1321,1306,1305,1315,1322,393,3937,203,182,170,170,175,177,1014,1013,16673,35731,9477,23091,1321,1032,698,755,11144,16221,5035,29167,1041,737,580,633,9689,30766,11485,34178,39469,29413,771,3270,22321,37670,4443,33370,40093,38920
1249,12804,390,215,211,208,215,215,1789,17794,405,162,160,159,155,156,1823,8132,1388,1340,1316,1303,1305,1304,395,3947,206,181,175,169,177,177,1018,1020,16738,35919,9511,23223,1331,1038,703,758,11169,16289,5045,29279,1047,743,577,632,9701,30815,11505,34286,39453,29415,769,3284,22360,37800,4453,33471,40109,38959
1249,12826,385,212,216,202,214,212,1791,17827,402,167,162,157,157,155,1804,8110,1365,1327,1302,1294,1298,1298,395,3947,205,180,169,170,175,176,1027,1027,16785,36091,9537,23346,1334,1041,705,763,11193,16361,5053,29394,1049,744,580,633,9710,30862,11523,34388,39466,29435,775,3289,22411,37933,4457,33571,40132,39009
1252,12844,387,212,215,206,212,213,1792,17858,406,162,159,158,170,159,1795,8113,1361,1318,1295,1286,1294,1294,396,3953,205,182,171,170,177,177,1030,1028,16827,36272,9565,23475,1340,1044,705,768,11215,16434,5065,29516,1054,745,581,636,9703,30889,11543,34501,39468,29449,769,3297,22443,38060,4467,33678,40154,39056
1251,12863,384,211,214,212,210,213,1793,17899,404,159,161,161,155,155,1794,8127,1360,1317,1295,1284,1291,1293,397,3960,205,180,170,173,177,178,1031,1029,16875,36454,9594,23619,1344,1049,708,767,11240,16513,5077,29648,1056,747,580,635,9703,30911,11565,34632,39476,29471,773,3312,22490,38195,4475,33786,40189,39117
1256,12887,388,212,218,205,213,213,1794,17934,406,163,159,159,158,159,1795,8143,1362,1320,1297,1289,1295,1293,397,3970,205,181,171,169,177,178,1036,1031,16929,36650,9624,23753,1351,1056,709,768,11264,16590,5085,29780,1060,749,582,636,9707,30959,11589,34753,39489,29497,772,3325,22533,38335,4485,33908,40227,39181
1254,12919,386,213,215,208,215,216,1797,17994,404,162,158,160,157,156,1794,8157,1363,1321,1297,1289,1296,1295,396,3973,205,181,170,171,175,176,1037,1037,16983,36857,9652,23899,1355,1054,714,772,11288,16672,5097,29918,1063,750,583,638,9710,31005,11616,34902,39508,29525,775,3338,22580,38487,4492,34041,40275,39254
1255,12948,387,213,220,204,212,215,1799,18039,407,163,160,156,158,156,1796,8172,1362,1321,1299,1291,1298,1297,395,3982,208,184,170,171,179,177,1040,1040,17013,36940,9673,23853,1355,1047,715,773,11309,16709,5098,29823,1058,747,580,639,9710,31066,11624,34863,39539,29540,778,3354,22621,38607,4502,34099,40295,39253
1253,12881,385,213,215,203,213,214,1804,18005,404,159,154,157,155,160,1798,8133,1361,1321,1300,1292,1299,1297,395,3966,203,180,174,169,179,176,1034,1030,16775,36065,9533,23199,1329,1037,704,759,11147,16251,5038,29183,1039,735,582,640,9760,31035,11531,34311,39574,29493,778,3339,22539,38199,4467,33645,40199,39071
1249,12827,389,212,217,208,213,215,1801,17914,407,163,158,154,157,153,1797,8101,1359,1318,1295,1287,1295,1294,394,3953,206,183,170,169,178,177,1020,1019,16635,35594,9457,22928,1319,1031,697,753,11080,16087,5018,28980,1033,732,581,632,9735,30891,11487,34092,39548,29450,769,3291,22370,37743,4442,33384,40119,38942
1246,12793,385,214,213,205,214,214,1798,17869,401,162,157,159,156,156,1793,8088,1359,1319,1296,1290,1295,1293,394,3943,204,181,172,169,175,177,1016,1015,16585,35398,9428,22824,1313,1027,694,752,11065,16031,5012,28935,1031,733,582,632,9725,30818,11469,34001,39519,29415,770,3271,22294,37544,4429,33272,40075,38881
1245,12771,385,215,214,204,212,214,1793,17835,405,162,156,159,160,161,1790,8080,1358,1313,1293,1285,1292,1291,394,3944,205,183,175,169,174,175,1014,1012,16598,35439,9434,22871,1313,1027,695,751,11075,16076,5015,29005,1032,732,579,630,9711,30791,11474,34027,39495,29401,770,3263,22271,37532,4435,33281,40061,38871
1246,12766,383,219,214,205,211,211,1796,17848,403,164,161,157,154,159,1787,8074,1354,1311,1289,1281,1286,1288,396,3938,204,179,169,169,176,176,1013,1012,16603,35444,9439,22881,1310,1023,695,751,11088,16086,5018,29022,1035,734,581,630,9714,30779,11474,34021,39477,29377,770,3262,22283,37535,4435,33274,40043,38861
1243,12752,384,212,217,207,215,212,1793,17832,406,161,151,154,155,151,1786,8069,1354,1311,1287,1280,1285,1287,393,3939,205,181,170,168,174,176,1010,1009,16620,35519,9449,22965,1314,1025,696,753,11099,16127,5024,29102,1037,735,578,630,9705,30770,11479,34075,39458,29376,768,3263,22284,37563,4436,33314,40039,38868
1244,12764,384,214,215,204,214,213,1794,17859,403,163,162,156,153,154,1783,8067,1352,1309,1289,1280,1287,1287,393,3941,205,183,171,169,175,175,1012,1011,16678,35710,9479,23105,1318,1028,699,754,11127,16210,5030,29229,1039,738,580,629,9699,30782,11495,34181,39449,29378,769,3272,22324,37676,4441,33403,40053,38903
1246,12783,385,213,214,205,213,212,1793,17871,406,163,161,158,161,158,1784,8074,1353,1312,1291,1281,1288,1288,394,3947,203,180,169,168,175,180,1015,1015,16731,35896,9511,23250,1327,1031,699,758,11153,16293,5043,29365,1045,740,597,632,9699,30811,11517,34289,39451,29391,769,3284,22363,37803,4454,33503,40071,38945
1245,12794,383,213,215,207,216,213,1795,17903,402,165,159,159,155,156,1785,8081,1354,1312,1293,1285,1291,1291,395,3949,205,182,169,172,175,175,1018,1017,16779,36069,9540,23374,1327,1035,701,758,11180,16363,5053,29484,1049,741,581,635,9693,30832,11533,34386,39445,29401,771,3295,22405,37934,4459,33598,40089,38992
1246,12815,386,213,214,208,214,214,1797,17915,406,166,157,163,156,156,1788,8090,1356,1313,1290,1282,1289,1290,394,3957,205,180,173,169,176,178,1021,1021,16821,36241,9570,23504,1332,1038,705,762,11201,16439,5062,29598,1054,743,575,633,9700,30872,11552,34495,39448,29416,769,3302,22445,38062,4468,33701,40119,39047
1245,12832,386,212,215,204,213,213,1796,17939,403,163,158,157,155,155,1789,8103,1355,1311,1289,1283,1289,1288,394,3963,205,182,173,170,180,176,1024,1023,16871,36425,9595,23635,1337,1039,704,761,11225,16511,5073,29741,1055,749,580,634,9701,30895,11574,34621,39452,29438,773,3317,22488,38185,4470,33813,40154,39104
1249,12859,389,215,215,206,212,213,1796,17977,406,166,157,162,159,153,1786,8120,1357,1315,1291,1285,1292,1292,395,3971,206,180,171,168,174,175,1027,1026,16920,36617,9627,23773,1343,1043,709,768,11250,16596,5084,29864,1058,748,579,635,9698,30938,11599,34747,39467,29465,774,3328,22527,38326,4485,33931,40194,39167
1249,12882,386,214,217,204,213,212,1798,18015,407,165,161,159,154,165,1789,8134,1360,1314,1295,1283,1289,1289,395,3980,207,178,170,169,178,176,1029,1028,16971,36815,9655,23905,1348,1048,708,769,11278,16673,5093,29986,1062,748,583,638,9704,30986,11622,34884,39486,29487,774,3342,22573,38470,4491,34047,40238,39230
1251,12915,387,216,218,207,217,215,1800,18059,410,163,154,158,155,156,1790,8154,1367,1327,1309,1305,1315,1319,396,3989,206,185,171,170,177,176,1034,1032,17024,37022,9688,24046,1358,1055,712,773,11297,16755,5103,30105,1071,755,583,639,9713,31038,11649,35027,39502,29512,775,3356,22619,38616,4504,34177,40284,39302
1255,12929,387,213,216,209,217,216,1803,18094,407,160,158,162,158,153,1820,8202,1385,1340,1314,1302,1308,1307,395,3994,206,180,170,173,176,175,1042,1040,17057,37030,9699,23929,1351,1048,717,775,11315,16756,5100,29926,1059,746,584,640,9735,31129,11653,34955,39534,29521,777,3370,22667,38728,4505,34199,40292,39279
1252,12858,388,215,217,208,215,217,1803,18027,408,164,152,157,156,155,1802,8129,1367,1324,1305,1295,1301,1299,394,3977,205,181,171,168,177,176,1033,1029,16781,36078,9544,23224,1328,1035,704,763,11134,16263,5034,29236,1041,735,581,637,9777,31078,11556,34353,39557,29470,773,3347,22559,38255,4468,33697,40179,39068
1249,12793,385,212,215,206,213,215,1800,17939,404,162,163,158,155,157,1797,8101,1362,1324,1301,1292,1299,1301,397,3958,206,180,171,170,176,175,1023,1018,16634,35557,9461,22923,1318,1031,698,752,11065,16087,5006,29001,1034,730,581,633,9754,30931,11505,34104,39550,29428,773,3295,22376,37759,4442,33390,40086,38917
1244,12744,386,213,217,205,213,214,1797,17895,405,163,159,156,158,152,1798,8093,1366,1323,1301,1293,1299,1299,396,3945,208,183,170,169,178,177,1017,1014,16561,35282,9424,22757,1314,1027,691,750,11042,16016,5000,28897,1032,733,579,631,9743,30863,11487,33959,39538,29387,769,3266,22281,37493,4429,33221,40023,38828
1241,12707,382,215,215,204,212,213,1795,17858,403,167,159,157,157,153,1797,8077,1367,1324,1302,1294,1300,1299,396,3942,205,183,170,170,175,180,1013,1011,16559,35268,9422,22781,1310,1028,696,750,11057,16041,5003,28946,1035,733,582,628,9729,30808,11484,33953,39508,29362,767,3255,22252,37446,4423,33203,39989,38796
1238,12676,384,214,215,205,212,215,1796,17846,405,162,156,157,159,157,1799,8071,1364,1321,1301,1291,1301,1297,393,3940,205,181,171,171,174,175,1012,1012,16561,35246,9425,22777,1311,1026,698,754,11063,16049,5004,28959,1034,739,578,629,9722,30791,11482,33931,39488,29338,766,3252,22254,37436,4424,33172,39962,38773
1237,12666,383,209,215,206,212,215,1791,17826,403,163,158,159,155,157,1793,8065,1360,1319,1298,1291,1297,1299,394,3939,206,181,173,169,178,176,1013,1011,16573,35300,9436,22838,1314,1027,697,755,11077,16085,5009,29036,1036,735,581,625,9715,30767,11485,33965,39468,29329,767,3253,22257,37451,4424,33189,39952,38765
1239,12668,383,213,215,206,213,214,1791,17822,406,162,154,157,157,159,1794,8061,1364,1319,1299,1291,1297,1297,394,3941,205,180,170,168,175,178,1016,1013,16621,35453,9460,22959,1317,1032,698,760,11101,16157,5019,29148,1046,734,579,626,9712,30779,11498,34043,39449,29326,765,3260,22282,37543,4431,33260,39953,38791
1238,12682,381,215,218,206,217,214,1791,17838,405,164,156,158,157,153,1794,8060,1363,1321,1300,1292,1299,1299,395,3946,204,181,172,170,175,179,1016,1015,16675,35628,9485,23081,1319,1033,701,757,11123,16227,5025,29259,1046,740,579,628,9709,30802,11513,34135,39449,29329,769,3266,22319,37650,4435,33338,39967,38825
1238,12687,385,213,216,204,214,214,1791,17855,405,163,159,161,158,162,1794,8069,1366,1321,1302,1297,1309,1311,399,3951,205,184,171,169,175,177,1017,1016,16714,35793,9511,23191,1324,1036,703,759,11142,16287,5035,29365,1044,740,576,629,9707,30827,11529,34219,39439,29339,767,3278,22350,37759,4446,33418,39974,38857
1239,12705,385,220,219,206,216,215,1793,17851,403,162,158,158,156,157,1812,8101,1387,1348,1325,1317,1320,1317,396,3960,206,183,170,169,176,177,1022,1020,16776,35967,9535,23310,1327,1037,703,762,11161,16343,5041,29453,1050,743,580,631,9715,30871,11543,34328,39451,29357,770,3286,22387,37876,4449,33499,39994,38894
1239,12722,386,215,215,205,213,214,1789,17871,405,162,154,161,159,157,1812,8103,1376,1331,1311,1302,1307,1307,396,3961,206,183,170,169,176,175,1023,1022,16821,36150,9562,23443,1333,1035,710,767,11179,16420,5051,29583,1049,745,577,632,9727,30929,11566,34449,39468,29381,769,3293,22422,37992,4457,33603,40021,38950
1241,12742,383,213,215,207,213,213,1789,17881,402,159,172,159,158,159,1801,8106,1370,1326,1305,1294,1302,1302,395,3968,205,180,170,170,175,177,1023,1020,16861,36334,9592,23579,1335,1039,709,766,11207,16498,5060,29715,1057,746,581,634,9722,30951,11589,34575,39482,29403,771,3304,22461,38119,4467,33719,40058,39010
1241,12775,385,213,215,207,214,215,1787,17889,407,163,155,157,161,157,1797,8113,1370,1326,1305,1294,1301,1300,393,3974,205,182,170,169,176,176,1026,1025,16909,36523,9619,23705,1341,1043,708,767,11228,16567,5071,29835,1058,749,580,634,9719,30982,11609,34688,39488,29426,769,3314,22497,38247,4475,33832,40099,39070
1242,12809,382,213,214,205,216,214,1786,17911,403,162,157,157,157,155,1797,8123,1366,1323,1302,1295,1302,1299,394,3983,206,173,171,169,176,175,1031,1028,16956,36708,9647,23841,1346,1047,710,772,11254,16647,5082,29967,1061,754,579,635,9722,31015,11628,34819,39510,29456,773,3327,22538,38387,4483,33942,40139,39140
1250,12849,383,212,216,205,214,213,1783,17926,407,166,158,156,157,151,1798,8142,1370,1329,1305,1296,1304,1304,399,3993,205,180,172,174,176,175,1035,1033,17005,36871,9675,23904,1348,1047,714,776,11273,16715,5089,29989,1064,747,582,637,9721,31061,11654,34876,39537,29474,774,3341,22579,38525,4493,34037,40175,39173
1251,12821,383,213,217,206,212,213,1786,17890,402,164,158,157,159,156,1803,8109,1370,1328,1307,1300,1305,1305,395,3979,203,183,170,169,175,175,1033,1027,16815,36123,9561,23254,1327,1036,708,765,11137,16291,5031,29280,1040,735,582,637,9770,31085,11567,34319,39569,29435,776,3331,22540,38230,4461,33621,40083,38987
1245,12757,386,213,215,205,213,213,1781,17782,404,163,155,158,157,157,1801,8073,1369,1323,1304,1297,1301,1302,394,3959,206,180,171,170,175,176,1019,1017,16626,35485,9463,22879,1316,1030,701,755,11038,16058,4998,28973,1034,732,579,631,9754,30927,11504,34007,39546,29384,769,3278,22337,37667,4431,33260,39991,38827
1244,12723,384,213,217,205,214,213,1779,17709,401,159,159,157,159,159,1800,8055,1368,1327,1306,1298,1302,1301,394,3947,205,180,170,169,175,176,1015,1014,16557,35189,9417,22691,1309,1027,694,751,11016,15971,4986,28844,1031,731,579,627,9737,30830,11476,33848,39524,29339,769,3246,22235,37380,4414,33065,39925,38727
1243,12695,382,213,214,205,215,214,1774,17663,401,163,159,157,159,158,1797,8039,1367,1324,1305,1293,1299,1300,396,3942,213,179,168,171,175,176,1015,1011,16535,35112,9409,22681,1308,1027,694,750,11013,15974,4987,28882,1033,731,580,624,9720,30777,11473,33821,39495,29313,764,3227,22181,37273,4412,33025,39890,38695
1240,12683,383,210,217,205,215,213,1768,17626,401,166,161,157,157,160,1791,8029,1363,1322,1302,1291,1298,1297,394,3943,205,181,170,169,174,175,1011,1009,16547,35119,9410,22675,1307,1024,695,752,11027,15993,4989,28883,1035,733,579,625,9721,30768,11467,33801,39478,29293,766,3226,22183,37258,4409,32995,39864,38666
1241,12673,383,214,213,207,213,213,1766,17589,400,161,163,157,160,150,1788,8021,1362,1320,1299,1290,1298,1300,395,3938,205,180,170,169,175,176,1011,1009,16549,35125,9418,22705,1310,1023,695,752,11032,16011,4994,28947,1036,734,578,624,9713,30746,11469,33814,39457,29280,761,3220,22173,37248,4411,32991,39847,38653
1242,12671,383,214,215,208,214,213,1769,17598,397,159,163,159,160,152,1792,8025,1364,1323,1301,1295,1300,1300,394,3941,204,180,170,173,175,179,1016,1010,16593,35271,9437,22813,1314,1030,698,754,11055,16075,5002,29055,1036,736,574,624,9707,30753,11477,33887,39452,29287,766,3224,22194,37321,4415,33051,39845,38678
1238,12689,383,213,220,209,214,215,1769,17621,396,163,159,157,155,156,1793,8038,1366,1326,1305,1297,1306,1306,394,3943,206,182,170,168,179,176,1015,1013,16648,35458,9469,22939,1322,1032,701,759,11081,16141,5013,29170,1042,739,575,626,9715,30807,11490,33957,39447,29293,762,3233,22220,37413,4420,33123,39859,38699
1242,12712,383,214,216,207,213,214,1770,17653,400,160,158,158,159,157,1798,8053,1371,1326,1304,1294,1303,1303,395,3957,204,181,171,168,175,175,1019,1018,16706,35640,9492,23055,1321,1033,703,762,11107,16213,5021,29287,1044,741,577,625,9728,30851,11501,34045,39431,29299,765,3232,22251,37517,4426,33202,39871,38738
1244,12727,385,214,217,209,216,215,1771,17675,401,165,161,158,155,159,1794,8052,1370,1327,1306,1300,1305,1306,398,3956,208,180,171,168,175,176,1021,1020,16744,35796,9516,23167,1329,1040,703,761,11124,16268,5031,29378,1051,742,579,625,9725,30888,11517,34123,39438,29315,764,3242,22277,37621,4434,33282,39884,38775
1245,12747,383,215,217,205,215,215,1769,17686,399,161,162,157,155,160,1802,8061,1371,1331,1312,1303,1310,1312,394,3967,207,181,169,171,179,175,1027,1026,16799,35981,9547,23295,1336,1045,707,766,11147,16336,5041,29494,1053,745,580,629,9726,30916,11528,34231,39443,29335,771,3251,22318,37739,4439,33369,39908,38817
1248,12764,387,219,217,207,215,213,1773,17715,403,159,162,155,154,153,1803,8080,1375,1337,1310,1303,1310,1311,395,3973,206,181,173,169,178,177,1032,1031,16849,36166,9582,23424,1341,1047,710,768,11169,16407,5050,29596,1057,749,578,631,9726,30947,11550,34347,39444,29349,765,3259,22356,37857,4447,33474,39936,38868
1247,12797,387,215,214,207,213,213,1772,17765,404,162,160,157,157,158,1805,8100,1375,1335,1315,1301,1311,1312,397,3975,209,182,171,170,175,176,1033,1033,16900,36352,9605,23554,1346,1054,714,773,11192,16481,5058,29707,1062,751,583,629,9727,30977,11567,34471,39445,29371,768,3271,22393,37998,4454,33576,39969,38932
1248,12819,387,214,216,209,217,215,1774,17798,405,162,159,158,154,161,1805,8113,1381,1338,1315,1305,1313,1317,396,3987,206,181,170,169,176,178,1037,1035,16952,36539,9637,23685,1353,1058,715,773,11221,16565,5071,29821,1069,753,577,631,9723,31010,11596,34595,39463,29395,769,3281,22437,38136,4467,33694,40005,38990
1249,12806,387,214,219,206,215,213,1778,17809,401,162,163,155,149,158,1814,8117,1386,1345,1324,1314,1320,1321,396,3981,205,180,169,168,178,176,1039,1039,16859,36128,9582,23235,1339,1048,715,771,11153,16312,5033,29269,1048,743,580,631,9763,31075,11545,34211,39503,29375,771,3286,22444,38044,4450,33441,39951,38859
1247,12745,385,214,217,210,214,215,1775,17708,402,164,160,158,152,151,1815,8071,1386,1346,1324,1316,1322,1324,394,3961,206,180,170,169,176,175,1031,1030,16655,35416,9475,22819,1326,1039,707,760,11039,16035,4997,28911,1041,740,579,630,9755,30925,11478,33858,39491,29331,767,3245,22275,37508,4416,33063,39858,38703
1244,12708,383,215,216,207,213,214,1772,17655,398,163,159,158,155,153,1813,8059,1385,1349,1323,1318,1323,1323,396,3946,205,180,171,168,175,180,1027,1023,16586,35135,9434,22651,1321,1040,703,761,11018,15967,4986,28806,1039,739,580,625,9730,30819,11450,33727,39466,29290,767,3216,22179,37237,4399,32889,39801,38617
1243,12686,385,217,215,206,214,217,1773,17617,405,162,162,157,154,159,1815,8053,1390,1345,1328,1315,1323,1324,395,3941,205,182,170,171,174,175,1027,1023,16563,35058,9427,22634,1321,1041,704,760,11026,15974,4988,28835,1040,741,580,623,9716,30758,11446,33694,39430,29267,762,3201,22128,37140,4396,32846,39764,38585
1243,12686,383,217,217,207,217,215,1770,17631,399,160,159,157,154,157,1816,8057,1390,1348,1333,1328,1341,1343,395,3936,204,182,170,170,176,176,1027,1025,16587,35083,9432,22639,1321,1039,704,760,11045,15999,4991,28847,1041,744,577,622,9711,30761,11442,33687,39415,29251,765,3198,22141,37158,4395,32830,39751,38565
1243,12672,386,215,217,211,217,216,1775,17648,401,162,158,155,157,153,1843,8088,1419,1377,1352,1339,1343,1336,397,3937,209,181,171,169,176,176,1029,1027,16606,35110,9440,22670,1325,1042,706,762,11048,16011,4994,28865,1044,749,577,622,9711,30744,11441,33704,39378,29235,763,3200,22144,37162,4396,32833,39731,38560
1245,12680,384,217,217,209,213,215,1776,17652,401,167,158,161,145,156,1829,8067,1394,1352,1326,1315,1321,1320,397,3935,204,182,169,172,175,177,1030,1029,16635,35230,9456,22783,1325,1042,708,765,11073,16081,5001,28977,1046,743,577,622,9703,30745,11462,33795,39358,29232,764,3202,22165,37243,4399,32902,39739,38585
1243,12700,388,214,216,207,216,215,1774,17656,401,164,159,162,157,153,1813,8062,1385,1342,1321,1310,1318,1320,397,3938,210,182,171,173,176,176,1028,1029,16680,35409,9489,22913,1327,1038,707,764,11094,16149,5007,29094,1048,745,577,623,9700,30762,11478,33891,39338,29235,762,3210,22197,37358,4410,32985,39755,38618
1245,12714,383,214,216,207,214,216,1777,17695,396,162,158,159,161,158,1810,8069,1380,1336,1312,1306,1311,1313,398,3940,205,180,171,170,177,176,1028,1024,16725,35566,9510,23034,1329,1039,708,763,11120,16210,5016,29203,1049,746,578,624,9697,30781,11490,33997,39330,29252,766,3222,22231,37465,4416,33063,39771,38657
1244,12731,385,215,215,206,214,213,1776,17712,404,162,162,159,156,158,1803,8078,1378,1337,1316,1304,1311,1313,395,3946,205,182,169,171,175,175,1027,1026,16767,35730,9537,23154,1332,1043,711,767,11138,16274,5025,29305,1052,746,579,630,9691,30802,11512,34093,39329,29263,765,3230,22264,37579,4423,33155,39789,38698
1247,12753,384,215,215,206,214,215,1776,17743,401,166,158,157,152,162,1804,8091,1377,1333,1311,1304,1311,1312,394,3949,201,184,170,169,179,177,1027,1029,16814,35901,9563,23276,1337,1044,709,767,11157,16341,5034,29421,1053,747,581,627,9691,30833,11529,34206,39342,29281,766,3241,22303,37703,4427,33249,39820,38754
1249,12779,385,214,217,210,213,213,1779,17784,403,160,160,155,156,159,1805,8100,1375,1335,1311,1303,1313,1312,399,3958,206,180,170,169,174,174,1031,1029,16869,36095,9594,23411,1341,1049,709,768,11178,16415,5045,29536,1059,750,578,627,9690,30878,11550,34333,39343,29306,766,3254,22339,37829,4442,33365,39853,38812
1249,12806,384,213,215,207,213,214,1782,17824,402,163,159,155,153,155,1807,8119,1380,1332,1311,1301,1309,1311,394,3961,206,180,171,168,176,176,1033,1032,16922,36287,9619,23540,1344,1051,713,768,11207,16483,5051,29658,1063,751,578,631,9696,30915,11578,34457,39362,29332,769,3266,22384,37969,4444,33481,39893,38870
1250,12842,387,212,217,206,213,215,1785,17871,409,161,154,162,160,157,1806,8137,1379,1335,1313,1309,1311,1309,398,3973,207,180,170,169,178,176,1037,1033,16965,36466,9650,23673,1352,1052,713,773,11227,16561,5065,29773,1064,754,580,631,9699,30960,11597,34589,39385,29365,769,3282,22427,38105,4458,33591,39933,38937
1255,12883,387,215,216,205,214,214,1789,17930,405,165,162,157,158,161,1805,8151,1375,1331,1312,1301,1307,1310,396,3979,207,183,170,169,176,176,1040,1038,17025,36668,9681,23802,1355,1055,717,774,11251,16640,5072,29903,1067,755,580,633,9704,31015,11630,34743,39411,29399,769,3294,22479,38258,4466,33718,39989,39007
1255,12878,386,214,219,205,213,213,1790,17942,406,163,154,169,155,159,1809,8162,1379,1336,1314,1308,1315,1311,395,3979,207,181,170,169,175,176,1041,1039,16959,36395,9647,23427,1340,1046,717,773,11208,16453,5047,29421,1050,739,579,633,9739,31106,11595,34415,39457,29393,769,3305,22496,38239,4460,33545,39954,38911
1251,12802,385,213,215,206,213,217,1788,17851,403,162,157,156,156,153,1809,8109,1377,1337,1315,1306,1312,1313,395,3957,205,179,168,169,176,175,1030,1028,16704,35517,9504,22866,1320,1035,705,760,11047,16065,4993,28909,1038,737,583,629,9749,30962,11506,33930,39459,29341,769,3261,22321,37628,4415,33057,39853,38719
1249,12761,387,211,214,205,213,213,1787,17765,403,166,165,158,155,158,1808,8086,1377,1338,1314,1304,1313,1315,394,3945,205,181,169,173,175,176,1022,1018,16595,35123,9444,22623,1312,1032,702,753,11013,15953,4975,28732,1035,734,577,626,9725,30841,11469,33735,39439,29299,766,3221,22177,37247,4398,32809,39783,38605
1247,12729,381,215,216,209,217,217,1783,17704,399,166,158,162,157,153,1806,8072,1378,1335,1311,1304,1311,1312,396,3933,205,184,170,173,175,176,1015,1013,16542,34908,9411,22510,1308,1027,698,751,10999,15902,4969,28683,1032,735,580,625,9717,30778,11451,33633,39420,29272,764,3196,22106,37037,4383,32686,39743,38541
1251,12716,385,214,215,209,217,216,1782,17691,401,163,154,156,156,156,1807,8069,1378,1339,1316,1306,1310,1309,394,3931,205,179,171,168,176,176,1015,1016,16554,34945,9420,22537,1311,1028,698,754,11015,15941,4973,28727,1041,742,576,624,9707,30768,11451,33629,39397,29257,762,3189,22092,37031,4387,32675,39723,38517
1249,12706,383,217,215,209,217,213,1782,17677,398,165,158,161,156,156,1805,8057,1375,1335,1311,1304,1311,1311,395,3931,205,181,169,172,175,174,1016,1013,16569,34953,9423,22549,1308,1029,699,753,11027,15957,4975,28740,1034,735,579,624,9709,30756,11451,33625,39384,29247,764,3188,22099,37027,4385,32658,39705,38510
1248,12707,388,213,216,205,213,215,1783,17679,403,161,163,157,154,152,1804,8061,1379,1341,1320,1315,1327,1331,393,3929,205,181,170,172,176,177,1016,1014,16595,35052,9443,22628,1314,1033,699,755,11045,15997,4979,28816,1036,738,577,623,9703,30755,11454,33675,39363,29239,761,3187,22108,37073,4390,32686,39701,38515
1247,12712,383,214,218,207,215,217,1781,17683,403,159,158,154,159,155,1830,8091,1404,1361,1336,1323,1327,1323,392,3934,211,181,169,169,176,175,1020,1021,16666,35237,9467,22752,1320,1035,700,756,11067,16062,4986,28918,1039,740,577,623,9717,30804,11475,33777,39357,29245,764,3194,22149,37183,4393,32759,39710,38539
1250,12722,386,215,216,207,213,214,1782,17698,402,160,156,158,157,157,1813,8083,1378,1336,1314,1305,1307,1306,396,3938,206,180,171,167,179,179,1024,1023,16715,35411,9496,22872,1323,1035,705,759,11087,16134,4995,29037,1040,743,577,624,9725,30841,11494,33881,39358,29252,762,3203,22187,37308,4403,32847,39725,38579
1249,12733,386,213,216,205,215,210,1783,17732,404,158,159,158,160,160,1802,8085,1375,1331,1311,1305,1310,1309,396,3937,207,179,170,169,174,176,1024,1022,16757,35579,9516,22993,1323,1035,701,761,11107,16194,5002,29143,1043,740,579,625,9724,30878,11512,33975,39370,29283,766,3211,22222,37419,4406,32925,39746,38618
1249,12750,385,216,216,204,213,213,1782,17743,402,163,158,161,159,159,1800,8092,1372,1331,1309,1300,1306,1305,394,3946,209,183,168,170,180,177,1022,1023,16798,35751,9548,23112,1329,1040,705,761,11124,16257,5010,29248,1045,740,577,626,9719,30919,11532,34080,39388,29299,767,3223,22250,37530,4417,33018,39769,38666
1250,12769,384,214,215,206,213,212,1783,17786,402,165,156,156,158,154,1802,8105,1372,1328,1306,1298,1304,1305,393,3954,206,184,173,169,175,179,1022,1022,16852,35947,9574,23243,1332,1039,704,764,11147,16324,5020,29371,1048,743,581,625,9724,30957,11548,34193,39402,29331,766,3233,22289,37650,4423,33122,39804,38720
1252,12799,385,213,215,205,212,212,1784,17819,404,162,158,156,161,158,1799,8113,1371,1328,1307,1298,1305,1309,395,3962,208,181,169,171,176,174,1025,1024,16902,36137,9605,23378,1336,1043,706,761,11164,16395,5029,29491,1053,745,579,626,9724,30993,11570,34310,39426,29359,765,3241,22325,37777,4433,33229,39840,38783
1252,12819,384,213,218,207,214,213,1785,17843,402,163,158,158,156,157,1803,8138,1372,1332,1308,1299,1303,1304,396,3969,206,181,171,168,175,175,1027,1030,16954,36331,9632,23510,1339,1044,709,767,11187,16467,5038,29604,1057,747,582,626,9726,31038,11597,34439,39455,29394,768,3253,22369,37909,4439,33338,39879,38843
1252,12863,384,213,216,206,213,213,1786,17884,404,164,158,156,161,154,1800,8141,1370,1326,1305,1297,1306,1307,396,3976,206,183,170,172,174,175,1030,1031,16999,36515,9662,23642,1346,1048,710,768,11206,16535,5051,29720,1059,748,578,632,9734,31087,11620,34562,39478,29426,767,3266,22406,38037,4451,33451,39926,38911
1259,12895,387,215,214,206,217,215,1791,17926,402,165,160,153,156,157,1805,8166,1373,1330,1309,1301,1307,1309,402,3988,205,184,169,167,174,175,1035,1032,17054,36713,9693,23771,1348,1049,711,770,11231,16619,5057,29843,1061,750,582,632,9737,31142,11643,34703,39516,29461,772,3283,22455,38180,4459,33566,39975,38979
1258,12894,384,213,215,208,213,215,1793,17952,407,159,154,158,157,157,1807,8166,1380,1338,1317,1308,1315,1313,398,3984,199,179,170,170,175,175,1036,1034,16979,36390,9653,23373,1334,1041,711,768,11175,16395,5024,29325,1045,739,581,633,9779,31235,11605,34338,39570,29451,771,3288,22462,38121,4447,33352,39933,38860
1255,12815,384,216,214,206,213,213,1790,17835,405,164,161,157,153,153,1813,8119,1378,1336,1313,1303,1307,1311,395,3962,206,182,169,169,178,179,1026,1021,16738,35554,9511,22844,1317,1031,699,756,11027,16042,4976,28862,1033,732,583,626,9791,31099,11520,33893,39575,29411,770,3241,22276,37515,4404,32877,39829,38678
1254,12775,386,214,214,207,214,214,1787,17770,406,163,158,158,160,157,1804,8093,1377,1336,1315,1303,1313,1311,395,3948,205,179,174,168,174,176,1018,1014,16636,35199,9460,22620,1312,1026,693,749,10995,15944,4962,28703,1028,730,580,624,9771,30983,11489,33708,39563,29378,765,3203,22140,37155,4388,32645,39758,38563
1251,12742,384,213,216,206,214,216,1785,17713,402,160,159,155,157,155,1809,8075,1376,1332,1309,1301,1306,1306,399,3945,205,180,170,169,173,174,1013,1010,16595,35026,9430,22544,1305,1023,693,747,10990,15916,4958,28691,1029,730,581,619,9761,30917,11470,33631,39543,29350,764,3180,22078,36982,4376,32539,39723,38517
1251,12729,385,213,216,206,215,214,1783,17710,403,164,161,158,156,159,1803,8073,1375,1333,1311,1300,1307,1307,397,3938,209,180,170,167,175,177,1011,1008,16609,35053,9437,22559,1304,1023,694,749,11004,15946,4959,28714,1027,729,578,623,9749,30895,11471,33622,39529,29338,761,3177,22073,36986,4379,32522,39711,38496
1253,12718,382,217,216,206,213,213,1786,17698,399,166,163,161,154,159,1800,8059,1370,1327,1306,1296,1300,1302,391,3934,205,179,169,170,177,175,1010,1006,16607,35033,9433,22562,1303,1019,693,747,11013,15954,4962,28722,1027,730,577,622,9745,30870,11466,33614,39514,29324,763,3174,22075,36961,4377,32494,39697,38478
1247,12713,380,213,215,206,214,212,1784,17696,404,163,161,159,160,159,1797,8054,1373,1333,1318,1320,1329,1333,395,3931,205,180,171,169,176,180,1006,1005,16627,35115,9447,22639,1309,1023,695,749,11018,15989,4963,28793,1031,731,577,622,9737,30846,11477,33662,39493,29320,761,3174,22085,37001,4380,32520,39693,38487
1248,12706,385,215,215,206,214,215,1783,17692,404,163,158,160,153,159,1828,8098,1394,1349,1322,1307,1313,1311,397,3943,209,180,169,169,178,175,1010,1010,16687,35271,9477,22755,1312,1025,697,753,11043,16049,4973,28893,1034,733,579,622,9740,30864,11486,33750,39482,29321,764,3184,22123,37106,4383,32588,39705,38513
1248,12722,385,214,215,213,213,213,1782,17712,403,163,159,157,157,155,1802,8069,1372,1330,1306,1300,1307,1307,395,3941,207,181,173,169,175,177,1010,1010,16721,35400,9501,22860,1311,1026,700,752,11061,16104,4981,28989,1037,733,577,624,9731,30867,11501,33823,39469,29324,763,3193,22159,37214,4393,32663,39715,38545
1249,12724,385,212,214,205,213,213,1785,17745,404,162,159,159,157,152,1801,8078,1371,1331,1307,1299,1303,1302,394,3939,209,180,171,169,175,180,1013,1013,16757,35537,9521,22961,1315,1030,697,754,11079,16160,4987,29078,1037,735,579,625,9733,30884,11513,33906,39479,29342,764,3201,22193,37307,4394,32730,39733,38579
1250,12746,385,213,214,204,213,212,1787,17746,402,167,155,157,157,159,1797,8076,1367,1328,1303,1295,1304,1302,394,3949,206,180,170,171,174,175,1016,1013,16789,35683,9549,23075,1319,1031,698,755,11089,16216,4993,29173,1041,737,579,625,9732,30899,11529,33994,39478,29355,763,3210,22229,37420,4404,32812,39751,38617
1251,12759,380,213,213,204,212,214,1785,17785,401,163,161,157,157,160,1795,8090,1367,1327,1304,1293,1297,1299,396,3953,203,181,169,169,176,175,1016,1014,16836,35839,9572,23192,1323,1031,702,756,11109,16277,5001,29283,1042,739,582,627,9724,30914,11546,34099,39483,29374,765,3223,22266,37533,4409,32907,39785,38664
1251,12784,386,214,215,208,211,213,1788,17822,405,161,159,157,158,157,1791,8094,1363,1317,1298,1291,1298,1299,395,3954,204,181,170,169,179,177,1018,1017,16876,35999,9598,23307,1327,1033,703,757,11126,16338,5013,29387,1045,740,576,627,9723,30938,11567,34215,39487,29395,766,3230,22305,37654,4421,32999,39813,38717
1251,12799,384,214,213,205,212,213,1790,17835,405,163,161,156,157,152,1796,8118,1362,1320,1300,1288,1297,1297,395,3964,207,183,170,169,178,178,1024,1024,16927,36178,9628,23434,1331,1040,704,763,11151,16417,5020,29516,1051,741,581,626,9726,30970,11593,34345,39509,29421,770,3241,22350,37792,4426,33119,39851,38783
1251,12816,383,211,214,203,215,212,1789,17873,403,166,159,154,157,158,1795,8132,1368,1327,1307,1294,1301,1303,396,3967,204,181,169,169,175,179,1024,1022,16930,36149,9634,23295,1325,1032,705,763,11151,16376,5012,29278,1040,734,580,631,9738,31032,11592,34227,39555,29428,768,3255,22386,37864,4428,33077,39841,38733
1250,12749,383,213,213,209,213,212,1790,17796,401,167,162,161,156,159,1798,8082,1364,1323,1301,1290,1297,1300,394,3950,205,181,170,172,175,175,1017,1015,16703,35339,9497,22729,1306,1021,695,751,10998,15985,4960,28740,1025,725,581,624,9763,30944,11503,33745,39569,29380,770,3227,22261,37370,4390,32609,39745,38553
1246,12697,381,212,215,208,212,215,1788,17710,398,160,157,157,157,156,1794,8055,1361,1320,1297,1288,1296,1295,393,3934,205,178,170,168,179,175,1006,1005,16587,34941,9435,22493,1298,1017,689,744,10954,15870,4946,28565,1021,725,579,623,9741,30809,11470,33553,39541,29337,762,3185,22119,36980,4369,32366,39685,38443
1243,12667,381,213,214,206,211,212,1785,17646,399,167,160,159,155,155,1788,8028,1363,1320,1300,1291,1296,1294,393,3922,204,181,170,168,175,176,1003,1002,16535,34732,9401,22387,1295,1017,687,741,10946,15821,4936,28514,1022,724,580,620,9728,30728,11453,33452,39520,29308,763,3162,22050,36788,4357,32237,39640,38383
1243,12649,382,212,213,206,213,215,1781,17624,398,160,156,157,160,155,1787,8027,1359,1316,1295,1285,1292,1290,394,3917,206,180,170,169,175,175,1002,1001,16542,34759,9405,22418,1295,1012,690,742,10958,15858,4940,28551,1021,724,577,622,9713,30699,11454,33459,39495,29290,762,3157,22041,36784,4361,32231,39622,38365
1242,12633,381,210,214,205,212,212,1781,17608,398,162,158,161,156,154,1782,8012,1355,1311,1291,1279,1288,1291,394,3914,204,178,168,172,175,180,999,998,16538,34732,9405,22414,1290,1015,689,743,10962,15857,4939,28553,1024,725,583,619,9712,30663,11453,33450,39483,29274,762,3155,22043,36769,4357,32203,39610,38347
1241,12617,381,213,217,204,213,213,1778,17601,399,166,162,157,156,155,1788,8027,1374,1339,1317,1310,1317,1313,393,3917,205,181,174,173,176,177,999,1000,16564,34818,9425,22484,1299,1018,688,744,10971,15888,4943,28612,1025,727,577,623,9704,30653,11461,33490,39454,29269,760,3158,22060,36807,4363,32226,39603,38353
1240,12617,381,212,215,204,213,213,1781,17609,397,159,156,157,156,155,1802,8037,1366,1323,1296,1289,1292,1292,394,3915,204,181,171,169,175,175,1005,1004,16616,34966,9448,22608,1300,1018,692,747,10992,15951,4951,28726,1029,728,579,619,9714,30688,11473,33585,39457,29276,760,3164,22099,36907,4366,32301,39613,38380
1239,12617,377,211,215,205,213,211,1781,17635,401,161,158,162,157,156,1783,8027,1356,1313,1293,1283,1290,1285,394,3917,206,179,169,169,175,178,1006,1003,16654,35120,9469,22714,1303,1019,694,745,11012,16014,4960,28827,1031,731,577,620,9710,30711,11492,33670,39458,29292,761,3172,22138,37021,4373,32375,39631,38414
1241,12626,380,212,214,207,211,211,1782,17625,397,162,155,159,156,155,1783,8030,1355,1310,1289,1281,1287,1289,394,3921,205,183,174,171,175,176,1007,1005,16693,35265,9494,22822,1306,1022,692,750,11031,16068,4967,28925,1034,732,578,622,9709,30730,11504,33762,39475,29309,764,3179,22170,37117,4380,32454,39647,38449
1241,12639,378,210,214,203,212,211,1783,17681,401,160,156,160,156,157,1781,8037,1356,1314,1292,1283,1288,1289,396,3922,205,179,171,169,176,179,1010,1008,16733,35420,9521,22927,1311,1025,694,752,11044,16124,4977,29022,1035,733,579,623,9710,30770,11523,33838,39489,29330,761,3188,22205,37229,4387,32535,39671,38493
1239,12643,378,208,213,204,212,213,1785,17695,399,167,160,157,156,156,1782,8047,1353,1311,1286,1281,1287,1288,394,3927,203,181,170,171,176,177,1011,1010,16779,35589,9551,23052,1313,1027,695,751,11063,16189,4982,29134,1038,738,579,622,9713,30794,11538,33942,39503,29353,762,3198,22249,37343,4396,32638,39707,38548
1239,12663,381,212,213,204,212,212,1786,17729,403,166,159,159,154,155,1782,8060,1358,1315,1293,1282,1290,1289,393,3929,205,178,169,169,176,175,1014,1012,16822,35751,9574,23177,1320,1029,700,753,11081,16252,4993,29243,1040,735,578,624,9713,30816,11562,34063,39508,29371,765,3207,22283,37467,4404,32739,39739,38602
1243,12701,380,211,214,206,212,216,1784,17740,400,163,154,159,156,156,1782,8069,1355,1312,1291,1284,1289,1289,395,3940,205,180,173,167,173,174,1017,1015,16869,35934,9603,23303,1325,1034,700,757,11102,16319,5002,29359,1046,740,580,625,9715,30848,11581,34177,39519,29396,768,3219,22329,37600,4411,32847,39779,38658
1246,12735,384,211,213,205,214,213,1788,17771,405,162,159,157,155,155,1781,8081,1354,1311,1293,1282,1289,1285,397,3950,205,180,169,168,175,176,1021,1019,16911,36101,9631,23426,1330,1036,701,757,11121,16386,5011,29472,1048,741,581,627,9711,30874,11604,34295,39517,29412,764,3230,22367,37717,4421,32952,39823,38724
1244,12766,385,208,213,205,211,211,1784,17807,403,166,159,158,157,152,1784,8103,1357,1313,1293,1282,1290,1289,396,3956,207,183,174,176,175,176,1022,1023,16960,36281,9657,23553,1334,1039,703,760,11148,16464,5021,29591,1051,741,581,627,9716,30916,11628,34423,39545,29444,764,3242,22411,37858,4431,33078,39868,38793
1247,12788,384,212,218,204,212,213,1788,17839,406,165,157,156,160,156,1785,8111,1361,1315,1297,1287,1295,1291,395,3955,204,180,170,171,179,175,1025,1022,16928,36133,9648,23315,1328,1031,705,761,11131,16347,5003,29229,1037,732,579,629,9738,30994,11610,34205,39591,29441,769,3255,22441,37885,4429,32962,39853,38707
1243,12699,380,211,213,207,213,216,1788,17734,400,163,161,161,157,157,1787,8052,1358,1319,1297,1288,1296,1295,396,3940,204,177,171,171,175,175,1015,1012,16672,35244,9498,22703,1305,1021,693,746,10959,15932,4945,28658,1021,725,583,627,9755,30868,11511,33673,39598,29385,767,3217,22277,37287,4383,32437,39739,38505
1241,12647,382,213,216,204,212,212,1785,17647,403,164,158,161,155,156,1786,8030,1357,1317,1294,1292,1300,1305,394,3920,206,178,169,169,174,176,1006,1005,16543,34783,9422,22408,1297,1015,687,741,10914,15801,4927,28449,1017,724,578,623,9728,30722,11470,33435,39579,29336,762,3170,22118,36858,4358,32145,39658,38365
1239,12605,383,213,214,205,214,213,1783,17589,402,162,161,156,160,154,1800,8030,1384,1344,1322,1312,1319,1315,395,3911,209,181,171,165,175,180,1004,1002,16483,34519,9383,22244,1294,1020,688,741,10898,15729,4918,28342,1015,723,581,619,9726,30636,11443,33297,39542,29298,761,3143,22039,36608,4345,31973,39605,38285
1238,12584,382,216,215,204,212,212,1779,17533,399,163,158,156,160,155,1801,8010,1370,1325,1302,1291,1295,1295,401,3908,205,181,170,168,175,175,1006,1001,16479,34505,9379,22255,1294,1015,687,740,10907,15757,4921,28382,1018,722,580,616,9720,30612,11445,33298,39528,29283,758,3132,22020,36579,4344,31962,39591,38257
1235,12567,380,213,214,205,213,213,1779,17515,396,163,155,157,152,155,1783,7987,1354,1314,1291,1284,1290,1289,395,3896,204,175,171,172,178,177,1001,1001,16475,34479,9378,22255,1291,1013,687,742,10915,15761,4921,28390,1017,723,579,615,9718,30595,11443,33283,39527,29263,761,3127,22026,36558,4343,31927,39575,38241
1234,12549,383,213,213,202,211,212,1777,17500,400,163,161,156,160,153,1779,7976,1350,1309,1286,1279,1283,1287,392,3895,206,180,171,170,175,175,997,999,16485,34536,9387,22313,1291,1013,689,742,10925,15790,4924,28455,1019,723,577,617,9707,30579,11455,33313,39511,29259,757,3127,22026,36573,4346,31951,39569,38235
1234,12549,379,214,215,204,211,212,1775,17497,397,164,159,156,157,158,1776,7983,1350,1311,1288,1279,1285,1286,394,3897,203,180,164,172,177,176,999,997,16529,34670,9407,22420,1293,1013,688,742,10946,15850,4932,28558,1023,725,579,615,9705,30585,11467,33383,39496,29259,761,3132,22062,36663,4349,32011,39575,38247
1234,12559,379,212,214,205,212,215,1777,17521,399,163,158,160,155,156,1771,7981,1350,1306,1285,1278,1285,1285,393,3898,205,182,170,167,174,173,1000,1001,16566,34807,9433,22523,1298,1015,689,743,10965,15904,4942,28651,1023,727,577,617,9696,30586,11479,33457,39490,29260,761,3138,22097,36763,4357,32083,39585,38281
1237,12565,377,212,216,203,211,215,1781,17536,397,166,159,155,153,157,1776,7995,1355,1309,1288,1278,1286,1285,398,3903,205,180,167,168,178,175,1007,1001,16604,34951,9452,22625,1301,1016,690,743,10986,15960,4947,28745,1025,729,578,620,9699,30611,11489,33533,39484,29270,764,3148,22133,36866,4362,32153,39603,38315
1237,12596,379,212,214,204,211,211,1781,17575,402,163,158,154,155,159,1777,8000,1352,1309,1288,1280,1284,1286,393,3906,204,180,170,169,178,177,1005,1005,16644,35111,9479,22738,1305,1019,696,749,11003,16018,4957,28846,1029,731,576,618,9698,30631,11506,33625,39482,29282,761,3159,22172,36972,4370,32237,39623,38353
1238,12615,381,213,212,204,215,213,1778,17574,397,166,158,160,155,159,1775,8008,1351,1311,1288,1279,1287,1295,394,3912,204,182,171,170,174,177,1006,1004,16689,35275,9506,22866,1306,1022,692,748,11022,16080,4963,28956,1033,731,581,620,9695,30648,11523,33731,39491,29299,762,3166,22212,37089,4377,32335,39649,38398
1241,12636,382,211,212,203,211,213,1779,17606,402,164,159,161,154,157,1777,8022,1354,1314,1291,1281,1287,1287,393,3917,205,180,174,169,175,179,1011,1007,16732,35451,9535,23003,1313,1024,696,753,11043,16149,4972,29077,1035,735,582,623,9696,30675,11544,33843,39489,29314,762,3174,22247,37215,4387,32435,39685,38453
1242,12680,379,214,217,203,210,212,1777,17605,399,165,158,153,155,157,1778,8026,1353,1312,1289,1282,1287,1288,393,3923,205,180,173,167,176,175,1013,1010,16787,35639,9563,23132,1318,1028,696,753,11066,16214,4981,29190,1040,736,581,622,9697,30704,11563,33943,39496,29332,764,3186,22287,37334,4391,32547,39721,38509
1247,12706,383,213,214,207,212,215,1777,17648,401,167,158,157,157,155,1779,8045,1355,1314,1293,1284,1291,1291,396,3928,206,178,170,168,178,183,1018,1018,16830,35817,9596,23265,1326,1035,698,757,11085,16287,4993,29310,1044,739,579,626,9696,30741,11584,34066,39510,29364,765,3199,22333,37473,4403,32661,39774,38574
1245,12739,381,212,214,207,211,212,1780,17672,398,162,155,159,160,155,1779,8058,1355,1315,1293,1287,1297,1291,393,3936,205,180,169,170,175,178,1019,1019,16875,35979,9623,23351,1326,1034,702,757,11108,16352,4999,29354,1043,736,581,621,9701,30778,11604,34143,39543,29382,766,3211,22378,37602,4412,32759,39807,38607
1245,12705,385,214,213,204,214,213,1784,17671,405,164,161,156,157,155,1786,8036,1359,1318,1293,1286,1293,1293,394,3927,204,181,171,172,176,171,1019,1019,16715,35357,9533,22787,1310,1022,699,752,10990,15984,4953,28724,1026,727,579,624,9742,30808,11533,33642,39574,29350,766,3205,22333,37315,4383,32347,39727,38434
1241,12633,381,209,213,204,213,215,1780,17554,397,159,159,159,162,159,1783,7998,1358,1317,1296,1289,1296,1295,391,3909,213,181,174,172,175,176,1009,1008,16526,34722,9430,22400,1298,1017,689,743,10905,15776,4921,28427,1015,724,580,617,9725,30647,11467,33322,39555,29300,764,3152,22134,36761,4351,31982,39634,38273
1240,12599,377,213,215,205,210,210,1774,17475,399,165,158,160,158,157,1783,7977,1361,1317,1295,1289,1294,1297,397,3898,204,179,169,168,180,177,1005,1003,16443,34415,9382,22202,1294,1018,686,740,10882,15695,4911,28292,1016,723,580,615,9705,30545,11439,33155,39538,29261,760,3119,22032,36477,4335,31784,39586,38179
1237,12574,379,216,213,207,213,212,1776,17431,397,162,154,159,154,155,1784,7958,1359,1318,1295,1290,1296,1293,392,3889,204,179,174,169,179,174,1002,1000,16423,34331,9367,22183,1293,1016,686,739,10885,15695,4910,28322,1016,725,578,613,9693,30484,11431,33117,39517,29229,759,3100,21988,36365,4330,31742,39562,38148
1236,12568,378,212,213,204,211,212,1772,17400,399,167,162,158,158,159,1781,7950,1358,1315,1294,1287,1295,1296,393,3887,203,179,173,167,175,174,1004,1000,16432,34352,9376,22193,1294,1017,689,741,10899,15714,4913,28329,1018,725,577,613,9693,30467,11430,33091,39487,29210,755,3103,21994,36363,4331,31721,39548,38121
1236,12554,378,207,213,204,213,212,1765,17347,394,162,159,157,158,160,1778,7948,1356,1315,1295,1285,1297,1294,389,3886,204,179,169,169,176,170,1000,1000,16441,34363,9374,22221,1291,1016,688,742,10910,15725,4915,28362,1018,725,579,611,9684,30443,11427,33092,39467,29196,758,3095,21995,36354,4331,31722,39540,38114
1237,12564,377,212,217,205,212,216,1761,17313,395,161,157,160,158,155,1777,7951,1363,1325,1305,1299,1309,1305,394,3887,205,181,171,169,174,174,1005,1002,16478,34493,9396,22313,1299,1021,689,742,10925,15778,4923,28456,1023,728,577,618,9675,30442,11438,33154,39447,29190,756,3097,22017,36423,4335,31773,39541,38127
1237,12569,379,210,213,205,211,213,1755,17279,393,162,158,154,156,156,1787,7960,1366,1322,1297,1286,1292,1293,389,3890,205,181,170,168,175,183,1006,1006,16534,34653,9419,22429,1303,1021,693,745,10955,15841,4934,28563,1025,730,577,613,9683,30469,11450,33248,39437,29188,757,3105,22054,36531,4339,31854,39556,38162
1236,12579,381,212,213,203,211,212,1747,17217,395,163,155,153,160,155,1774,7951,1353,1311,1289,1277,1284,1285,390,3891,204,181,170,167,173,175,1009,1007,16567,34809,9445,22537,1308,1027,696,747,10972,15902,4939,28657,1028,730,575,613,9680,30495,11467,33335,39433,29206,758,3109,22089,36638,4348,31935,39562,38190
1236,12585,379,214,216,202,213,211,1740,17162,391,166,159,153,157,160,1769,7954,1345,1304,1283,1271,1280,1280,392,3891,203,180,171,167,173,180,1011,1009,16614,34969,9469,22640,1309,1028,695,748,10988,15953,4946,28757,1031,732,578,615,9677,30508,11482,33407,39434,29211,759,3117,22119,36733,4354,32020,39575,38220
1235,12589,380,211,210,203,211,212,1732,17137,393,164,162,159,153,156,1765,7963,1343,1304,1281,1273,1281,1279,390,3881,206,179,170,165,171,175,1017,1012,16656,35122,9503,22755,1315,1029,696,751,11006,16012,4956,28869,1035,735,577,615,9673,30526,11497,33503,39431,29223,759,3121,22157,36847,4362,32108,39594,38261
1233,12591,378,211,213,204,211,214,1727,17118,392,159,153,157,157,158,1767,7981,1345,1303,1283,1275,1281,1285,388,3880,204,179,171,168,173,175,1017,1017,16702,35290,9527,22875,1318,1032,699,753,11026,16075,4967,28981,1040,737,580,616,9671,30547,11516,33609,39433,29241,760,3127,22192,36971,4372,32218,39621,38312
1233,12599,380,210,215,206,211,212,1723,17108,393,167,163,157,155,157,1769,8006,1348,1311,1285,1277,1285,1285,388,3874,205,178,171,167,171,177,1021,1019,16741,35458,9555,22995,1323,1035,700,755,11046,16136,4975,29092,1041,739,577,617,9669,30573,11537,33728,39439,29263,760,3138,22234,37096,4381,32327,39652,38365
1232,12616,379,212,215,206,216,213,1717,17104,390,161,155,157,157,152,1776,8029,1351,1310,1289,1282,1291,1288,386,3873,203,179,171,169,175,177,1022,1023,16789,35635,9581,23123,1326,1040,701,757,11072,16209,4985,29225,1044,740,581,618,9668,30601,11561,33867,39442,29283,762,3145,22279,37228,4390,32452,39695,38419
1234,12646,385,211,213,205,213,216,1718,17127,396,160,159,159,154,155,1777,8049,1355,1313,1295,1286,1295,1293,388,3875,203,179,159,174,168,174,1026,1023,16816,35729,9604,23124,1325,1035,702,757,11091,16236,4989,29149,1039,734,581,619,9680,30641,11570,33848,39462,29283,759,3155,22320,37348,4395,32491,39699,38418
1232,12584,380,208,214,206,212,212,1719,17060,389,161,161,158,155,156,1783,8011,1356,1315,1294,1287,1291,1292,390,3879,204,178,168,168,175,175,1022,1015,16619,35008,9486,22574,1307,1024,697,748,10946,15849,4939,28582,1021,726,578,615,9702,30601,11487,33364,39475,29242,764,3134,22234,36950,4360,32042,39605,38233
1230,12538,385,214,213,207,213,213,1714,16972,390,162,154,157,156,155,1779,7983,1355,1312,1292,1283,1289,1289,387,3874,204,179,171,169,178,177,1009,1005,16483,34553,9414,22310,1296,1017,689,743,10895,15712,4920,28398,1021,725,577,614,9676,30452,11443,33136,39437,29186,757,3089,22074,36521,4337,31786,39528,38112
1229,12507,377,221,217,205,211,214,1716,16933,386,163,159,155,154,155,1779,7961,1354,1315,1291,1285,1291,1290,387,3871,203,179,168,168,178,175,1005,1001,16425,34353,9380,22196,1293,1015,688,739,10887,15665,4914,28330,1016,725,577,610,9663,30380,11422,33034,39411,29157,755,3061,22002,36326,4329,31674,39482,38046
1227,12503,382,217,216,205,212,211,1713,16911,393,162,159,154,155,155,1776,7951,1354,1310,1287,1280,1288,1287,389,3871,203,190,173,168,179,176,1003,999,16432,34381,9385,22228,1291,1014,687,740,10904,15701,4913,28373,1017,725,577,610,9652,30344,11422,33046,39379,29137,752,3054,21994,36321,4330,31681,39465,38031
1227,12495,378,212,213,207,212,213,1711,16903,385,159,161,159,156,155,1771,7945,1348,1306,1286,1277,1281,1281,391,3876,203,179,170,167,173,175,999,998,16442,34377,9388,22241,1290,1013,687,739,10912,15709,4912,28381,1017,723,577,609,9648,30331,11418,33036,39356,29122,752,3051,22002,36326,4331,31672,39453,38011
1227,12495,379,213,214,205,212,216,1709,16899,389,162,156,157,159,155,1767,7940,1349,1307,1287,1277,1284,1281,392,3879,203,184,163,164,174,174,1002,997,16456,34448,9403,22307,1294,1013,687,741,10928,15742,4919,28450,1020,725,578,609,9642,30321,11428,33078,39339,29115,754,3051,22015,36365,4333,31704,39451,38027
1225,12511,381,215,215,205,211,211,1710,16913,391,159,160,157,160,155,1766,7938,1347,1306,1286,1278,1283,1283,389,3883,204,179,169,170,173,179,1002,1001,16506,34615,9426,22429,1295,1019,688,743,10952,15807,4924,28562,1021,726,578,610,9642,30337,11442,33168,39337,29119,755,3055,22054,36474,4339,31792,39469,38057
1227,12527,384,212,213,206,214,213,1713,16949,390,160,159,156,157,160,1766,7949,1347,1307,1289,1277,1282,1281,390,3887,204,174,171,170,175,179,1003,1002,16555,34781,9459,22550,1298,1020,689,744,10973,15871,4935,28670,1027,727,574,611,9638,30359,11460,33250,39330,29128,757,3063,22097,36593,4349,31878,39487,38096
1230,12544,381,212,215,204,215,212,1713,16971,389,162,161,157,156,157,1767,7953,1345,1305,1286,1279,1285,1284,391,3894,205,179,170,166,175,175,1006,1006,16601,34943,9484,22659,1303,1021,691,746,10995,15933,4941,28768,1027,729,576,612,9640,30386,11472,33353,39330,29146,757,3071,22141,36719,4355,31973,39517,38133
1229,12567,381,211,215,207,212,214,1714,17008,390,161,162,157,159,156,1767,7971,1348,1307,1287,1278,1284,1284,389,3902,206,179,173,170,174,175,1005,1007,16645,35105,9516,22774,1309,1023,694,745,11014,15995,4951,28870,1030,730,576,612,9640,30421,11496,33451,39342,29163,759,3084,22185,36835,4365,32071,39551,38185
1231,12589,383,213,213,203,215,212,1719,17044,391,159,163,154,156,160,1771,7979,1348,1305,1286,1275,1284,1286,391,3909,207,178,170,167,175,175,1009,1008,16689,35278,9537,22898,1310,1026,693,749,11040,16061,4958,28988,1033,731,578,615,9643,30451,11515,33564,39355,29188,759,3093,22232,36965,4371,32174,39585,38241
1232,12619,382,213,215,205,211,214,1718,17079,391,163,157,160,158,155,1769,7995,1347,1306,1284,1274,1283,1282,391,3918,205,180,173,167,174,176,1011,1009,16734,35461,9566,23027,1317,1028,697,749,11062,16131,4968,29108,1035,735,576,613,9643,30487,11539,33689,39370,29215,759,3107,22273,37101,4383,32291,39623,38306
1235,12655,381,211,215,205,213,213,1721,17115,388,160,162,158,157,159,1767,8008,1350,1310,1295,1291,1302,1306,392,3924,205,181,171,169,178,177,1014,1016,16785,35649,9594,23153,1321,1033,697,753,11084,16201,4976,29215,1041,735,578,617,9647,30539,11564,33812,39381,29240,764,3120,22324,37236,4388,32399,39677,38367
1236,12684,379,214,215,206,214,214,1721,17151,392,164,158,156,156,153,1795,8056,1377,1335,1310,1302,1306,1305,392,3939,205,180,169,167,175,174,1020,1021,16852,35852,9627,23285,1330,1039,701,756,11103,16269,4988,29319,1045,739,576,618,9661,30598,11588,33958,39394,29270,760,3131,22367,37388,4399,32523,39724,38435
1239,12725,380,214,216,205,213,213,1726,17210,391,163,161,155,160,152,1789,8063,1361,1319,1298,1288,1296,1294,392,3945,204,178,170,158,175,179,1023,1023,16893,36013,9653,23400,1331,1036,702,760,11132,16344,4994,29402,1045,735,580,619,9668,30655,11614,34074,39437,29295,763,3147,22423,37533,4408,32637,39775,38491
1240,12690,384,213,214,204,212,212,1730,17212,394,164,156,154,158,159,1782,8033,1358,1317,1297,1286,1294,1295,394,3945,206,179,170,169,178,177,1022,1016,16757,35501,9579,22885,1313,1024,698,754,11027,16009,4949,28779,1025,724,581,620,9711,30702,11548,33601,39473,29266,763,3145,22394,37322,4385,32266,39694,38315
1237,12621,381,216,216,206,214,213,1727,17117,388,162,162,158,154,157,1778,7987,1355,1317,1295,1286,1291,1292,393,3926,204,180,169,172,175,174,1009,1006,16543,34794,9465,22451,1300,1020,690,739,10925,15752,4911,28425,1014,719,582,618,9698,30539,11474,33219,39463,29213,759,3095,22199,36725,4347,31866,39598,38149
1234,12575,381,213,215,205,213,212,1727,17067,393,161,163,157,161,160,1779,7970,1361,1317,1296,1287,1293,1292,392,3913,205,179,171,173,176,177,1004,1000,16448,34461,9413,22235,1292,1015,684,735,10901,15660,4901,28284,1013,719,576,610,9675,30436,11445,33042,39448,29175,755,3060,22082,36419,4331,31663,39538,38049
1232,12550,379,213,217,204,214,212,1727,17038,388,162,160,152,161,158,1775,7944,1355,1314,1294,1283,1290,1291,394,3908,204,179,170,171,174,175,998,996,16411,34330,9391,22185,1288,1012,685,735,10901,15645,4899,28297,1013,719,578,609,9660,30363,11434,32991,39420,29151,755,3043,22033,36291,4327,31611,39521,38015
1230,12535,383,212,214,205,215,214,1725,17032,391,165,157,157,156,156,1773,7939,1352,1313,1292,1283,1288,1289,390,3904,205,179,168,169,175,176,998,997,16421,34351,9402,22202,1287,1010,685,737,10917,15671,4905,28317,1015,721,573,607,9650,30344,11436,32983,39397,29133,754,3041,22040,36306,4329,31610,39512,37998
1229,12516,378,214,213,204,212,212,1727,17021,389,167,156,159,159,159,1772,7938,1353,1312,1289,1281,1289,1287,391,3901,203,181,176,172,176,175,997,997,16430,34367,9404,22228,1287,1011,684,737,10925,15687,4907,28362,1015,721,579,610,9644,30325,11433,32990,39389,29124,754,3043,22050,36307,4330,31617,39513,38000
1229,12519,380,213,214,206,213,215,1726,17039,391,162,161,158,153,155,1769,7933,1350,1310,1293,1282,1289,1285,392,3903,205,178,167,169,175,175,995,998,16461,34481,9425,22321,1291,1011,689,737,10945,15735,4917,28473,1019,723,574,609,9638,30322,11446,33055,39376,29123,754,3045,22071,36381,4339,31679,39528,38021
1230,12535,377,213,213,205,213,213,1728,17062,389,165,156,161,152,155,1769,7934,1352,1309,1288,1280,1285,1285,391,3905,204,183,174,171,177,175,1001,1000,16511,34644,9450,22439,1296,1014,688,741,10971,15797,4927,28568,1021,725,576,610,9637,30342,11461,33145,39366,29128,757,3054,22112,36490,4345,31769,39549,38058
1235,12545,382,215,215,205,215,215,1727,17085,394,162,159,156,155,157,1766,7938,1353,1308,1287,1280,1287,1286,395,3909,204,180,170,168,174,175,1002,1001,16554,34805,9476,22553,1298,1017,687,743,10992,15852,4933,28669,1027,726,576,610,9635,30363,11476,33235,39362,29138,756,3067,22154,36608,4357,31850,39568,38098
1230,12561,379,213,215,205,214,215,1727,17104,388,159,162,160,160,156,1768,7947,1350,1308,1288,1278,1287,1285,392,3915,205,180,165,184,175,175,1003,1003,16596,34960,9501,22666,1301,1018,691,744,11012,15917,4939,28771,1026,730,580,611,9637,30397,11493,33325,39369,29162,757,3073,22189,36718,4361,31943,39599,38139
1233,12579,382,213,214,206,211,212,1730,17125,393,163,156,157,155,157,1768,7957,1352,1308,1285,1277,1285,1283,392,3919,205,179,171,173,175,172,1007,1004,16641,35123,9530,22795,1308,1021,691,744,11030,15979,4947,28881,1029,730,577,612,9636,30421,11514,33444,39373,29171,755,3082,22231,36846,4370,32043,39631,38199
