 EMG Channel 
3590.33836
3606.61043
3617.24986
3615.819349
3606.252802
3605.06816
3609.314991
3606.521023
3599.122596
3601.581288
3610.566689
3617.138102
3611.371352
3604.777587
3607.973886
3607.549203
3619.216814
3606.543375
3601.313067
3610.231413
3611.371352
3608.778549
3610.991372
3611.460759
3614.29943
3601.827157
3599.882555
3606.901003
3605.872823
3596.350979
3604.196442
3619.55209
3616.668715
3606.141043
3595.412206
3594.227564
3599.793148
3596.753311
3609.158529
3610.209061
3610.298468
3605.269325
3599.8155
3598.474395
3593.199383
3596.663904
3594.227564
3596.395683
3603.972924
3608.756198
3597.37916
3593.244087
3602.654171
3608.264459
3603.749407
3594.406378
3602.564764
3602.38595
3595.568668
3600.173128
3601.536584
3600.620163
3599.480224
3595.345151
3601.782453
3604.017628
3601.111901
3595.613372
3599.234354
3605.872823
3612.019552
3596.082758
3591.478299
3595.926296
3593.378197
3591.455947
3589.31018
3592.1265
3597.312104
3607.348038
3613.070084
3606.677485
3594.361674
3580.883572
3582.939933
3592.729997
3599.390817
3593.892287
3598.742616
3604.442311
3618.255689
3611.550166
3589.399587
3577.374348
3585.130404
3598.608506
3601.693046
3601.380122
3606.878651
3610.209061
3601.603639
3609.270288
3612.332477
3599.94961
3589.153718
3587.611447
3597.356808
3606.699837
3603.436482
3601.380122
3611.907794
3619.596794
3609.225584
3595.345151
3588.371407
3595.099282
3604.151738
3599.122596
3596.418035
3603.883517
3604.799939
3605.694009
3605.314029
0
3799.282467
3807.887889
3801.741159
3783.211563
3780.819926
3788.978313
3790.073549
3787.570153
3776.841316
3770.582827
3774.650845
3785.916124
3785.402034
3787.212525
3785.35733
3781.870458
3788.799499
3779.992912
3780.037615
3781.602237
3783.30097
3779.724691
3782.675121
3780.48465
3785.960828
3778.495345
3781.311665
3785.692607
3791.995799
3787.458394
3780.775223
3773.108575
3771.879229
3771.409842
3785.580848
3789.335941
3785.133813
3781.155203
3780.551705
3782.585714
3779.814098
3783.43508
3784.597371
3781.848107
3779.411766
3787.994836
3789.268886
3785.916124
3786.005531
3783.68095
3774.852011
3779.45647
3784.284447
3783.859764
3786.027883
3783.43508
3782.317493
3790.744101
3783.323322
3777.489516
3782.228086
3786.966656
3792.219316
3778.04831
3784.373854
3784.396205
3780.842278
3787.033711
3787.592505
3793.515717
3792.26402
3787.681912
3781.713996
3785.670255
3788.620685
3774.270865
3776.148412
3785.066758
3786.586676
3780.730519
3779.300008
3782.563362
3786.564325
3783.233915
3778.160069
3780.104671
3783.16686
3792.39813
3788.531278
3787.52545
3791.36995
3793.269848
3788.643037
3781.043444
3780.328188
3782.4069
3786.720787
3793.336903
3789.648865
3782.116328
3787.994836
3793.605124
3790.744101
3782.630418
3776.237819
3782.093976
3788.419519
3791.705226
3789.648865
3782.071624
3785.379682
3783.43508
3785.893772
3787.123118
3791.36995
3790.453528
3789.537107
3776.349577
3767.006548
3777.467165
3793.515717
3791.705226
3787.748967
3787.883078
3787.123118
3781.289313
3780.305836
3786.363159
3790.565287
3784.865592
3784.865592
3791.816985
3785.960828
3776.573095
3778.875325
3779.881153
3779.858801
3791.638171
3794.18627
3794.946229
3787.01136
3790.47588
3783.81506
3781.199906
3781.982217
3785.513793
3783.502136
3780.328188
3779.411766
3789.268886
3784.84324
3781.915162
3790.006493
3791.88404
3791.548764
3790.431176
3778.852973
3775.74608
3779.702339
3781.110499
3781.088147
3786.743139
3782.541011
3776.930723
3778.629455
3782.429252
3785.022054
3782.250438
3783.345673
3787.033711
3785.111461
3778.42829
3781.311665
3785.35733
3777.288351
3775.790784
3783.882115
3789.402996
3786.363159
3781.289313
3780.261133
3784.642075
3788.955961
3786.139642
3778.093014
3772.996816
3775.008473
3779.568229
3788.978313
3793.269848
3794.275677
3788.151299
3784.485612
3780.194078
3779.858801
3782.451604
3783.233915
3789.604162
3796.510851
3784.954999
3777.9142
3781.624589
3790.386473
3797.382569
3794.32038
3789.090072
3780.238781
3785.156165
3788.799499
3784.910296
3782.563362
3789.201831
3788.821851
3786.229049
3792.107557
3792.509889
3782.78688
3774.784955
3780.909333
3789.872383
3795.72854
3789.984142
3785.625551
3781.311665
3785.334979
3788.151299
3784.127985
3786.944304
3790.319418
3783.099804
3780.685816
3784.440909
3776.729557
3773.17563
3785.960828
3800.221241
3803.03756
3798.433101
3791.88404
3793.962752
3793.023979
3785.804365
3783.16686
3795.86265
3809.363104
3813.498177
3804.356313
3798.991895
3800.9812
3802.612877
3795.236802
3793.403958
3793.225145
3803.55165
3809.094883
3803.395188
3803.372837
3804.222203
3793.850993
3790.162956
3794.610953
3799.438929
3795.393264
3799.662447
3794.812118
3800.08713
3800.109482
3794.543897
3793.269848
3796.466147
3796.510851
3789.358293
3788.151299
3787.212525
3788.866554
3789.760624
3789.268886
3787.816022
3790.967618
3794.432139
3790.833508
3791.325246
3790.118252
3789.492403
3796.644961
3787.078415
3788.575982
3792.286371
3789.291238
3790.230011
3788.93361
3784.396205
3787.570153
3793.135738
3792.01815
3795.72854
3792.845165
3785.647903
3789.313589
3788.196002
3789.604162
3793.850993
3789.246534
3785.066758
3778.540048
3786.229049
3790.900563
3793.895697
3785.424386
3784.865592
3790.833508
3788.799499
3785.469089
3785.782014
3785.066758
3787.14547
3785.178517
3783.926819
3776.014301
3778.763566
3783.859764
3778.852973
3780.171726
3782.898639
3783.122156
3783.211563
3783.569191
3780.842278
3778.629455
3778.227124
3777.578923
3777.198944
3780.551705
3777.556572
3777.355406
3778.093014
3775.835487
3769.800516
3771.029862
3778.472993
3778.249476
3774.784955
3771.096918
3776.193115
3784.70913
3787.324284
3774.047348
3767.766508
3772.952112
3771.298083
3772.616836
3772.14745
3775.455508
3777.489516
3776.237819
3771.275731
3776.528391
3776.193115
3774.002644
3770.202848
3775.299045
3775.768432
3771.320435
3774.449679
3778.852973
3776.036653
3772.527429
3771.499249
3773.399147
3782.630418
3780.082319
3770.515772
3772.885057
3772.527429
3774.807307
3773.108575
3772.929761
3775.187287
3781.132851
3778.830621
3775.880191
3772.214505
3781.713996
3783.368025
3779.210601
3777.288351
3775.142583
3773.466202
3778.651807
3782.697473
3786.340807
3793.783938
3784.32915
3774.852011
3775.075528
3768.43706
3767.364176
3773.17563
3775.522563
3782.876287
3778.830621
3778.405938
3777.131889
3780.842278
3777.645979
3772.616836
3772.818002
3770.269903
3768.95115
3770.716938
3775.522563
3774.695548
3775.187287
3772.14745
3773.734423
3776.863668
3778.182421
3772.818002
3775.857839
3783.43508
3780.372891
3769.822868
3767.587694
3772.482726
3778.651807
3776.148412
3775.835487
3779.545877
3777.400109
3779.903505
3774.159107
3777.847144
3781.37872
3775.008473
3772.773298
3775.410804
3778.94238
3776.416633
3777.601275
3784.575019
3781.043444
3778.830621
3776.908371
3773.376795
3777.467165
3785.916124
3779.635284
3777.511868
3782.317493
3774.181458
3780.48465
3779.255304
3770.538124
3772.169801
3778.003607
3778.651807
3775.187287
3783.569191
3780.797575
3768.593522
3770.8734
3771.38749
3772.818002
3774.472031
3777.355406
3779.59058
3776.908371
3772.214505
3769.33113
3768.459412
3768.638226
3770.404013
3770.649883
3771.208676
3767.520638
3771.275731
3775.656673
3775.857839
3772.035691
3772.169801
3773.957941
3777.198944
3772.594484
3771.342787
3774.382624
3773.935589
3777.109537
3782.608066
3778.093014
3771.588656
3766.090127
3770.806345
3769.867572
3770.649883
3770.180496
3774.516734
3779.702339
3774.606141
3777.087185
3774.449679
3765.263112
3768.280598
3776.461336
3774.0697
3775.835487
3772.058043
3770.381662
3775.790784
3771.499249
3775.276694
3777.53422
3776.595447
3774.226162
3773.510906
3774.002644
3775.902543
3780.238781
3776.438984
3777.757737
3780.462298
3780.037615
3783.256267
3786.653732
3782.093976
3779.367063
3772.080394
3771.38749
3783.233915
3782.719825
3779.747043
3771.856877
3771.38749
3777.511868
3774.449679
3769.487592
3775.701377
3783.837412
3783.055101
3769.152316
3768.682929
3774.293217
3775.120232
3773.17563
3775.343749
3778.696511
3776.863668
3772.885057
3774.248513
3781.177554
3779.769394
3773.220333
3773.17563
3775.075528
3776.997778
3772.259208
3778.517697
3771.476897
3770.985159
3766.112479
3764.771374
3773.108575
3783.993874
3782.183383
3781.7587
3775.74608
3775.61197
3771.409842
3776.707205
3774.248513
3774.516734
3776.863668
3773.130926
3769.84522
3770.582827
3777.444813
3780.685816
3774.807307
3781.557534
3774.986121
3772.236856
3769.264074
3774.829659
3776.528391
3772.370967
3777.511868
3780.127022
3785.804365
3783.725653
3774.829659
3776.327226
3771.968636
3771.856877
3776.707205
3776.014301
3773.443851
3782.250438
3776.841316
3775.053176
3774.963769
3771.208676
3766.783031
3770.783993
3771.588656
3785.133813
3784.664426
3774.114403
3770.940455
3775.276694
3778.405938
3772.885057
3778.294179
3781.602237
3776.707205
3776.26017
3771.990987
3768.481763
3769.129964
3777.467165
3777.310702
3779.098842
3776.550743
3770.918104
3756.165952
3762.603255
3779.97056
3788.55363
3782.183383
3782.317493
3776.997778
3778.584752
3782.250438
3773.354444
3776.64015
3769.353481
3768.347653
3777.601275
3784.619723
3781.89281
3775.321397
3777.713034
3782.049272
3780.909333
3779.858801
3780.775223
3778.294179
3776.170764
3778.5624
3774.896714
3773.935589
3774.114403
3772.79565
3780.238781
3780.372891
3780.462298
3778.495345
3779.545877
3773.533258
3776.729557
3778.495345
3772.259208
3772.28156
3770.8734
3771.655711
3773.890886
3770.292255
3772.952112
3775.634322
3771.499249
3772.192153
3768.302949
3768.638226
3773.421499
3774.114403
3786.564325
3790.162956
3784.105633
3784.127985
3779.277656
3782.764528
3787.078415
3781.870458
3788.531278
3783.949171
3786.564325
3786.161993
3786.072586
3784.463261
3785.245572
3786.452566
3786.899601
3787.078415
3789.805328
3785.714958
3791.682874
3776.528391
3780.574057
3789.604162
3782.384548
3780.819926
3787.078415
3787.458394
3781.37872
3790.498232
3781.266961
3783.256267
3785.580848
3779.568229
3786.050235
3786.072586
3783.010397
3784.865592
3785.111461
3794.052159
3785.782014
3784.239743
3791.928743
3793.247496
3791.235839
3792.554592
3786.653732
3787.547801
3785.044406
3782.496307
3790.319418
3787.838374
3788.93361
3785.111461
3786.854897
3785.692607
3786.698435
3783.569191
3783.457432
3786.743139
3782.675121
3783.233915
3783.055101
3782.27279
3787.458394
3787.771319
3789.470051
3789.604162
3783.323322
3778.584752
3781.088147
3786.586676
3786.094938
3786.340807
3788.263057
3791.414653
3788.397168
3784.284447
3789.268886
3783.837412
3787.950133
3790.297066
3787.436043
3781.490479
3790.47588
3789.045368
3788.240706
3785.580848
3785.133813
3784.351502
3780.439947
3786.586676
3790.006493
3789.045368
3779.83645
3773.488554
3780.439947
3777.422461
3781.557534
3778.316531
3783.613894
3784.19504
3782.831583
3778.584752
3774.270865
3778.852973
3784.798537
3781.713996
3777.288351
3777.869496
3784.686778
3784.060929
3780.775223
3783.993874
3781.199906
3776.148412
3774.293217
3773.242685
3774.606141
3779.635284
3783.122156
3783.748005
3783.993874
3779.59058
3781.445775
3780.685816
3781.602237
3779.59058
3782.004569
3784.999703
3781.468127
3773.488554
3768.280598
3776.237819
3786.653732
3789.537107
3776.863668
3771.409842
3775.790784
3773.935589
3775.142583
3777.042482
3776.059005
3780.574057
3774.7179
3771.611008
3776.014301
3780.641112
3775.254342
3772.639188
3777.243647
3781.423423
3781.199906
3777.869496
3776.416633
3774.449679
3767.40888
3766.984197
3775.61197
3782.876287
3783.546839
3782.429252
3783.591543
3786.027883
3787.346636
3779.769394
3781.311665
3787.458394
3784.32915
3781.89281
3788.55363
3791.749929
3790.364121
3785.893772
3783.68095
3781.535182
3785.804365
3789.827679
3784.954999
3783.569191
3789.179479
3789.537107
3785.200868
3783.904467
3786.519621
3787.816022
3785.938476
3782.898639
3782.049272
3785.334979
3777.690682
3771.476897
3786.430214
3790.587639
3788.93361
3780.305836
3786.698435
3792.39813
3788.263057
3784.686778
3783.16686
3788.754796
3790.0959
3785.670255
3781.065796
3781.37872
3784.105633
3785.871421
3785.245572
3793.605124
3793.135738
3786.854897
3786.430214
3788.128947
3788.464223
3787.257229
3788.978313
3787.257229
3784.865592
3786.564325
3786.586676
3792.241668
3789.492403
3785.133813
3777.109537
3783.546839
3794.633304
3787.458394
3783.725653
3785.111461
3788.374816
3781.602237
3780.395243
3783.546839
3789.470051
3789.201831
3781.669293
3786.609028
3779.925857
3783.68095
3784.083281
3780.708168
3777.847144
3777.9142
3787.123118
3783.748005
3781.982217
3786.005531
3786.072586
3782.608066
3783.613894
3789.313589
3784.999703
3780.037615
3783.43508
3781.982217
3788.128947
3778.227124
3773.30974
3776.12606
3781.602237
3781.915162
3778.070662
3778.987083
3777.288351
3773.712072
3767.721804
3766.827734
3771.186324
3776.12606
3775.23199
3770.515772
3769.800516
3771.163973
3771.655711
3771.990987
3771.163973
3772.594484
3770.962807
3775.008473
3769.711109
3767.341824
3763.05029
3766.89479
3769.599351
3771.275731
3773.488554
3768.638226
3767.297121
3775.075528
3766.335996
3762.893827
3771.365138
3772.549781
3772.125098
3775.120232
3769.152316
3773.153278
3775.790784
3776.416633
3782.652769
3780.082319
3774.539086
3763.340862
3767.16301
3771.745118
3767.453583
3767.073604
3768.57117
3759.85399
3766.939493
3774.7179
3778.003607
3776.617798
3772.438022
3774.226162
3775.790784
3778.651807
3785.446737
3774.606141
3778.025958
3779.83645
3778.763566
3777.444813
3778.517697
3789.671217
3785.714958
3779.769394
3779.814098
3780.149374
3777.824793
3777.9142
3771.856877
3773.600313
3779.389415
3779.143546
3782.563362
3783.390377
3786.11729
3787.413691
3779.747043
3774.293217
3781.646941
3783.68095
3780.954037
3780.574057
3781.982217
3785.73731
3784.284447
3783.16686
3786.63138
3785.513793
3780.663464
3777.400109
3780.819926
3789.514755
3788.911258
3779.545877
3785.156165
3786.027883
3789.693569
3784.887944
3784.239743
3786.921953
3786.094938
3790.498232
3785.200868
3783.636246
3787.860726
3784.507964
3778.94238
3779.143546
3781.915162
3786.161993
3784.284447
3775.857839
3778.830621
3779.434118
3777.198944
3781.311665
3785.73731
3786.407862
3778.070662
3777.064833
3781.669293
3780.596409
3780.86463
3777.757737
3778.718862
3784.84324
3783.16686
3774.762604
3781.132851
3780.328188
3778.830621
3778.629455
3780.037615
3784.686778
3788.352464
3791.816985
3780.99874
3778.629455
3781.222258
3782.250438
3787.883078
3787.816022
3786.519621
3780.462298
3775.902543
3780.305836
3780.328188
3779.411766
3778.204772
3778.875325
3782.719825
3781.423423
3776.573095
3783.904467
3786.184345
3779.769394
3776.349577
3777.891848
3782.27279
3781.088147
3781.266961
3780.238781
3784.664426
3782.496307
3776.148412
3776.908371
3779.791746
3781.982217
3774.58379
3776.975426
3780.596409
3781.736348
3780.372891
3781.959865
3787.480746
3786.407862
3779.724691
3773.890886
3777.176592
3784.776185
3779.434118
3777.958903
3777.131889
3782.004569
3776.751909
3776.684854
3783.613894
3780.149374
3775.120232
3775.343749
3778.540048
3782.27279
3776.975426
3772.035691
3774.181458
3779.031787
3774.002644
3771.543952
3778.696511
3777.131889
3776.483688
3774.293217
3767.811211
3774.33792
3780.99874
3780.417595
3772.527429
3777.064833
3778.607104
3776.617798
3774.7179
3775.857839
3779.45647
3775.835487
3769.33113
3777.355406
3784.32915
3780.86463
3774.673197
3770.269903
3771.946284
3779.903505
3776.103708
3768.794688
3765.888961
3772.929761
3774.0697
3772.102746
3774.919066
3779.367063
3778.852973
3779.702339
3771.365138
3772.79565
3773.510906
3774.58379
3772.505077
3773.890886
3779.501173
3778.093014
3775.276694
3779.679987
3781.803403
3771.923932
3774.561438
3775.634322
3783.43508
3782.093976
3779.232953
3776.863668
3777.981255
3773.82383
3772.639188
3773.220333
3778.629455
3776.930723
3778.316531
3777.243647
3785.558496
3778.517697
3771.320435
3771.990987
3776.528391
3778.160069
3779.791746
3770.940455
3774.472031
3778.070662
3776.528391
3777.02013
3778.472993
3775.99195
3774.20381
3769.867572
3771.76747
3777.243647
3778.093014
3776.483688
3776.751909
3779.210601
3780.082319
3775.455508
3778.271827
3779.07649
3783.010397
3777.02013
3773.82383
3780.685816
3782.161031
3779.322359
3772.326263
3776.684854
3779.143546
3776.349577
3775.835487
3775.455508
3778.160069
3777.9142
3782.675121
3785.692607
3784.552668
3777.578923
3777.690682
3778.227124
3775.23199
3779.009435
3770.716938
3772.773298
3781.825755
3783.390377
3778.584752
3774.0697
3776.796612
3780.954037
3777.02013
3777.265999
3779.747043
3779.255304
3774.539086
3772.236856
3778.517697
3779.925857
3776.908371
3774.114403
3779.143546
3780.395243
3771.745118
3767.811211
3767.654749
3769.107612
3775.455508
3779.568229
3778.249476
3785.580848
3782.876287
3780.395243
3788.061892
3788.240706
3785.111461
3779.389415
3782.809232
3788.866554
3790.744101
3782.161031
3781.24461
3788.68774
3790.587639
3786.63138
3781.199906
3785.849069
3790.028845
3783.390377
3785.692607
3790.319418
3785.446737
3782.78688
3783.926819
3787.413691
3785.446737
3787.994836
3784.217392
3780.439947
3785.022054
3784.910296
3786.474918
3788.777147
3789.425348
3786.497269
3788.151299
3785.35733
3787.391339
3792.442833
3789.604162
3788.128947
3787.614857
3787.480746
3787.793671
3785.513793
3787.190174
3793.9404
3795.102691
3789.559458
3788.03954
3794.901525
3794.588601
3786.564325
3784.507964
3785.804365
3786.474918
3788.128947
3790.274714
3793.873345
3787.01136
3784.239743
3784.999703
3789.134775
3790.0959
3789.984142
3784.552668
3788.598333
3791.325246
3786.296104
3787.614857
3788.754796
3789.023017
3787.078415
3786.363159
3788.911258
3788.196002
3785.73731
3778.651807
3775.120232
3773.220333
3775.276694
3776.12606
3774.270865
3776.751909
3780.149374
3774.673197
3776.170764
3774.784955
3775.053176
3778.405938
3777.02013
3773.600313
3780.48465
3774.986121
3773.868534
3774.494383
3777.064833
3778.204772
3772.192153
3767.833563
3775.477859
3777.511868
3776.26017
3776.50604
3772.303912
3776.327226
3774.941418
3774.673197
3771.320435
3773.600313
3774.047348
3774.539086
3778.94238
3778.741214
3771.029862
3768.660577
3773.555609
3778.651807
3779.992912
3772.929761
3768.459412
3774.896714
3778.316531
3773.779127
3777.735386
3776.617798
3778.294179
3771.38749
3769.264074
3773.488554
3775.053176
3775.343749
3773.957941
3776.528391
3783.256267
3778.964732
3774.896714
3776.081357
3777.15424
3779.523525
3770.828697
3774.740252
3780.216429
3777.802441
3775.299045
3774.293217
3781.37872
3778.249476
3769.733461
3770.381662
3773.399147
3776.193115
3772.952112
3774.829659
3776.26017
3773.957941
3773.846182
3772.460374
3772.482726
3777.623627
3775.589618
3773.376795
3778.875325
3773.846182
3781.89281
3779.300008
3773.354444
3773.846182
3775.768432
3775.276694
3774.248513
3774.270865
3773.287388
3773.063871
3771.700415
3772.035691
3781.669293
3781.870458
3774.449679
3772.996816
3773.801479
3772.818002
3775.366101
3776.327226
3775.410804
3772.460374
3765.285464
3767.721804
3772.750947
3773.779127
3775.120232
3775.276694
3773.645016
3777.131889
3778.249476
3783.993874
3771.946284
3772.259208
3778.808269
3783.993874
3785.402034
3784.552668
3781.266961
3786.720787
3784.999703
3782.965694
3789.96179
3785.960828
3785.6032
3784.105633
3786.273752
3783.055101
3781.490479
3779.300008
3778.808269
3775.366101
3782.675121
3787.368987
3786.474918
3780.238781
3778.964732
3778.204772
3779.545877
3776.997778
3777.958903
3785.22322
3783.43508
3778.517697
3780.283484
3783.16686
3782.093976
3783.949171
3784.083281
3780.775223
3787.301932
3782.071624
3776.595447
3783.748005
3791.615819
3788.508926
3787.190174
3782.831583
3790.252363
3789.246534
3786.161993
3787.436043
3790.386473
3792.77811
3787.056063
3784.70913
3779.367063
3780.641112
3777.198944
3771.231028
3770.605179
3770.35931
3765.464278
3764.503153
3765.799554
3767.677101
3767.051252
3757.752926
3757.574112
3763.251455
3765.911313
3768.705281
3773.086223
3772.683891
3765.196057
3763.586731
3765.352519
3773.287388
3768.81704
3761.038633
3765.665444
3766.89479
3766.224237
3769.733461
3773.242685
3775.857839
3767.811211
3760.88217
3764.391394
3769.129964
3768.146487
3766.961845
3767.967673
3768.638226
3771.722766
3767.073604
3765.218409
3768.43706
3768.325301
3768.705281
3766.984197
3768.593522
3766.581865
3767.431231
3766.89479
3762.983234
3763.094993
3769.152316
3767.297121
3761.440964
3765.218409
3770.828697
3770.158144
3767.006548
3764.681967
3768.526467
3773.17563
3770.068737
3765.888961
3769.197019
3769.934627
3767.811211
3761.597426
3764.771374
3767.788859
3764.346691
3765.777202
3763.385566
3764.011415
3765.732499
3767.319473
3769.97933
3767.587694
3769.152316
3763.05029
3762.960883
3764.927836
3764.413746
3766.224237
3773.533258
3768.504115
3762.938531
3758.870513
3770.716938
3778.115365
3778.182421
3774.181458
3772.393319
3779.07649
3775.187287
3774.516734
3780.886982
3776.014301
3768.727633
3770.292255
3776.64015
3774.695548
3776.193115
3780.305836
3775.388452
3778.025958
3778.629455
3776.349577
3776.394281
3782.026921
3778.920028
3779.098842
3776.12606
3775.656673
3774.449679
3768.280598
3767.900618
3771.946284
3782.764528
3784.776185
3776.304874
3780.417595
3779.098842
3775.276694
3778.137717
3777.176592
3775.388452
3776.349577
3774.427327
3769.487592
3772.035691
3770.247551
3775.857839
3777.735386
3776.908371
3773.913237
3773.108575
3770.560476
3775.74608
3778.450641
3780.149374
3773.913237
3770.940455
3774.270865
3774.159107
3777.087185
3773.510906
3776.908371
3778.495345
3768.749984
3771.543952
3774.047348
3776.394281
3775.969598
3771.275731
3775.857839
3777.064833
3777.735386
3777.623627
3776.215467
3781.646941
3772.952112
3768.124136
3772.862705
3777.735386
3772.594484
3764.458449
3767.40888
3781.423423
3778.361234
3767.520638
3770.49342
3774.315569
3775.99195
3770.158144
3768.146487
3770.582827
3774.449679
3776.237819
3776.528391
3771.722766
3770.269903
3769.46524
3770.180496
3774.0697
3772.14745
3770.940455
3770.404013
3769.152316
3769.197019
3769.576999
3771.275731
3770.426365
3772.259208
3769.46524
3769.152316
3763.989063
3767.475935
3769.576999
3765.508981
3767.185362
3774.606141
3772.840354
3771.029862
3769.889923
3769.644054
3773.846182
3773.130926
3769.956979
3767.386528
3769.442888
3767.118307
3767.364176
3771.678063
3774.136755
3772.907409
3770.806345
3768.615874
3771.052214
3771.029862
3767.54299
3770.024034
3771.231028
3774.896714
3774.159107
3775.522563
3779.903505
3775.254342
3778.763566
3776.841316
3776.662502
3777.981255
3779.009435
3779.814098
3779.747043
3775.343749
3776.148412
3770.985159
3771.476897
3773.242685
3773.555609
3768.302949
3771.90158
3771.499249
3775.09788
3773.555609
3772.326263
3774.047348
3780.641112
3772.885057
3771.76747
3771.789822
3770.918104
3770.694586
3772.013339
3772.102746
3770.091089
3769.532295
3774.0697
3774.315569
3774.516734
3773.488554
3769.576999
3772.706243
3778.584752
3776.997778
3772.527429
3769.644054
3773.063871
3772.28156
3770.336958
3771.968636
3772.438022
3776.953075
3777.087185
3776.461336
3779.07649
3779.344711
3777.645979
3777.243647
3777.377758
3779.322359
3779.411766
3772.616836
3769.308778
3778.495345
3776.483688
3775.567266
3771.096918
3777.981255
3776.50604
3768.504115
3774.695548
3782.719825
3777.869496
3772.035691
3770.49342
3771.879229
3767.341824
3774.58379
3779.411766
3776.908371
3779.747043
3774.561438
3771.499249
3773.443851
3779.277656
3776.50604
3772.013339
3775.09788
3776.573095
3771.678063
3772.28156
3776.193115
3778.383586
3779.881153
3776.684854
3778.04831
3786.787842
3781.132851
3778.651807
3782.563362
3776.349577
3777.489516
3780.127022
3775.790784
3774.695548
3778.830621
3781.043444
3779.992912
3779.367063
3783.457432
3784.217392
3778.093014
3772.41567
3774.114403
3778.584752
3775.075528
3783.233915
3782.004569
3777.9142
3777.9142
3780.194078
3785.22322
3784.910296
3773.153278
3778.897676
3780.462298
3776.193115
3776.059005
3775.075528
3782.27279
3781.982217
3778.405938
3779.97056
3781.289313
3781.803403
3774.248513
3775.969598
3774.7179
3778.204772
3779.657636
3780.708168
3779.903505
3779.054139
3775.790784
3778.830621
3774.270865
3777.444813
3779.97056
3776.170764
3774.606141
3783.636246
3786.854897
3780.730519
3780.752871
3779.657636
3787.14547
3781.7587
3776.304874
3781.021092
3784.105633
3780.529354
3778.741214
3776.170764
3779.344711
3777.355406
3774.628493
3779.188249
3777.645979
3780.551705
3778.316531
3774.7179
3783.122156
3784.485612
3782.317493
3778.04831
3779.657636
3781.691644
3778.852973
3782.608066
3779.434118
3780.261133
3776.729557
3780.305836
3775.969598
3783.68095
3782.853935
3780.819926
3779.121194
3783.010397
3782.116328
3784.798537
3779.747043
3775.813136
3776.684854
3777.757737
3778.003607
3782.563362
3778.405938
3776.483688
3781.021092
3786.76549
3782.78688
3784.060929
3780.238781
3780.529354
3780.417595
3775.835487
3779.59058
3777.9142
3777.735386
3781.51283
3782.585714
3781.423423
3787.301932
3781.51283
3771.499249
3778.830621
3785.469089
3777.310702
3774.226162
3776.528391
3780.305836
3777.802441
3771.834525
3777.221296
3779.881153
3779.411766
3774.650845
3775.835487
3778.584752
3779.791746
3777.578923
3774.829659
3777.288351
3776.237819
3775.164935
3782.853935
3778.517697
3777.176592
3778.450641
3774.852011
3778.94238
3783.502136
3779.031787
3780.86463
3775.343749
3775.455508
3777.869496
3783.770357
3777.422461
3774.047348
3775.723729
3778.607104
3778.137717
3779.83645
3775.701377
3771.655711
3774.002644
3777.087185
3781.423423
3784.038578
3778.025958
3776.215467
3783.949171
3776.170764
3774.226162
3774.695548
3775.790784
3777.467165
3777.556572
3774.874362
3783.837412
3782.898639
3774.159107
3773.980293
3781.7587
3784.284447
3788.128947
3784.575019
3780.596409
3783.144508
3782.943342
3782.4069
3782.518659
3780.976389
3778.42829
3776.50604
3777.422461
3787.972485
3783.278618
3777.735386
3779.188249
3779.59058
3787.257229
3783.189211
3778.025958
3783.770357
3784.105633
3783.725653
3780.082319
3786.452566
3785.960828
3783.211563
3779.545877
3780.529354
3783.211563
3780.931685
3779.635284
3778.517697
3784.396205
3786.184345
3783.658598
3786.921953
3797.248459
3788.419519
3782.496307
3782.898639
3782.943342
3784.999703
3780.842278
3783.993874
3784.507964
3787.190174
3784.060929
3785.402034
3778.070662
3784.32915
3786.072586
3785.446737
3787.100767
3781.445775
3781.289313
3779.478822
3783.524487
3792.26402
3787.860726
3785.424386
3780.685816
3781.7587
3786.720787
3779.232953
3775.74608
3779.814098
3782.831583
3781.982217
3782.898639
3786.63138
3787.100767
3781.155203
3779.255304
3784.977351
3787.234877
3782.652769
3782.4069
3779.07649
3784.686778
3778.204772
3783.949171
3783.926819
3781.713996
3783.591543
3777.087185
3777.467165
3777.265999
3776.50604
3773.086223
3777.958903
3771.476897
3772.594484
3777.53422
3774.226162
3772.370967
3776.908371
3776.64015
3770.962807
3777.109537
3784.70913
3779.925857
3775.120232
3776.059005
3779.635284
3777.355406
3779.188249
3784.753833
3786.877249
3782.831583
3778.651807
3776.573095
3780.618761
3783.837412
3776.282522
3776.349577
3775.902543
3776.908371
3776.438984
3773.041519
3780.059967
3784.396205
3777.489516
3772.259208
3776.26017
3773.600313
3775.187287
3776.193115
3770.918104
3769.733461
3772.169801
3772.14745
3770.985159
3773.17563
3771.812173
3770.560476
3772.125098
3772.505077
3767.341824
3771.320435
3769.867572
3771.543952
3777.601275
3783.569191
3781.915162
3779.322359
3780.417595
3781.110499
3777.265999
3779.188249
3780.171726
3779.568229
3780.775223
3784.664426
3787.346636
3779.367063
3779.098842
3777.847144
3781.088147
3783.457432
3785.558496
3780.216429
3781.669293
3781.736348
3776.818964
3777.623627
3781.266961
3782.339845
3780.082319
3780.708168
3784.753833
3779.322359
3781.088147
3781.334016
3781.445775
3778.271827
3777.9142
3778.540048
3785.782014
3785.402034
3776.573095
3770.627531
3773.712072
3777.288351
3770.292255
3765.732499
3765.330167
3766.961845
3768.705281
3773.17563
3769.46524
3763.877304
3769.085261
3768.258246
3766.872438
3771.521601
3778.450641
3773.957941
3773.220333
3773.957941
3771.029862
3771.476897
3773.890886
3770.336958
3773.332092
3768.727633
3773.265037
3770.158144
3768.682929
3775.187287
3770.024034
3770.336958
3782.339845
3778.852973
3776.550743
3775.522563
3776.684854
3773.555609
3772.706243
3776.573095
3779.501173
3783.390377
3782.317493
3778.830621
3771.655711
3777.288351
3779.881153
3776.394281
3777.355406
3780.641112
3781.602237
3780.149374
3779.992912
3776.550743
3779.300008
3779.881153
3784.217392
3778.5624
3777.556572
3773.332092
3773.846182
3776.997778
3776.483688
3775.522563
3778.204772
3779.188249
3787.927781
3786.072586
3780.99874
3774.852011
3779.814098
3775.142583
3772.102746
3774.695548
3774.740252
3784.105633
3780.283484
3781.155203
3778.987083
3779.255304
3784.910296
3783.971522
3785.692607
3786.340807
3785.916124
3780.886982
3788.084243
3795.303857
3792.979275
3791.727578
3793.560421
3793.739235
3790.341769
3788.374816
3791.973447
3796.019113
3797.449624
3793.761586
3795.125043
3798.746025
3797.1367
3797.069645
3798.902488
3798.723674
3794.946229
3791.88404
3793.381607
3798.321342
3800.198889
3795.840299
3795.907354
3794.678008
3798.410749
3796.734368
3791.906392
3795.415615
3795.616781
3799.483633
3799.371874
3798.03077
3799.327171
3794.722711
3794.610953
3797.248459
3797.248459
3793.538069
3794.678008
3798.67897
3799.550688
3798.276639
3796.086168
3800.869441
3802.411712
3800.869441
3798.880136
3799.818909
3798.053121
3798.008418
3800.534165
3800.645924
3796.913182
3798.433101
3799.662447
3804.289258
3805.518604
3808.781959
3810.033656
3812.201776
3816.068627
3818.862595
3817.633249
3813.297011
3817.432084
3826.417485
3825.813988
3823.355296
3833.190064
3826.573947
3824.964622
3824.070552
3828.697363
3828.384439
3830.552558
3826.238671
3825.366953
3829.256157
3827.847997
3832.452456
3835.738162
3834.620575
3833.950023
3832.698325
3834.061782
3830.239633
3832.720677
3834.575872
3833.65945
3830.396096
3834.866444
3835.112314
3829.770247
3829.882005
3835.715811
3837.727468
3833.726505
3833.100657
3830.284337
3835.626404
3836.721639
3827.825645
3827.132741
3830.507854
3830.060819
3829.524378
3829.703191
3830.463151
3829.658488
3829.770247
3827.356258
3828.965584
3834.397058
3831.759552
3829.747895
3833.793561
3826.417485
3821.23188
3826.126912
3832.564215
3836.85575
3827.37861
3825.590471
3826.752761
3830.038468
3828.026811
3827.423314
3826.529244
3833.793561
3832.832436
3831.893662
3830.440799
3828.965584
3826.931575
3823.824683
3827.825645
3833.614747
3830.507854
3824.495235
3827.132741
3830.105523
3826.35043
3832.027773
3832.407753
3838.040392
3831.714848
3830.016116
3827.088037
3828.719715
3830.485503
3827.847997
3832.49716
3832.519511
3829.479674
3831.625442
3832.675973
3832.743029
3834.128837
3832.63127
3829.256157
3820.606031
3827.110389
3825.679877
3819.68961
3816.22509
3816.538014
3813.654639
3814.772226
3814.794578
3815.263965
3819.421389
3822.662392
3820.829549
3823.444703
3818.057933
3814.280488
3811.665334
3817.186215
3820.248404
3812.738217
3821.74597
3824.741104
3821.388343
3817.432084
3814.079322
3817.186215
3821.433046
3824.741104
3820.538976
3822.12595
3823.332944
3818.013229
3812.961735
3813.878156
3818.370857
3814.526357
3821.343639
3820.158997
3817.655601
3822.282412
3821.723619
3824.294069
3821.656563
3819.980183
3822.617688
3816.470959
3823.757627
3825.903395
3825.32225
3819.30963
3817.275622
3820.382514
3812.402941
3812.715866
3814.43695
3820.226052
3817.119159
3814.235784
3817.230918
3815.934517
3820.404866
3824.115255
3815.196909
3816.716828
3818.952002
3819.600203
3816.090979
3819.331982
3819.890776
3819.153168
3819.399037
3823.690572
3826.685706
3818.102636
3815.599241
3821.723619
3828.138569
3820.2037
3813.632287
3820.494273
3821.030715
3820.114293
3817.342677
3814.81693
3818.728485
3821.500101
3816.761531
3813.833453
3820.091941
3821.321287
3816.269793
3811.777092
3816.381552
3821.723619
3819.466093
3820.2037
3817.409732
3815.420427
3819.756665
3816.538014
3813.185252
3816.470959
3820.650735
3818.102636
3814.682819
3818.415561
3825.255194
3817.700305
3818.14734
3825.121084
3823.601165
3825.45636
3828.876177
3826.529244
3825.232843
3826.909223
3825.210491
3819.086113
3823.444703
3825.143436
3819.488444
3823.802331
3828.27268
3826.395133
3821.23188
3820.606031
3821.209529
3820.024886
3820.024886
3819.30963
3816.538014
3825.07638
3831.156055
3821.164825
3822.215357
3823.511758
3824.450532
3819.086113
3820.71779
3828.675011
3828.853825
3829.993764
3829.569081
3820.829549
3825.07638
3818.14734
3822.50593
3823.91409
3824.0482
3821.321287
3821.053066
3826.037505
3825.031677
3817.946174
3817.655601
3825.188139
3830.619613
3824.964622
3821.23188
3822.12595
3823.288241
3825.657526
3823.176482
3828.183273
3824.964622
3819.331982
3818.504968
3815.152206
3818.460264
3817.543842
3815.97922
3814.615764
3815.442779
3819.197872
3817.432084
3819.108465
3817.029752
3818.013229
3812.581755
3817.745008
3818.080284
3821.47775
3821.656563
3822.282412
3819.667258
3822.684744
3822.729447
3821.947136
3821.902433
3822.729447
3820.807197
3817.074456
3821.813026
3821.544805
3825.188139
3819.577851
3818.817892
3819.488444
3817.677953
3817.029752
3810.927726
3821.433046
3823.802331
3817.163863
3811.307706
3814.727523
3814.861633
3815.867462
3813.744046
3813.811101
3813.498177
3813.654639
3809.273697
3814.325191
3819.533148
3818.862595
3811.352409
3820.740142
3824.629345
3821.008363
3816.672124
3817.320325
3817.342677
3820.449569
3822.170654
3821.187177
3832.228939
3837.772171
3832.050125
3827.177444
3828.898529
3828.92088
3827.512721
3827.937404
3826.529244
3825.83634
3814.124026
3808.983124
3813.453473
3817.275622
3810.659505
3812.492348
3805.138624
3810.59245
3804.490424
3798.03077
3798.142528
3797.807252
3798.343694
3797.941363
3796.197927
3793.783938
3791.36995
3786.676083
3794.253325
3789.492403
3786.139642
3789.201831
3781.423423
3784.262095
3785.670255
3785.044406
3778.987083
3777.735386
3783.546839
3773.801479
3773.153278
3780.216429
3780.48465
3779.59058
3777.690682
3774.181458
3771.432194
3775.634322
3774.829659
3773.533258
3779.925857
3778.808269
3774.047348
3767.095955
3778.003607
3781.356368
3775.142583
3773.577961
3769.867572
3776.684854
3774.0697
3768.660577
3771.499249
3777.310702
3773.265037
3773.399147
3774.58379
3774.20381
3774.226162
3772.907409
3770.292255
3770.962807
3766.067775
3767.297121
3764.816077
3768.81704
3770.135793
3761.038633
3764.883133
3767.744156
3774.941418
3773.220333
3767.855915
3762.603255
3770.269903
3772.66154
3766.537162
3764.145525
3770.091089
3768.705281
3764.749022
3765.330167
3769.889923
3771.812173
3773.779127
3773.17563
3769.040557
3765.307816
3758.378775
3760.055156
3765.956016
3768.414708
3767.297121
3768.481763
3772.616836
3773.868534
3767.118307
3766.738327
3770.783993
3774.360272
3772.460374
3764.771374
3761.038633
3766.850086
3761.150391
3762.938531
3769.599351
3775.924894
3778.025958
3776.886019
3786.2514
3788.486575
3792.174613
3792.129909
3792.26402
3790.654694
3797.740197
3797.494328
3793.515717
3794.365083
3796.019113
3797.27081
3794.499194
3799.327171
3792.01815
3794.32038
3789.760624
3790.006493
3791.280543
3790.699397
3785.871421
3793.515717
3796.734368
3791.414653
3783.859764
3786.229049
3794.566249
3795.393264
3789.715921
3788.575982
3790.274714
3793.001627
3794.275677
3791.437005
3789.894735
3790.833508
3793.448662
3790.542935
3790.542935
3794.163918
3791.325246
3788.911258
3790.230011
3794.566249
3796.801424
3792.308723
3790.386473
3791.995799
3787.14547
3790.833508
3793.850993
3793.225145
3787.793671
3793.448662
3794.342732
3789.984142
3793.046331
3789.805328
3790.252363
3790.028845
3793.828642
3795.326209
3791.638171
3789.090072
3789.715921
3792.152261
3793.403958
3795.057988
3800.221241
3800.221241
3793.873345
3786.005531
3784.373854
3789.939438
3785.491441
3785.782014
3779.59058
3775.61197
3767.945322
3764.749022
3766.492458
3771.990987
3764.07847
3765.844258
3767.051252
3763.69849
3761.195095
3761.64213
3757.328243
3764.123173
3760.457487
3759.295196
3762.044461
3761.932702
3757.529409
3755.338938
3757.194132
3761.485667
3767.319473
3766.447755
3761.731537
3764.458449
3760.993929
3754.042537
3756.255359
3757.305891
3752.254397
3752.075583
3758.870513
3754.556627
3758.289368
3759.85399
3753.327281
3755.853028
3762.424441
3758.512885
3755.383641
3755.853028
3755.093068
3751.293272
3756.300063
3759.85399
3763.273807
3763.31851
3756.612987
3754.243702
3762.893827
3762.558551
3758.736403
3758.490534
3756.948263
3757.842333
3758.199961
3751.717955
3757.462353
3760.077508
3762.558551
3758.088202
3760.993929
3759.541066
3760.323377
3755.830676
3752.209693
3761.820944
3762.178571
3761.552723
3755.562455
3760.658653
3762.759717
3753.975481
3753.997833
3759.965749
3760.077508
3757.887037
3754.914255
3757.015319
3764.681967
3760.74806
3757.395298
3754.444868
3755.361289
3760.435135
3757.082374
3767.520638
3760.904522
3760.703356
3761.753888
3758.512885
3753.439039
3760.010452
3755.942435
3749.996871
3757.752926
3763.922008
3766.470106
3769.733461
3770.940455
3774.650845
3783.613894
3779.07649
3777.578923
3779.098842
3777.869496
3778.472993
3778.338883
3773.421499
3777.243647
3775.790784
3777.400109
3775.679025
3771.678063
3775.120232
3775.343749
3772.818002
3774.852011
3777.042482
3768.012377
3776.081357
3779.188249
3775.299045
3774.494383
3776.237819
3773.779127
3774.159107
3769.84522
3774.293217
3778.472993
3781.423423
3781.043444
3776.953075
3776.394281
3778.025958
3776.751909
3776.751909
3773.957941
3772.41567
3774.740252
3779.188249
3781.803403
3781.334016
3775.723729
3774.762604
3776.953075
3773.242685
3773.153278
3778.093014
3771.365138
3778.607104
3780.059967
3779.769394
3781.825755
3781.334016
3776.573095
3780.082319
3783.16686
3777.489516
3778.42829
3773.868534
3778.517697
3779.232953
3777.601275
3777.690682
3774.561438
3776.774261
3778.137717
3776.796612
3780.462298
3780.529354
3781.222258
3781.982217
3781.959865
3778.137717
3778.025958
3777.422461
3782.675121
3783.122156
3778.472993
3783.904467
3783.055101
3781.646941
3784.217392
3783.43508
3784.284447
3786.676083
3784.351502
3779.523525
3782.496307
3781.132851
3778.830621
3779.657636
3774.159107
3780.35054
3785.133813
3785.491441
3784.820889
3781.7587
3776.081357
3781.468127
3778.316531
3774.270865
3777.645979
3778.964732
3777.757737
3778.271827
3782.541011
3786.139642
3787.190174
3778.182421
3774.494383
3782.317493
3782.876287
3784.999703
3787.570153
3786.743139
3785.402034
3784.70913
3779.07649
3781.825755
3786.899601
3780.976389
3779.724691
3790.274714
3788.196002
3783.144508
3783.725653
3785.022054
3781.088147
3789.626514
3779.322359
3777.243647
3781.959865
3785.402034
3783.055101
3783.725653
3781.624589
3780.954037
3783.010397
3789.358293
3783.345673
3780.082319
3777.176592
3783.837412
3785.066758
3781.646941
3786.586676
3778.338883
3779.411766
3782.78688
3782.78688
3786.184345
3789.201831
3791.280543
3790.162956
3793.672179
3787.301932
3784.575019
3788.575982
3786.273752
3786.519621
3789.939438
3794.476842
3788.531278
3789.023017
3789.157127
3782.831583
3782.295141
3785.804365
3787.14547
3788.620685
3793.493365
3783.122156
3789.06772
3789.157127
3791.392301
3790.542935
3795.683836
3787.257229
3784.865592
3781.870458
3787.570153
3794.007456
3790.945267
3784.552668
3782.093976
3787.681912
3784.440909
3788.240706
3798.634267
3789.246534
3792.77811
3792.867517
3796.10852
3793.42631
3794.588601
3790.744101
3786.072586
3795.147395
3802.635229
3792.129909
3790.364121
3796.801424
3798.075473
3790.922915
3784.820889
3791.213488
3797.539031
3786.407862
3790.60999
3793.247496
3790.744101
3787.905429
3786.810194
3786.363159
3789.939438
3795.236802
3786.318455
3787.01136
3788.464223
3788.084243
3781.155203
3789.358293
3792.375778
3785.513793
3787.681912
3788.844203
3787.681912
3787.368987
3788.821851
3788.710092
3798.120177
3799.215412
3787.503098
3781.937514
3786.787842
3791.839336
3787.212525
3785.290275
3788.911258
3797.986066
3797.315514
3791.88404
3787.771319
3785.267924
3788.151299
3789.715921
3787.346636
3788.620685
3791.682874
3788.754796
3786.340807
3791.50406
3795.21445
3792.26402
3789.268886
3792.219316
3797.494328
3795.057988
3785.245572
3784.463261
3784.776185
3784.060929
3782.339845
3776.617798
3779.948208
3773.287388
3773.153278
3770.135793
3780.708168
3781.289313
3779.612932
3778.741214
3777.042482
3777.310702
3777.713034
3774.0697
3775.187287
3778.227124
3778.271827
3776.215467
3783.703301
3779.300008
3776.975426
3777.981255
3779.881153
3773.443851
3770.940455
3771.566304
3766.604217
3769.778165
3778.987083
3778.003607
3773.68972
3772.035691
3782.205735
3780.059967
3775.388452
3784.977351
3780.99874
3777.064833
3779.523525
3775.835487
3779.344711
3784.575019
3780.976389
3775.947246
3784.239743
3784.060929
3778.249476
3778.093014
3784.306798
3783.122156
3784.060929
3775.74608
3784.284447
3786.318455
3781.334016
3781.736348
3779.679987
3781.736348
3776.304874
3769.375833
3773.376795
3781.937514
3779.344711
3778.42829
3776.528391
3780.663464
3783.457432
3776.930723
3778.405938
3779.300008
3776.036653
3771.25338
3769.509944
3776.729557
3783.569191
3775.813136
3770.8734
3768.638226
3766.783031
3776.12606
3785.334979
3785.22322
3787.190174
3781.199906
3780.171726
3785.916124
3794.566249
3795.996761
3793.9404
3789.939438
3796.063816
3801.562345
3795.013284
3794.409787
3803.618706
3805.071569
3798.03077
3802.791691
3799.036598
3792.487537
3799.416578
3802.031732
3798.321342
3800.712979
3797.315514
3792.755758
3794.722711
3796.376741
3797.203755
3791.727578
3784.932647
3788.017188
3792.934572
3796.354389
3792.845165
3793.180441
3795.706188
3789.023017
3790.274714
3790.006493
3793.783938
3792.353426
3791.995799
3796.086168
3790.699397
3793.538069
3790.654694
3795.192098
3798.656618
3797.114348
3795.415615
3793.381607
3794.745063
3797.65079
3798.254287
3794.18627
3792.621647
3789.268886
3787.346636
3794.722711
3792.53224
3793.046331
3793.962752
3792.822813
3790.431176
3793.403958
3792.733406
3793.493365
3794.856822
3793.649828
3791.906392
3792.733406
3797.427272
3797.896659
3794.119214
3791.191136
3791.928743
3797.986066
3793.001627
3791.146432
3794.275677
3791.36995
3795.594429
3796.779072
3792.800461
3795.34856
3797.851956
3794.70036
3790.811156
3790.051197
3788.575982
3789.291238
3788.598333
3788.017188
3783.122156
3774.20381
3776.751909
3785.692607
3784.105633
3777.869496
3779.97056
3779.702339
3781.646941
3782.093976
3778.115365
3774.874362
3782.608066
3785.849069
3784.70913
3783.837412
3781.781051
3778.42829
3775.969598
3776.349577
3786.966656
3789.693569
3779.322359
3778.227124
3786.810194
3780.886982
3779.523525
3777.690682
3780.819926
3780.99874
3783.010397
3785.6032
3787.324284
3788.240706
3782.339845
3782.675121
3778.338883
3778.361234
3780.261133
3782.541011
3779.657636
3785.670255
3784.731482
3782.652769
3784.440909
3785.849069
3789.917086
3787.860726
3787.637208
3787.927781
3780.886982
3785.782014
3785.267924
3784.753833
3786.720787
3785.960828
3782.876287
3786.318455
3786.11729
3785.066758
3784.060929
3784.239743
3785.312627
3785.044406
3782.049272
3782.876287
3791.325246
3786.541973
3781.89281
3776.886019
3779.434118
3778.964732
3778.629455
3780.283484
3784.664426
3783.770357
3780.238781
3778.540048
3776.528391
3784.105633
3788.93361
3780.507002
3777.064833
3775.23199
3778.897676
3785.938476
3784.463261
3783.68095
3787.123118
3791.392301
3784.887944
3778.003607
3786.094938
3783.68095
3781.401072
3782.719825
3786.296104
3783.457432
3784.530316
3788.397168
3783.949171
3783.122156
3784.172688
3785.044406
3780.261133
3783.904467
3781.356368
3784.664426
3785.558496
3784.910296
3780.551705
3784.686778
3787.368987
3784.84324
3777.064833
3780.708168
3786.407862
3782.496307
3778.070662
3778.94238
3784.239743
3787.972485
3787.458394
3784.217392
3791.280543
3790.878211
3785.245572
3790.945267
3796.376741
3794.968581
3793.873345
3796.75672
3791.101729
3794.342732
3795.639133
3792.733406
3790.118252
3790.811156
3800.802386
3791.213488
3791.638171
3797.762549
3797.069645
3794.543897
3791.302895
3793.716883
3797.851956
3798.54486
3799.126005
3792.129909
3794.990932
3793.403958
3789.760624
3790.98997
3794.856822
3790.542935
3788.799499
3789.648865
3794.789767
3793.761586
3787.301932
3791.951095
3795.572078
3785.536144
3780.283484
3780.395243
3790.565287
3791.816985
3788.866554
3785.625551
3786.519621
3788.643037
3785.178517
3785.491441
3792.666351
3794.566249
3798.477804
3788.643037
3786.586676
3791.258191
3787.994836
3785.580848
3789.157127
3790.364121
3789.58181
3793.850993
3791.168784
3789.693569
3793.180441
3791.906392
3790.60999
3792.152261
3793.2922
3788.151299
3790.431176
3793.515717
3792.062854
3787.190174
3791.749929
3791.057025
3796.779072
3796.063816
3792.822813
3794.566249
3793.985104
3790.60999
3784.150336
3792.889868
3797.427272
3791.50406
3788.196002
3791.88404
3792.174613
3794.052159
3789.827679
3788.732444
3794.70036
3796.175575
3793.42631
3789.872383
3793.538069
3797.091996
3794.163918
3794.342732
3795.817947
3795.281505
3793.023979
3796.823775
3800.042427
3797.762549
3795.952057
3793.627476
3795.996761
3793.046331
3794.298028
3794.029807
3794.901525
3795.281505
3795.527374
3793.783938
3790.654694
3790.520583
3798.410749
3792.442833
3792.867517
3792.331075
3795.505022
3793.180441
3791.995799
3799.751854
3804.669238
3799.528336
3788.821851
3792.331075
3795.505022
3791.995799
3788.531278
3785.625551
3785.960828
3787.838374
3778.852973
3780.931685
3785.491441
3789.045368
3783.993874
3786.810194
3790.118252
3790.47588
3790.162956
3788.330112
3784.619723
3788.419519
3789.045368
3787.078415
3788.397168
3790.386473
3785.670255
3784.552668
3782.585714
3788.978313
3787.123118
3786.229049
3787.436043
3791.168784
3787.301932
3785.670255
3783.949171
3783.099804
3786.899601
3789.425348
3785.022054
3784.776185
3790.319418
3792.867517
3787.346636
3788.017188
3787.391339
3789.492403
3783.43508
3782.518659
3786.676083
3789.827679
3785.446737
3783.658598
3783.16686
3785.580848
3785.022054
3784.552668
3788.017188
3787.838374
3787.346636
3783.591543
3788.866554
3791.213488
3788.374816
3782.697473
3785.066758
3784.686778
3782.518659
3787.748967
3789.492403
3789.514755
3787.458394
3782.518659
3784.575019
3793.113386
3789.335941
3782.652769
3786.63138
3787.65956
3788.68774
3784.396205
3789.693569
3796.957886
3794.521546
3786.005531
3787.570153
3792.375778
3789.313589
3790.140604
3792.554592
3791.079377
3786.11729
3789.604162
3782.764528
3783.658598
3783.345673
3782.295141
3775.455508
3776.64015
3780.417595
3781.736348
3783.010397
3783.792708
3783.233915
3786.363159
3778.093014
3774.293217
3780.842278
3788.285409
3785.826717
3780.127022
3784.999703
3785.066758
3782.943342
3789.782976
3785.960828
3784.820889
3783.368025
3783.010397
3784.887944
3785.044406
3784.664426
3782.429252
3780.708168
3780.216429
3786.810194
3784.485612
3779.679987
3786.229049
3781.445775
3778.875325
3782.004569
3784.172688
3783.323322
3780.216429
3786.229049
3791.392301
3777.9142
3772.616836
3767.610045
3770.314606
3777.400109
3776.26017
3779.210601
3780.082319
3784.440909
3786.363159
3783.144508
3783.725653
3786.2514
3782.429252
3785.334979
3780.35054
3781.870458
3781.915162
3779.97056
3785.111461
3790.252363
3787.52545
3785.804365
3787.65956
3784.977351
3794.007456
3793.202793
3787.860726
3785.647903
3786.139642
3782.943342
3781.110499
3782.78688
3781.803403
3782.362197
3782.719825
3781.24461
3783.993874
3786.229049
3782.831583
3780.216429
3777.310702
3780.149374
3781.535182
3780.261133
3779.791746
3783.859764
3775.74608
3781.266961
3782.183383
3782.161031
3781.825755
3789.358293
3791.951095
3791.213488
3781.937514
3782.809232
3783.099804
3780.328188
3781.89281
3785.782014
3789.000665
3789.291238
3787.436043
3789.514755
3794.119214
3799.081302
3798.880136
3790.654694
3789.157127
3793.113386
3791.615819
3790.386473
3787.972485
3792.576944
3791.928743
3785.625551
3787.592505
3785.178517
3789.425348
3788.866554
3793.001627
3794.566249
3795.080339
3798.656618
3794.745063
3790.431176
3791.101729
3789.559458
3791.36995
3789.58181
3787.458394
3790.408825
3786.474918
3788.821851
3786.653732
3792.26402
3794.610953
3791.839336
3789.380644
3788.844203
3789.268886
3784.686778
3787.033711
3790.252363
3790.85586
3793.448662
3796.421444
3796.734368
3791.772281
3788.106595
3784.798537
3788.486575
3787.190174
3782.675121
3791.638171
3795.34856
3791.034674
3787.212525
3787.52545
3791.772281
3791.146432
3794.499194
3792.53224
3781.535182
3780.775223
3789.06772
3789.693569
3786.609028
3784.664426
3786.139642
3785.156165
3793.627476
3787.726615
3789.537107
3787.570153
3788.978313
3785.469089
3787.994836
3788.061892
3787.480746
3792.107557
3792.040502
3787.346636
3785.782014
3795.303857
3794.789767
3784.820889
3788.93361
3790.006493
3793.716883
3791.705226
3790.185307
3790.766453
3789.246534
3788.285409
3791.88404
3787.01136
3789.492403
3783.949171
3785.133813
3785.6032
3787.257229
3787.324284
3785.871421
3782.719825
3783.122156
3783.949171
3780.596409
3784.575019
3787.257229
3787.592505
3784.798537
3781.468127
3785.670255
3783.524487
3782.92099
3782.608066
3788.03954
3789.96179
3787.816022
3785.08911
3789.313589
3794.029807
3789.850031
3789.380644
3789.760624
3788.464223
3787.279581
3787.190174
3789.090072
3793.471014
3787.748967
3782.876287
3787.547801
3789.738272
3792.889868
3788.441871
3784.507964
3794.18627
3797.539031
3793.962752
3790.833508
3792.39813
3801.025903
3802.501118
3798.969543
3795.683836
3797.069645
3797.404921
3802.545822
3806.166805
3800.869441
3795.750892
3799.416578
3803.79752
3808.714903
3802.076435
3795.169746
3798.67897
3799.975371
3798.433101
3800.176537
3799.215412
3799.260116
3797.583735
3794.32038
3797.091996
3801.450586
3804.177499
3801.718807
3803.730464
3807.709075
3797.986066
3795.505022
3796.399092
3796.175575
3802.657581
3797.874307
3796.846127
3797.986066
3803.775168
3797.740197
3800.780034
3795.460319
3794.745063
3794.789767
3794.588601
3796.309685
3795.370912
3799.863613
3801.49529
3798.433101
3805.183328
3807.351447
3797.315514
3798.813081
3797.114348
3796.309685
3797.1367
3794.946229
3792.174613
3797.516679
3798.746025
3791.034674
3795.169746
3798.701322
3802.746988
3798.790729
3795.34856
3798.298991
3800.936496
3790.162956
3793.202793
3799.930668
3794.45449
3796.734368
3792.26402
3794.610953
3799.841261
3795.907354
3797.1367
3793.225145
3794.610953
3799.863613
3800.042427
3797.874307
3799.975371
3797.315514
3796.466147
3795.21445
3799.662447
3801.204717
3797.740197
3798.723674
3801.316476
3798.209584
3798.522508
3798.656618
3799.818909
3805.004514
3802.478767
3795.125043
3798.03077
3800.221241
3796.62261
3796.868479
3799.19306
3809.161938
3806.122101
3804.780996
3805.652714
3802.992857
3800.154185
3803.350485
3800.802386
3799.05895
3802.501118
3807.016171
3807.440854
3804.333962
3806.524432
3798.298991
3797.740197
3798.097825
3803.998685
3806.010342
3807.463206
3799.617743
3801.987028
3804.222203
3802.545822
3801.11531
3805.026866
3805.451549
3804.356313
3803.663409
3805.228031
3802.948153
3802.881098
3794.879174
3794.342732
3799.908316
3794.610953
3799.126005
3797.628438
3796.399092
3797.382569
3791.816985
3795.460319
3798.589563
3795.236802
3792.599296
3794.812118
3794.052159
3794.119214
3796.421444
3798.366046
3801.316476
3797.740197
3796.868479
3801.696456
3803.350485
3792.286371
3791.325246
3797.293162
3798.567211
3797.539031
3794.610953
3792.286371
3795.750892
3795.639133
3797.449624
3792.040502
3800.310648
3801.808214
3792.867517
3793.023979
3797.986066
3800.310648
3797.427272
3801.048255
3794.901525
3794.298028
3798.477804
3798.366046
3795.057988
3798.991895
3802.434063
3797.002589
3796.019113
3795.013284
3792.733406
3788.084243
3789.358293
3790.297066
3789.224182
3791.034674
3788.03954
3789.246534
3790.811156
3790.118252
3789.313589
3789.425348
3790.364121
3787.301932
3789.604162
3790.47588
3791.615819
3793.627476
3793.158089
3791.258191
3792.420482
3795.303857
3799.818909
3796.846127
3792.01815
3791.325246
3793.314552
3797.539031
3798.142528
3795.169746
3794.432139
3790.699397
3797.360217
3796.175575
3792.688703
3790.967618
3791.258191
3791.705226
3796.779072
3798.410749
3800.712979
3799.237764
3795.080339
3792.554592
3790.833508
3789.559458
3782.541011
3780.372891
3786.63138
3784.932647
3778.338883
3774.002644
3771.186324
3772.706243
3774.494383
3774.58379
3778.584752
3775.500211
3776.12606
3783.189211
3777.645979
3774.002644
3772.393319
3776.282522
3777.265999
3778.42829
3779.389415
3777.9142
3774.360272
3775.544915
3776.953075
3775.276694
3774.382624
3769.040557
3772.706243
3775.23199
3772.728595
3773.265037
3779.992912
3782.384548
3778.204772
3775.276694
3775.567266
3781.266961
3772.505077
3773.712072
3772.28156
3776.617798
3778.808269
3780.283484
3775.880191
3772.460374
3775.321397
3775.187287
3774.986121
3778.674159
3781.37872
3777.198944
3777.958903
3783.926819
3782.652769
3774.516734
3768.749984
3774.896714
3774.941418
3770.024034
3770.135793
3773.935589
3779.232953
3777.735386
3774.33792
3777.355406
3776.729557
3772.393319
3773.153278
3774.896714
3774.784955
3782.78688
3780.194078
3783.658598
3786.76549
3789.090072
3793.672179
3786.519621
3786.340807
3795.34856
3800.400055
3799.617743
3802.881098
3805.33979
3809.273697
3809.206642
3809.318401
3811.821796
3816.381552
3819.510796
3823.131779
3824.115255
3830.32904
3826.037505
3823.645869
3822.952965
3827.8927
3834.397058
3824.249366
3829.546729
3837.325136
3838.666241
3829.703191
3835.849921
3835.469942
3834.642927
3839.403849
3837.705116
3839.135628
3839.157979
3838.062744
3839.314442
3842.197817
3846.824628
3845.237654
3845.863503
3846.198779
3841.773133
3840.610843
3837.213378
3839.80618
3843.561273
3839.336793
3838.91211
3841.72843
3838.710944
3840.007346
3837.906282
3835.313479
3835.626404
3837.88393
3835.939328
3837.861578
3839.649718
3841.72843
3839.046221
3830.485503
3837.325136
3842.309575
3838.085096
3834.55352
3832.49716
3831.714848
3831.491331
3834.799389
3839.80618
3836.364011
3834.9335
3838.152151
3841.683727
3833.257119
3840.789657
3840.990822
3844.790619
3842.220168
3836.676936
3839.314442
3833.480636
3840.499084
3841.683727
3834.151189
3837.213378
3846.712869
3841.460209
3835.358183
3833.324174
3834.441761
3840.163808
3840.946119
3841.571968
3840.588491
3832.698325
3833.994726
3840.119104
3840.432029
3839.783828
3840.119104
3838.509779
3842.980128
3840.119104
3838.375668
3840.499084
3842.957776
3840.454381
3838.934462
3842.6225
3841.683727
3842.175465
3832.743029
3829.323212
3834.911148
3842.488389
3848.00927
3841.72843
3840.812008
3848.165732
3843.471866
3835.224072
3836.632232
3846.712869
3834.374706
3828.004459
3818.616726
3827.155093
3836.632232
3837.861578
3829.703191
3828.250328
3834.084133
3836.34166
3835.425238
3838.822703
3845.639985
3835.96168
3833.592395
3837.191026
3845.237654
3836.274604
3820.002534
3826.261023
3834.732334
3846.08702
3840.432029
3841.393154
3831.625442
3835.827569
3835.872273
3823.91409
3827.870348
3837.056915
3840.32027
3840.364974
3840.208511
3847.830456
3828.004459
3825.031677
3820.874252
3835.916976
3837.548654
3832.273642
3843.449514
3849.104506
3836.408715
3822.885909
3824.316421
3839.381497
3844.008308
3833.614747
3828.429142
3834.061782
3833.882968
3828.250328
3819.153168
3820.293107
3821.209529
3819.376686
3824.808159
3820.315459
3813.006438
3811.598278
3803.618706
3808.245517
3813.609935
3806.613839
3804.915107
3813.319363
3813.118197
3804.266906
3800.824738
3802.746988
3797.181403
3796.287334
3795.393264
3788.866554
3793.001627
3796.175575
3785.245572
3788.263057
3797.069645
3799.394226
3791.593467
3785.379682
3785.759662
3783.949171
3784.016226
3784.999703
3785.178517
3787.570153
3793.113386
3794.208621
3802.121139
3801.383531
3784.84324
3765.397223
3768.213542
3792.711054
3787.637208
3788.710092
3790.833508
3794.476842
3786.676083
3780.708168
3781.713996
3793.158089
3800.824738
3795.795595
3785.469089
3771.566304
3778.472993
3784.887944
3788.084243
3788.643037
3786.072586
3791.302895
3787.257229
3790.0959
3786.854897
3785.804365
3785.290275
3786.832546
3787.301932
3791.50406
3796.421444
3800.109482
3802.255249
3796.153223
3785.133813
3777.735386
3781.870458
3787.637208
3786.318455
3792.643999
3797.360217
3797.673142
3790.565287
3783.144508
3788.263057
3789.514755
3786.899601
3789.671217
3784.507964
3786.877249
3783.502136
3781.311665
3781.7587
3788.710092
3795.840299
3788.888906
3790.386473
3800.444758
3791.88404
3786.877249
3784.217392
3788.508926
3783.792708
3785.245572
3789.939438
3794.275677
3789.559458
3790.565287
3790.520583
3782.652769
3780.261133
3787.167822
3791.906392
3787.681912
3788.598333
3792.465185
3787.905429
3791.057025
3788.754796
3788.844203
3785.625551
3779.344711
3785.714958
3788.575982
3788.106595
3783.30097
3781.7587
3786.005531
3789.760624
3790.051197
3782.809232
3787.771319
3790.98997
3782.250438
3783.144508
3783.390377
3781.602237
3783.546839
3784.217392
3785.469089
3785.133813
3785.692607
3788.866554
3788.799499
3786.899601
3782.004569
3782.630418
3783.993874
3785.804365
3783.390377
3781.825755
3791.839336
3791.50406
3787.458394
3783.345673
3783.837412
3782.451604
3776.237819
3781.870458
3788.93361
3789.492403
3786.497269
3789.201831
3791.951095
3792.196964
3794.923877
3792.733406
3797.963714
3797.673142
3793.828642
3788.196002
3795.125043
3802.858746
3802.90345
3802.210546
3798.075473
3796.868479
3803.708113
3803.685761
3801.49529
3801.160014
3806.412674
3803.015209
3803.842223
3803.953982
3803.574002
3805.630363
3806.010342
3801.562345
3804.937459
3800.9812
3802.344656
3807.574964
3809.273697
3808.357276
3803.328133
3807.597316
3806.680895
3804.177499
3803.126967
3801.271773
3806.636191
3805.272735
3804.289258
3805.362142
3803.328133
3802.590525
3803.126967
3797.293162
3796.644961
3797.65079
3798.880136
3796.868479
3805.295087
3807.083226
3802.143491
3797.159052
3791.839336
3800.534165
3809.787787
3808.401979
3804.110444
3803.216374
3811.933555
3807.552613
3804.557479
3803.059912
3806.725598
3808.200813
3803.395188
3807.530261
3810.927726
3806.189156
3801.428235
3798.567211
3805.250383
3802.322305
3798.880136
3793.627476
3800.08713
3804.177499
3809.139587
3802.501118
3800.198889
3804.937459
3805.85388
3799.528336
3798.522508
3798.589563
3791.168784
3791.101729
3787.704264
3791.459357
3786.698435
3778.897676
3784.575019
3782.608066
3788.598333
3788.196002
3787.212525
3792.599296
3787.637208
3785.133813
3786.184345
3788.68774
3789.4477
3784.753833
3781.490479
3781.51283
3788.93361
3782.78688
3784.239743
3788.263057
3788.151299
3781.132851
3779.501173
3779.322359
3791.548764
3784.798537
3782.898639
3786.273752
3789.134775
3785.580848
3778.808269
3778.629455
3784.507964
3788.441871
3788.888906
3781.222258
3781.266961
3781.713996
3786.139642
3788.620685
3788.821851
3788.352464
3789.045368
3788.93361
3784.038578
3787.480746
3789.559458
3786.206697
3789.917086
3791.034674
3785.111461
3786.363159
3789.291238
3789.246534
3786.586676
3782.049272
3783.390377
3786.027883
3784.396205
3786.11729
3788.486575
3789.537107
3788.643037
3786.161993
3793.336903
3793.001627
3793.448662
3790.587639
3782.518659
3786.676083
3785.647903
3786.966656
3782.965694
3785.334979
3786.206697
3784.552668
3786.206697
3782.585714
3780.417595
3783.837412
3781.557534
3777.824793
3782.429252
3777.243647
3782.4069
3781.110499
3782.451604
3781.89281
3784.664426
3783.122156
3787.391339
3783.882115
3787.212525
3791.168784
3786.609028
3782.429252
3785.782014
3790.051197
3785.245572
3785.804365
3787.436043
3787.033711
3782.228086
3784.060929
3787.570153
3784.060929
3783.591543
3784.753833
3781.736348
3780.261133
3781.266961
3784.910296
3787.458394
3781.021092
3783.323322
3782.943342
3783.16686
3781.870458
3783.658598
3784.798537
3784.172688
3781.669293
3782.026921
3783.16686
3786.676083
3784.954999
3783.032749
3783.569191
3778.5624
3770.985159
3772.818002
3779.434118
3788.486575
3791.973447
3786.094938
3780.886982
3787.905429
3787.592505
3790.788804
3782.339845
3787.503098
3790.364121
3789.268886
3794.610953
3796.801424
3797.807252
3791.615819
3787.748967
3792.174613
3802.434063
3793.672179
3792.733406
3799.126005
3803.28343
3800.936496
3797.561383
3798.656618
3800.958848
3793.336903
3793.9404
3792.062854
3794.946229
3797.091996
3792.420482
3794.521546
3791.347598
3794.387435
3793.783938
3790.230011
3790.453528
3786.519621
3786.407862
3783.479784
3783.882115
3789.045368
3789.358293
3787.346636
3790.587639
3792.91222
3785.782014
3779.411766
3780.194078
3791.213488
3796.354389
3788.374816
3784.932647
3792.733406
3788.710092
3783.189211
3782.004569
3788.866554
3785.580848
3785.066758
3785.200868
3780.015264
3780.886982
3778.875325
3779.210601
3783.457432
3788.777147
3786.296104
3787.190174
3787.056063
3781.356368
3781.110499
3786.050235
3782.071624
3786.206697
3790.699397
3785.22322
3785.513793
3792.442833
3789.626514
3783.368025
3785.08911
3787.704264
3790.408825
3787.503098
3784.105633
3785.893772
3791.101729
3791.548764
3790.185307
3779.747043
3784.776185
3781.535182
3777.891848
3782.965694
3787.234877
3783.725653
3784.172688
3786.050235
3789.134775
3788.68774
3787.52545
3783.68095
3781.713996
3791.973447
3789.157127
3776.729557
3781.445775
3787.14547
3788.844203
3782.563362
3780.775223
3789.917086
3790.98997
3787.056063
3785.290275
3783.211563
3780.104671
3781.557534
3778.42829
3777.645979
3781.982217
3783.792708
3779.322359
3781.088147
3780.976389
3780.104671
3783.546839
3785.469089
3788.128947
3784.19504
3777.958903
3776.059005
3779.568229
3783.43508
3782.205735
3776.863668
3780.104671
3779.769394
3780.931685
3781.937514
3785.871421
3789.58181
3786.497269
3788.888906
3787.704264
3784.552668
3779.098842
3782.764528
3789.112424
3791.50406
3788.285409
3783.658598
3785.267924
3779.300008
3786.027883
3785.513793
3785.066758
3784.105633
3786.854897
3777.891848
3781.266961
3789.134775
3791.437005
3791.392301
3792.465185
3791.861688
3789.291238
3788.821851
3790.073549
3787.972485
3787.592505
3783.144508
3782.988046
3783.144508
3780.663464
3771.812173
3770.895752
3775.61197
3775.164935
3770.761641
3765.508981
3766.89479
3771.38749
3770.672234
3767.0289
3768.191191
3770.068737
3766.537162
3767.654749
3773.756775
3770.649883
3772.616836
3773.667368
3771.923932
3770.225199
3769.46524
3767.654749
3762.782069
3766.470106
3775.164935
3766.00072
3767.878266
3771.208676
3769.532295
3774.047348
3776.751909
3771.946284
3769.644054
3771.566304
3767.878266
3771.029862
3777.176592
3774.762604
3764.681967
3764.905484
3769.688758
3771.521601
3770.649883
3770.471069
3778.204772
3780.015264
3773.30974
3769.688758
3771.141621
3772.683891
3771.521601
3770.404013
3774.002644
3775.768432
3776.886019
3770.985159
3770.8734
3779.612932
3767.453583
3764.681967
3770.091089
3774.494383
3774.047348
3777.9142
3776.12606
3774.7179
3778.741214
3777.623627
3775.366101
3781.468127
3774.784955
3772.616836
3774.159107
3775.857839
3775.299045
3767.16301
3770.35931
3774.650845
3773.935589
3775.23199
3764.346691
3768.302949
3777.802441
3773.242685
3770.806345
3777.578923
3790.185307
3788.955961
3790.721749
3792.889868
3802.501118
3801.562345
3799.19306
3802.90345
3807.26204
3811.508871
3808.044351
3810.659505
3814.392247
3816.470959
3817.90147
3816.962697
3825.031677
3824.919918
3822.394171
3819.264927
3819.264927
3825.746933
3823.891738
3818.773188
3814.146377
3819.488444
3823.779979
3823.087075
3821.23188
3822.662392
3826.708058
3823.109427
3817.923822
3815.84511
3817.297973
3818.348505
3817.208566
3817.297973
3818.28145
3817.968526
3822.170654
3811.933555
3814.839281
3814.258136
3816.3592
3819.264927
3822.528282
3821.321287
3823.15413
3823.02002
3824.763456
3820.606031
3819.041409
3823.467055
3829.189101
3822.885909
3814.95104
3819.622555
3820.695438
3831.267814
3825.299898
3822.572985
3820.71779
3820.270755
3824.964622
3820.740142
3818.326154
3827.222148
3826.015154
3822.394171
3819.063761
3823.4
3824.450532
3821.343639
3823.578814
3823.958793
3821.678915
3820.695438
3825.679877
3827.803293
3819.935479
3819.82372
3815.509834
3820.673087
3822.394171
3822.103598
3817.409732
3821.075418
3825.277546
3824.517587
3822.997668
3820.650735
3819.086113
3818.482616
3822.12595
3823.444703
3823.847034
3825.143436
3824.003497
3821.09777
3820.851901
3824.115255
3825.590471
3824.42818
3819.756665
3818.057933
3816.22509
3812.917031
3821.008363
3822.014191
3824.584642
3822.438875
3824.316421
3825.344601
3826.35043
3824.025848
3821.567157
3821.656563
3821.23188
3820.2037
3824.964622
3825.903395
3825.702229
3828.473846
3823.087075
3825.143436
3824.696401
3825.881043
3822.327116
3825.232843
3826.976279
3825.679877
3823.690572
3826.417485
3825.97045
3824.137607
3822.572985
3823.064723
3826.082209
3827.646831
3826.708058
3826.842168
3827.468017
3827.289203
3823.958793
3821.321287
3829.926709
3833.502988
3828.27268
3824.137607
3824.383476
3827.870348
3822.550633
3826.104561
3825.948098
3833.257119
3832.385401
3830.597261
3836.431067
3841.549616
3838.822703
3838.330965
3846.869331
3854.692442
3855.228884
3854.223055
3851.160866
3846.914035
3847.964567
3848.478657
3848.948043
3848.702174
3852.189046
3852.949006
3850.713831
3850.110334
3856.033546
3853.239578
3843.293052
3846.377593
3851.786715
3848.635119
3849.104506
3851.272625
3848.791581
3852.077288
3851.451439
3847.49518
3847.048145
3846.377593
3844.567102
3845.930558
3851.071459
3849.573892
3848.366898
3848.076325
3850.579721
3850.44561
3848.255139
3845.930558
3840.275567
3846.198779
3851.071459
3848.098677
3846.690517
3851.049107
3849.708003
3847.808104
3849.193913
3849.395078
3847.942215
3848.90334
3847.830456
3847.025793
3849.909168
3846.623462
3850.087982
3850.892645
3848.411602
3847.852808
3844.589453
3848.925692
3849.93152
3845.930558
3849.216264
3855.832381
3856.994671
3851.764363
3852.390212
3846.534055
3850.177389
3845.885854
3843.114238
3847.316366
3850.132686
3854.737145
3855.072421
3846.623462
3848.322195
3844.768267
3841.527264
3838.733296
3835.44759
3832.430104
3826.976279
3825.32225
3829.837302
3828.071514
3823.15413
3825.366953
3821.209529
3818.013229
3814.079322
3812.38059
3811.598278
3814.95104
3810.771264
3808.625496
3813.676991
3809.474863
3803.350485
3798.276639
3802.501118
3812.5147
3804.780996
3801.718807
3798.142528
3798.969543
3800.534165
3804.535127
3800.377703
3797.337866
3801.651752
3808.379627
3805.630363
3802.121139
3802.724636
3804.848052
3807.194985
3804.803348
3804.624534
3805.138624
3800.265944
3807.977296
3810.21247
3802.210546
3798.991895
3802.121139
3801.294124
3803.842223
3802.568174
3803.238726
3806.010342
3806.74795
3802.948153
3802.456415
3803.663409
3802.210546
3803.55165
3801.785863
3802.054084
3804.401017
3800.9812
3800.355351
3801.338828
3806.725598
3804.44572
3795.303857
3798.008418
3799.751854
3797.851956
3801.160014
3804.266906
3804.892755
3802.434063
3796.555554
3802.277601
3802.210546
3802.322305
3804.356313
3805.295087
3809.608973
3808.983124
3806.479729
3803.350485
3798.991895
3804.401017
3800.221241
3800.154185
3805.652714
3804.870403
3805.451549
3804.44572
3807.485557
3806.680895
3805.406845
3804.803348
3804.468072
3807.709075
3806.055046
3800.712979
3798.589563
3803.305781
3805.585659
3799.818909
3802.38936
3811.397113
3803.395188
3796.913182
3799.930668
3813.811101
3815.912165
3816.649773
3813.274659
3815.822758
3821.902433
3820.740142
3824.025848
3826.797465
3837.101619
3835.425238
3831.916014
3830.552558
3833.972375
3833.212415
3828.40679
3828.384439
3830.999593
3833.458285
3833.65945
3833.950023
3836.09579
3833.927671
3828.317383
3823.556462
3823.53411
3824.718752
3820.874252
3824.182311
3829.479674
3822.729447
3818.907299
3822.058895
3827.266851
3830.396096
3829.524378
3826.037505
3830.932537
3835.022907
3835.469942
3831.245462
3828.853825
3835.224072
3835.179369
3830.150226
3827.8927
3829.479674
3832.340697
3834.330003
3833.391229
3835.827569
3836.85575
3832.474808
3829.904357
3833.704154
3831.558386
3833.614747
3831.334869
3830.127875
3834.575872
3827.624479
3827.311555
3832.541863
3830.105523
3828.496197
3827.646831
3827.915052
3828.384439
3822.684744
3826.976279
3835.671107
3835.559349
3829.993764
3832.899491
3830.150226
3831.267814
3828.607956
3826.976279
3829.949061
3833.346526
3835.805218
3833.301822
3829.725543
3827.333907
3825.724581
3831.156055
3834.17354
3837.101619
3845.215302
3840.879064
3836.386363
3842.667203
3846.08702
3849.976224
3852.300805
3849.104506
3849.819761
3855.027718
3855.966491
3852.278453
3851.540846
3851.742012
3850.333852
3851.116163
3853.418392
3852.010232
3853.083116
3846.712869
3849.775058
3857.687576
3856.480581
3848.232788
3853.932482
3852.725488
3852.725488
3853.440744
3852.74784
3858.447535
3864.460154
3858.156962
3855.854732
3858.693404
3852.971357
3857.352299
3860.392137
3863.230808
3862.560256
3860.190971
3858.089907
3857.48641
3857.128782
3855.094773
3860.034509
3858.335776
3856.167657
3858.045203
3856.07825
3855.765326
3857.978148
3860.392137
3853.083116
3855.228884
3856.860561
3857.374651
3855.541808
3853.798372
3854.424221
3857.799334
3858.827515
3859.006328
3861.71089
3863.364919
3863.76725
3857.151134
3857.709927
3859.654529
3857.732279
3860.123916
3860.638006
3863.901361
3866.091831
3861.017985
3858.156962
3860.459192
3861.666186
3861.129744
3862.917884
3861.509724
3863.856657
3862.716718
3860.146267
3859.095735
3860.772116
3858.827515
3857.508762
3860.190971
3860.794468
3858.38048
3849.506837
3856.793506
3861.174448
3857.218189
3856.100602
3857.776983
3860.883875
3859.498067
3857.531113
3859.810991
3865.30952
3867.209419
3862.537904
3860.95093
3867.276474
3866.918846
3864.683672
3869.846925
3871.724471
3874.361977
3868.282302
3856.21236
3855.295939
3849.551541
3844.991785
3846.042317
3836.296956
3837.973337
3834.531168
3827.825645
3830.463151
3823.221186
3822.997668
3818.594374
3815.174558
3817.141511
3814.682819
3811.933555
3810.480691
3817.879119
3817.141511
3816.381552
3816.515662
3817.25327
3819.644906
3821.120122
3817.968526
3817.432084
3819.5555
3815.420427
3817.141511
3814.593412
3821.880081
3822.595337
3813.855805
3815.241613
3819.443741
3818.102636
3816.314497
3812.469997
3815.688648
3815.174558
3813.40877
3812.090017
3815.442779
3822.058895
3816.850938
3815.487482
3816.806235
3811.263002
3814.526357
3813.855805
3818.169691
3814.839281
3814.258136
3815.196909
3818.527319
3815.442779
3816.672124
3815.532185
3819.264927
3818.817892
3815.353372
3815.599241
3821.142473
3819.264927
3816.582717
3819.68961
3814.749874
3817.923822
3820.538976
3820.561328
3818.214395
3816.247441
3820.270755
3815.509834
3811.48652
3809.608973
3816.828587
3821.61186
3818.706133
3817.543842
3819.30963
3818.594374
3820.628383
3816.068627
3818.326154
3818.996706
3814.191081
3810.123063
3817.812063
3822.170654
3818.840244
3820.851901
3820.628383
3819.68961
3816.046276
3816.403904
3815.241613
3814.682819
3818.527319
3822.215357
3820.024886
3824.629345
3820.449569
3816.090979
3812.38059
3820.382514
3822.662392
3817.476787
3813.185252
3811.754741
3817.297973
3827.37861
3831.446628
3833.860616
3835.380535
3828.764418
3834.285299
3834.665279
3833.413581
3836.028735
3836.09579
3840.230863
3851.451439
3848.255139
3846.556407
3849.708003
3848.76923
3848.366898
3848.948043
3850.043279
3854.088945
3852.725488
3850.557369
3857.061727
3858.246369
3859.654529
3864.66132
3858.626349
3861.017985
3866.136535
3869.064613
3865.242465
3861.487372
3864.571913
3865.130706
3859.051032
3858.447535
3866.918846
3876.32893
3870.964512
3865.488334
3867.276474
3868.617579
3861.174448
3862.403794
3865.130706
3864.750727
3861.822648
3861.621483
3864.638968
3868.50582
3856.569988
3864.571913
3866.091831
3867.947026
3870.785698
3861.889703
3866.941198
3873.020872
3867.835268
3860.839172
3866.695329
3869.444593
3866.807087
3861.956759
3868.215247
3872.953817
3872.618541
3868.438765
3865.242465
3870.94216
3871.947989
3864.370747
3864.817782
3868.796393
3866.918846
3863.744898
3862.672015
3864.862486
3870.003387
3873.423204
3868.50582
3867.969378
3869.779869
3869.288131
3868.63993
3869.601055
3868.528172
3872.260913
3866.225942
3867.276474
3873.087927
3872.015044
3869.265779
3870.226904
3869.846925
3873.24439
3869.511648
3868.483468
3874.607846
3876.32893
3872.752651
3868.438765
3872.529134
3875.077233
3868.081137
3866.449459
3870.673939
3873.043224
3873.981997
3874.987826
3870.94216
3873.3785
3866.158887
3866.58357
3865.913018
3866.58357
3870.450422
3869.824573
3870.204552
3869.221076
3876.217172
3879.502878
3879.994617
3872.529134
3869.332834
3864.951892
3861.97911
3859.565122
3858.089907
3851.272625
3846.757573
3845.43882
3848.76923
3842.10841
3839.984994
3837.772171
3833.413581
3830.686668
3827.333907
3822.349468
3826.931575
3823.891738
3817.432084
3818.124988
3819.935479
3820.650735
3818.616726
3816.135683
3822.438875
3823.556462
3824.875215
3821.276584
3827.490369
3825.702229
3819.220223
3817.76736
3817.923822
3818.214395
3815.375723
3813.632287
3819.019058
3819.331982
3819.197872
3814.638116
3810.279526
3819.130816
3816.135683
3812.201776
3814.705171
3818.370857
3809.988953
3812.067665
3816.582717
3820.941308
3814.101674
3813.364066
3812.559403
3811.195947
3818.527319
3816.336848
3813.609935
3819.779017
3825.746933
3823.265889
3817.275622
3817.521491
3818.102636
3822.841206
3823.467055
3824.137607
3825.635174
3824.294069
3825.188139
3828.764418
3830.552558
3827.937404
3825.992802
3823.891738
3820.315459
3823.064723
3815.509834
3818.437912
3823.109427
3825.612822
3823.176482
3825.143436
3826.328078
3825.769284
3822.796502
3819.868424
3822.12595
3825.903395
3822.930613
3817.856767
3821.947136
3822.751799
3818.974354
3819.264927
3820.538976
3817.655601
3819.399037
3816.761531
3817.432084
3818.259098
3824.42818
3819.711962
3808.469034
3815.643944
3825.791636
3828.429142
3825.478712
3822.058895
3823.712924
3827.512721
3834.061782
3833.01125
3829.703191
3827.982107
3825.523415
3830.284337
3830.820779
3832.072476
3828.384439
3828.876177
3840.677898
3839.537959
3835.402886
3826.48454
3825.344601
3835.44759
3839.135628
3838.554482
3832.899491
3831.156055
3836.498122
3835.939328
3835.916976
3836.542825
3835.872273
3832.653622
3824.763456
3830.485503
3840.007346
3838.979165
3834.911148
3835.805218
3840.633195
3843.360107
3844.120067
3830.641965
3822.148302
3826.261023
3841.683727
3849.976224
3835.536997
3839.917939
3828.362087
3826.35043
3838.308613
3834.128837
3817.879119
3822.058895
3837.906282
3842.466038
3843.896549
3849.350375
3861.241503
3838.934462
3818.236747
3815.398075
3835.648756
3840.543788
3835.559349
3830.932537
3837.302785
3834.754686
3830.32904
3823.981145
3828.764418
3831.200758
3832.743029
3830.731372
3836.073439
3839.202683
3836.922805
3842.466038
3846.735221
3851.183218
3848.813933
3836.542825
3836.319308
3848.746878
3851.630253
3846.914035
3847.048145
3851.362032
3856.368823
3853.328985
3851.742012
3849.238616
3851.406735
3853.038413
3851.85377
3852.680785
3853.083116
3855.340642
3859.006328
3852.949006
3852.569026
3849.663299
3846.60111
3849.372727
3859.878046
3864.326044
3858.603997
3856.704099
3861.397965
3854.848904
3853.954834
3855.362994
3859.453363
3860.347433
3854.200703
3845.841151
3842.957776
3851.518494
3861.397965
3858.201666
3859.587474
3856.726451
3851.85377
3854.53598
3852.479619
3856.100602
3854.401869
3857.218189
3863.901361
3860.481544
3856.435878
3860.258026
3863.946064
3858.983977
3860.280378
3859.475715
3859.766288
3865.868314
3865.913018
3863.990767
3863.521381
3860.95093
3856.927616
3850.624424
3859.878046
3873.065576
3870.56218
3863.588436
3858.939273
3859.878046
3863.901361
3858.827515
3860.05686
3866.561218
3865.510686
3861.554427
3856.100602
3856.860561
3858.738108
3857.262892
3857.776983
3858.760459
3858.872218
3863.63314
3864.080174
3863.230808
3870.740994
3871.523305
3862.962587
3857.084078
3860.570951
3855.810029
3851.093811
3845.774096
3839.627366
3841.437857
3846.578759
3839.716773
3835.089962
3832.050125
3832.385401
3824.495235
3822.215357
3826.976279
3832.675973
3825.568119
3823.623517
3828.473846
3826.596299
3831.044296
3830.440799
3830.954889
3829.278508
3828.138569
3821.790674
3824.338773
3829.703191
3832.340697
3828.250328
3826.976279
3830.552558
3820.404866
3823.265889
3828.451494
3832.832436
3834.218244
3831.066648
3828.719715
3835.469942
3835.5817
3833.458285
3832.161883
3830.731372
3829.054991
3826.730409
3826.842168
3830.641965
3831.714848
3829.479674
3828.697363
3829.479674
3832.832436
3827.199796
3832.027773
3827.870348
3833.123008
3835.402886
3838.800351
3834.128837
3834.821741
3834.330003
3831.156055
3830.552558
3832.452456
3826.819816
3829.770247
3831.491331
3824.271718
3826.149264
3832.184235
3826.819816
3823.444703
3832.966546
3827.691534
3828.853825
3832.944194
3837.146322
3832.541863
3832.49716
3831.871311
3832.921843
3828.138569
3826.529244
3828.496197
3835.514645
3827.266851
3819.108465
3830.217282
3837.191026
3838.442724
3835.5817
3836.632232
3843.360107
3853.060764
3850.155038
3849.260968
3857.262892
3858.067555
3861.33091
3862.068517
3870.629236
3874.004349
3870.606884
3873.222038
3875.546619
3873.333797
3873.311445
3864.728375
3867.120012
3871.120974
3869.735166
3866.337701
3867.209419
3871.120974
3875.032529
3873.311445
3870.025738
3872.126802
3872.7303
3869.824573
3863.364919
3863.990767
3872.238561
3871.07627
3861.666186
3863.588436
3863.297863
3861.107392
3862.917884
3869.042262
3869.15402
3867.388233
3866.449459
3863.677843
3866.963549
3870.025738
3862.35909
3865.242465
3870.338663
3868.908151
3861.129744
3861.666186
3865.756555
3865.711852
3864.035471
3864.258988
3870.673939
3874.585494
3872.48443
3868.371709
3864.191933
3867.365881
3871.165677
3867.120012
3866.941198
3871.724471
3871.32214
3866.449459
3865.622445
3874.987826
3876.820669
3869.422241
3866.71768
3868.8858
3873.467907
3869.690462
3864.437802
3871.009215
3872.529134
3868.103488
3868.751689
3869.869276
3874.183163
3870.785698
3868.617579
3868.617579
3868.908151
3864.013119
3866.382404
3865.890666
3870.472773
3870.003387
3868.416413
3863.163753
3870.606884
3872.395023
3871.83623
3872.439727
3872.573837
3866.829439
3864.415451
3866.20359
3873.981997
3875.81484
3868.550523
3866.360052
3872.909114
3873.780832
3873.24439
3868.461116
3872.685596
3874.719605
3872.685596
3863.007291
3868.192895
3868.908151
3862.560256
3868.081137
3867.656454
3864.862486
3871.791526
3872.462079
3868.103488
3872.707948
3873.736128
3871.411547
3871.232733
3868.595227
3870.718643
3872.529134
3872.126802
3876.306579
3876.083061
3873.579666
3876.351282
3874.741957
3872.842058
3872.775003
3867.120012
3864.929541
3873.736128
3868.930503
3869.310483
3869.176372
3870.293959
3878.653512
3884.129689
3879.949913
3872.283265
3868.550523
3862.582608
3858.402831
3858.671052
3861.755593
3859.274549
3854.334814
3856.346471
3855.385346
3849.93152
3846.154075
3848.679823
3854.200703
3848.433953
3845.19295
3843.963604
3847.36107
3841.661375
3842.801314
3840.968471
3844.03066
3841.907244
3836.431067
3838.330965
3835.671107
3834.352354
3828.362087
3829.30086
3830.373744
3829.81495
3829.882005
3820.427218
3826.305726
3830.977241
3822.662392
3819.086113
3818.929651
3825.07638
3825.746933
3823.444703
3824.182311
3820.382514
3817.700305
3821.544805
3821.678915
3822.908261
3819.577851
3812.38059
3814.615764
3813.565232
3818.080284
3813.632287
3815.532185
3821.902433
3825.925747
3823.444703
3816.895642
3817.096808
3820.2037
3819.354334
3821.455398
3823.288241
3826.953927
3821.723619
3818.750837
3821.969488
3825.098732
3825.366953
3822.349468
3821.567157
3823.221186
3824.651697
3820.561328
3819.711962
3823.802331
3828.518549
3823.91409
3814.548709
3821.365991
3825.009325
3822.103598
3818.370857
3819.533148
3820.874252
3821.120122
3815.84511
3813.744046
3820.114293
3819.868424
3816.090979
3814.81693
3815.509834
3814.995744
3816.046276
3819.376686
3821.678915
3814.012267
3814.995744
3818.527319
3820.337811
3818.259098
3813.945212
3814.839281
3818.393209
3820.248404
3820.874252
3819.756665
3818.66143
3824.472883
3819.421389
3816.582717
3812.827624
3817.745008
3817.275622
3817.297973
3816.202738
3818.326154
3820.449569
3815.040447
3816.180386
3819.331982
3815.085151
3814.615764
3808.558441
3810.614802
3819.264927
3819.756665
3816.292145
3816.538014
3820.226052
3821.947136
3814.235784
3818.504968
3815.956869
3820.360162
3817.275622
3817.141511
3821.030715
3817.856767
3817.812063
3823.288241
3827.736238
3821.656563
3820.896604
3820.941308
3819.242575
3820.226052
3816.761531
3815.152206
3818.057933
3818.884947
3815.509834
3812.64881
3815.755703
3822.036543
3821.678915
3821.276584
3818.862595
3813.341715
3812.939383
3809.854842
3808.469034
3818.214395
3812.693514
3800.645924
3801.763511
3797.002589
3796.779072
3792.621647
3791.951095
3791.973447
3789.134775
3797.27081
3796.354389
3798.298991
3798.768377
3792.509889
3793.336903
3794.789767
3797.471976
3793.672179
3790.364121
3789.738272
3795.460319
3796.75672
3789.380644
3791.392301
3794.074511
3797.315514
3795.86265
3796.019113
3793.582772
3790.542935
3790.632342
3785.73731
3793.605124
3799.438929
3795.437967
3799.416578
3796.510851
3793.515717
3794.633304
3791.593467
3791.88404
3792.643999
3797.963714
3797.874307
3798.142528
3798.209584
3789.537107
3785.782014
3788.575982
3796.332037
3797.1367
3790.654694
3792.934572
3789.850031
3791.88404
3791.816985
3793.359255
3794.298028
3796.019113
3796.287334
3787.346636
3793.180441
3792.733406
3790.006493
3790.587639
3790.207659
3792.174613
3792.107557
3792.062854
3797.561383
3798.231935
3792.308723
3789.201831
3784.172688
3790.833508
3793.515717
3788.397168
3793.225145
3791.548764
3792.53224
3789.291238
3788.575982
3792.956924
3787.279581
3787.592505
3790.408825
3793.873345
3799.461281
3789.06772
3786.854897
3795.393264
3792.77811
3791.705226
3791.727578
3790.654694
3795.437967
3792.889868
3787.994836
3796.62261
3796.24263
3796.62261
3789.648865
3789.58181
3795.795595
3797.091996
3795.594429
3790.811156
3797.539031
3796.801424
3793.180441
3793.828642
3799.841261
3796.913182
3792.599296
3794.230973
3794.409787
3795.393264
3794.163918
3797.404921
3796.443796
3795.393264
3798.477804
3802.031732
3797.829604
3799.818909
3801.964677
3801.942325
3797.360217
3796.644961
3795.236802
3796.466147
3802.568174
3799.595392
3797.024941
3793.9404
3797.829604
3801.003552
3802.90345
3801.070607
3798.656618
3807.77613
3815.174558
3816.917994
3818.102636
3819.533148
3827.825645
3835.000555
3834.084133
3834.017078
3844.455343
3844.522398
3844.67886
3842.778962
3847.87516
3851.965529
3848.76923
3850.579721
3855.430049
3860.347433
3856.704099
3855.586512
3859.766288
3862.292035
3862.470849
3857.285244
3860.883875
3862.560256
3862.783773
3859.721584
3858.581645
3862.448497
3869.131669
3866.762384
3868.371709
3863.499029
3856.97232
3853.708965
3855.251235
3858.782811
3861.912055
3856.145305
3857.709927
3864.057823
3864.974244
3861.420317
3856.994671
3860.95093
3862.068517
3858.89457
3857.061727
3856.033546
3860.928578
3862.716718
3862.001462
3862.180276
3863.923712
3864.437802
3859.54277
3860.503895
3862.87318
3859.363956
3859.54277
3861.397965
3865.823611
3863.029642
3857.218189
3859.766288
3866.829439
3866.292997
3860.883875
3855.69827
3860.43684
3864.370747
3863.029642
3861.956759
3858.335776
3864.013119
3861.241503
3852.121991
3854.625387
3860.727413
3858.112259
3856.21236
3857.776983
3867.47764
3868.148192
3863.588436
3859.498067
3861.040337
3863.029642
3863.096698
3863.588436
3865.845962
3859.721584
3859.855695
3862.269683
3859.967453
3867.23177
3865.600093
3857.933445
3863.476677
3861.912055
3862.560256
3862.023814
3858.782811
3859.721584
3863.25316
3860.883875
3861.442669
3862.113221
3862.672015
3853.64191
3859.565122
3859.609826
3861.733241
3862.73907
3858.671052
3862.269683
3859.185142
3853.306634
3857.799334
3860.794468
3862.761422
3855.832381
3855.854732
3861.71089
3864.549561
3864.951892
3864.191933
3866.985901
3868.50582
3865.153058
3862.22498
3866.561218
3869.243427
3866.427108
3866.471811
3864.460154
3865.264817
3868.12584
3864.080174
3864.817782
3866.315349
3866.58357
3866.538866
3865.510686
3866.561218
3870.718643
3869.288131
3869.355186
3871.500954
3875.323102
3874.317273
3870.04809
3869.332834
3877.178297
3869.15402
3864.102526
3865.465983
3867.432936
3872.842058
3870.182201
3873.199686
3870.696291
3874.876067
3871.83623
3869.243427
3872.082099
3867.075308
3865.935369
3871.746823
3868.595227
3872.283265
3873.713776
3868.12584
3867.790564
3870.94216
3872.7303
3868.215247
3869.39989
3866.315349
3861.777945
3863.566084
3865.6895
3867.544695
3873.020872
3869.623407
3868.438765
3871.83623
3877.670035
3874.138459
3866.650625
3870.383366
3873.490259
3872.529134
3867.969378
3874.876067
3878.094718
3874.473736
3870.092794
3872.842058
3870.495125
3874.987826
3870.897457
3870.56218
3870.785698
3872.193858
3871.07627
3870.293959
3865.533038
3873.065576
3874.563143
3867.99173
3868.438765
3868.952855
3863.409622
3865.287169
3866.158887
3862.113221
3862.87318
3859.989805
3860.95093
3867.142363
3863.610788
3861.867352
3859.78864
3864.124878
3867.209419
3859.453363
3860.325081
3863.029642
3863.476677
3863.074346
3859.051032
3865.153058
3862.73907
3861.397965
3862.180276
3863.364919
3868.8858
3863.409622
3861.733241
3864.974244
3867.947026
3862.560256
3862.113221
3865.823611
3871.635064
3865.421279
3862.068517
3862.806125
3867.99173
3857.329948
3856.59234
3862.582608
3865.577741
3859.743936
3855.362994
3854.491276
3862.269683
3860.772116
3858.916921
3851.965529
3848.545712
3850.110334
3851.71966
3844.67886
3847.718698
3849.775058
3844.187122
3846.042317
3845.371764
3847.271663
3844.209474
3839.962642
3839.269738
3838.554482
3836.85575
3832.295994
3838.330965
3838.085096
3829.323212
3824.137607
3829.770247
3830.865482
3828.295032
3823.489407
3823.265889
3825.858691
3822.662392
3825.098732
3823.712924
3824.182311
3820.024886
3816.538014
3814.347543
3818.415561
3822.304764
3821.61186
3811.240651
3813.855805
3818.303802
3815.263965
3814.794578
3812.961735
3817.946174
3811.374761
3804.691589
3809.944249
3815.576889
3814.526357
3808.983124
3814.079322
3821.835377
3825.031677
3812.939383
3808.491386
3813.02879
3813.498177
3812.872328
3812.067665
3809.094883
3810.07836
3814.146377
3816.917994
3815.643944
3818.482616
3816.672124
3814.682819
3813.140549
3810.637153
3813.162901
3817.499139
3816.582717
3809.05018
3812.335886
3811.173595
3808.826662
3818.259098
3817.320325
3818.214395
3820.896604
3817.968526
3817.543842
3818.952002
3815.889813
3820.360162
3825.188139
3823.779979
3811.732389
3813.095845
3817.655601
3819.354334
3816.761531
3819.5555
3822.193005
3824.629345
3818.728485
3818.706133
3822.684744
3823.422351
3826.529244
3820.158997
3817.990877
3818.482616
3821.969488
3822.014191
3815.934517
3820.918956
3817.812063
3817.275622
3814.101674
3819.957831
3820.58368
3817.432084
3815.241613
3816.202738
3813.967563
3816.135683
3814.191081
3815.755703
3815.956869
3812.313534
3814.705171
3818.549671
3818.415561
3821.164825
3817.745008
3818.303802
3819.756665
3815.666296
3810.681857
3817.588546
3817.096808
3812.559403
3812.939383
3811.62063
3815.420427
3819.779017
3817.409732
3814.481654
3822.908261
3822.796502
3815.84511
3819.331982
3817.432084
3822.081247
3820.762494
3819.488444
3816.135683
3817.342677
3814.392247
3815.576889
3813.274659
3814.660467
3812.715866
3812.291183
3812.447645
3814.414598
3814.079322
3811.419465
3811.263002
3814.168729
3819.220223
3815.46513
3817.588546
3815.196909
3815.33102
3808.178462
3809.296049
3814.481654
3809.251345
3810.368933
3811.218299
3813.654639
3816.917994
3812.537052
3810.056008
3817.208566
3812.335886
3808.80431
3809.743084
3804.110444
3809.988953
3810.391284
3809.631325
3806.524432
3810.681857
3807.574964
3806.971467
3805.630363
3809.810139
3810.815967
3811.665334
3804.356313
3803.79752
3806.971467
3811.151244
3811.933555
3808.849014
3808.133758
3810.033656
3811.397113
3806.971467
3807.239688
3805.809177
3802.612877
3801.6294
3807.329095
3810.391284
3808.893717
3809.541918
3814.749874
3810.368933
3804.848052
3802.635229
3806.278563
3805.116273
3805.362142
3805.33979
3805.85388
3808.871366
3807.485557
3806.256212
3809.743084
3809.921898
3809.363104
3809.944249
3810.771264
3814.235784
3812.402941
3808.379627
3810.45834
3810.614802
3811.598278
3811.017133
3811.441816
3820.494273
3813.229956
3810.145415
3816.470959
3816.627421
3814.191081
3806.010342
3804.535127
3810.100712
3811.374761
3808.759607
3807.172633
3802.992857
3806.725598
3808.446683
3805.742121
3804.088092
3805.697418
3808.849014
3808.871366
3811.955906
3810.056008
3810.21247
3803.909278
3801.808214
3806.122101
3808.021999
3807.530261
3807.64202
3810.100712
3807.105578
3805.049217
3807.083226
3811.62063
3809.363104
3809.676028
3811.151244
3812.849976
3814.883985
3813.162901
3804.848052
3805.630363
3809.69838
3814.325191
3807.910241
3812.157072
3817.163863
3817.409732
3811.039485
3807.373799
3807.26204
3813.520528
3809.69838
3812.738217
3810.123063
3810.927726
3807.306744
3807.865537
3814.749874
3813.565232
3806.569136
3808.80431
3812.961735
3810.056008
3811.821796
3805.697418
3806.23386
3811.553575
3808.647848
3808.089055
3806.904412
3811.665334
3813.386418
3809.966601
3811.441816
3814.995744
3813.945212
3807.977296
3807.12793
3811.10654
3806.636191
3805.585659
3809.720732
3812.022962
3811.508871
3811.598278
3811.039485
3813.051142
3812.358238
3810.301877
3807.619668
3809.720732
3809.921898
3810.435988
3809.944249
3809.385456
3808.692552
3803.03756
3805.026866
3807.753778
3808.379627
3814.504005
3807.709075
3812.559403
3814.30284
3812.5147
3808.513738
3811.531223
3808.6702
3804.669238
3809.586621
3811.352409
3810.614802
3808.357276
3807.396151
3809.743084
3814.459302
3812.469997
3808.692552
3806.457377
3809.608973
3812.157072
3806.815005
3801.87527
3809.161938
3821.678915
3825.746933
3818.862595
3814.973392
3816.694476
3822.282412
3821.790674
3825.925747
3829.747895
3834.575872
3841.236692
3833.458285
3838.889758
3844.455343
3844.254177
3844.231825
3848.501009
3852.300805
3846.98109
3844.67886
3846.288186
3849.663299
3851.071459
3846.98109
3842.130761
3848.545712
3849.640948
3845.371764
3840.141456
3843.65068
3846.422296
3843.091886
3845.841151
3849.28332
3850.579721
3847.808104
3842.980128
3848.992747
3853.12782
3846.154075
3840.096753
3846.824628
3848.836285
3847.517532
3844.902378
3843.404811
3847.092849
3852.949006
3847.070497
3844.812971
3851.674956
3852.904302
3853.731317
3853.105468
3846.936386
3846.556407
3842.667203
3839.716773
3843.51657
3847.137552
3849.260968
3847.383421
3847.964567
3847.36107
3843.538921
3845.57293
3844.67886
3847.919863
3848.277491
3849.439782
3852.300805
3854.357166
3850.758535
3843.896549
3845.081192
3842.846017
3840.789657
3836.811046
3835.514645
3832.787732
3837.436895
3826.104561
3822.50593
3821.947136
3818.862595
3815.286316
3815.912165
3822.550633
3819.354334
3821.053066
3818.706133
3818.594374
3820.270755
3821.343639
3819.644906
3821.164825
3818.840244
3819.488444
3815.778055
3817.543842
3814.191081
3814.57106
3818.326154
3817.812063
3817.834415
3821.634212
3815.800406
3815.085151
3818.14734
3816.247441
3816.180386
3814.794578
3819.443741
3817.543842
3814.772226
3815.263965
3809.832491
3813.565232
3817.655601
3816.3592
3813.319363
3815.196909
3817.432084
3811.508871
3811.218299
3811.263002
3814.124026
3816.090979
3814.347543
3813.006438
3817.007401
3816.560366
3812.291183
3813.699342
3811.799444
3808.692552
3809.027828
3811.374761
3814.749874
3816.090979
3811.955906
3810.011305
3812.559403
3811.665334
3816.001572
3815.733351
3813.229956
3814.459302
3814.548709
3815.085151
3817.25327
3817.968526
3820.427218
3816.336848
3819.779017
3814.794578
3814.660467
3810.659505
3811.888851
3813.274659
3817.365029
3810.905374
3810.950078
3811.061837
3809.720732
3805.876232
3807.843185
3810.905374
3811.799444
3810.234822
3812.224127
3811.799444
3812.469997
3815.375723
3812.5147
3806.636191
3813.073494
3813.185252
3816.336848
3815.956869
3813.162901
3809.117235
3809.430159
3813.006438
3814.101674
3812.112369
3808.692552
3816.068627
3823.131779
3816.783883
3812.559403
3810.994781
3809.273697
3816.001572
3818.750837
3815.576889
3817.677953
3819.331982
3818.035581
3818.929651
3816.850938
3812.917031
3812.224127
3814.481654
3817.074456
3817.163863
3818.080284
3812.939383
3814.682819
3820.874252
3819.063761
3819.30963
3815.286316
3819.600203
3820.494273
3816.135683
3818.013229
3822.796502
3818.974354
3818.884947
3820.71779
3819.980183
3820.404866
3817.074456
3819.354334
3812.604107
3815.040447
3814.615764
3816.716828
3818.952002
3818.706133
3816.649773
3814.235784
3814.079322
3817.365029
3816.582717
3818.862595
3816.850938
3817.208566
3817.432084
3820.494273
3818.527319
3820.829549
3819.130816
3825.478712
3820.337811
3825.478712
3823.690572
3819.68961
3816.962697
3816.068627
3819.197872
3817.700305
3815.956869
3818.929651
3822.282412
3824.897566
3820.918956
3820.673087
3820.360162
3821.120122
3818.28145
3816.850938
3817.76736
3816.3592
3815.018095
3816.917994
3823.981145
3827.423314
3822.438875
3820.516625
3819.399037
3819.600203
3818.639078
3814.727523
3822.148302
3823.176482
3821.388343
3818.035581
3819.5555
3823.064723
3824.964622
3821.276584
3820.404866
3821.23188
3827.132741
3827.825645
3825.545767
3825.679877
3827.691534
3827.222148
3828.205625
3826.037505
3828.831473
3826.439837
3830.977241
3831.558386
3829.099694
3830.641965
3827.468017
3831.714848
3824.94227
3829.211453
3826.596299
3828.518549
3833.726505
3831.133703
3824.070552
3827.423314
3829.032639
3829.837302
3828.809122
3828.876177
3830.440799
3833.234767
3829.882005
3831.089
3833.726505
3831.357221
3826.417485
3825.523415
3830.32904
3829.211453
3830.887834
3826.35043
3828.362087
3829.479674
3825.07638
3827.602128
3827.825645
3831.468979
3831.290165
3824.338773
3825.031677
3829.30086
3830.463151
3829.233805
3828.473846
3832.49716
3832.743029
3826.216319
3825.07638
3828.429142
3822.997668
3821.813026
3821.902433
3825.724581
3825.813988
3822.327116
3821.61186
3822.014191
3824.584642
3822.416523
3823.66822
3827.512721
3830.060819
3830.284337
3825.07638
3822.170654
3826.417485
3828.429142
3829.122046
3823.288241
3831.334869
3830.440799
3827.155093
3826.439837
3827.937404
3830.440799
3827.445665
3828.630308
3829.099694
3832.161883
3830.954889
3827.37861
3825.45636
3828.362087
3823.176482
3820.673087
3824.0482
3829.658488
3829.323212
3824.070552
3826.149264
3830.485503
3827.088037
3823.511758
3823.243537
3825.83634
3827.155093
3825.925747
3823.981145
3826.015154
3831.021944
3825.97045
3825.724581
3824.0482
3820.784845
3825.255194
3823.712924
3825.232843
3828.429142
3824.361125
3822.975316
3825.813988
3828.071514
3827.713886
3825.232843
3826.573947
3829.233805
3828.317383
3824.808159
3822.997668
3832.385401
3827.199796
3819.68961
3819.197872
3820.538976
3829.502026
3825.746933
3822.930613
3829.16675
3831.334869
3823.936441
3824.763456
3827.043334
3830.284337
3827.088037
3821.09777
3823.042372
3823.131779
3824.070552
3827.982107
3828.585604
3831.290165
3827.333907
3822.014191
3825.32225
3830.418447
3832.608918
3832.653622
3828.675011
3833.301822
3832.474808
3825.657526
3822.371819
3823.66822
3830.485503
3822.796502
3822.997668
3821.723619
3822.908261
3826.462189
3820.337811
3821.947136
3826.35043
3821.47775
3823.198834
3820.606031
3820.695438
3819.466093
3816.73918
3818.639078
3824.651697
3824.919918
3816.180386
3815.778055
3814.593412
3819.935479
3825.925747
3818.370857
3818.169691
3823.735276
3822.841206
3823.735276
3821.544805
3820.695438
3823.66822
3828.987936
3826.551596
3826.462189
3824.763456
3821.075418
3822.841206
3824.696401
3826.126912
3820.158997
3815.46513
3823.66822
3829.747895
3817.745008
3816.962697
3819.331982
3819.376686
3818.974354
3817.119159
3820.047238
3823.15413
3821.947136
3818.549671
3819.041409
3824.450532
3825.791636
3824.897566
3819.30963
3820.315459
3823.578814
3822.751799
3819.644906
3820.270755
3821.678915
3822.50593
3824.249366
3823.176482
3822.50593
3820.538976
3819.242575
3825.344601
3825.568119
3822.841206
3822.64004
3823.623517
3826.797465
3825.411657
3825.45636
3824.182311
3825.366953
3826.752761
3824.137607
3820.427218
3822.774151
3824.405828
3822.12595
3822.349468
3827.468017
3825.523415
3825.858691
3825.054029
3823.847034
3827.311555
3823.243537
3826.238671
3825.411657
3828.78677
3825.165787
3822.014191
3823.578814
3827.915052
3822.684744
3822.148302
3826.305726
3831.22311
3825.009325
3819.711962
3817.208566
3823.91409
3826.596299
3825.612822
3829.703191
3826.529244
3826.886872
3826.797465
3823.645869
3824.338773
3827.043334
3830.32904
3827.825645
3829.211453
3828.697363
3828.652659
3824.964622
3823.981145
3830.239633
3830.105523
3820.941308
3823.981145
3824.003497
3824.584642
3820.226052
3826.126912
3830.552558
3822.550633
3823.556462
3819.644906
3823.467055
3822.908261
3823.690572
3820.449569
3825.32225
3827.669183
3821.813026
3818.840244
3823.109427
3826.037505
3820.226052
3815.174558
3818.952002
3824.137607
3822.058895
3820.963659
3824.182311
3827.311555
3826.529244
3824.808159
3825.83634
3826.708058
3826.551596
3823.735276
3825.098732
3828.183273
3825.545767
3820.58368
3822.103598
3827.490369
3829.479674
3820.494273
3822.952965
3828.518549
3820.494273
3827.825645
3823.4
3826.193968
3830.597261
3830.418447
3825.277546
3826.328078
3825.255194
3829.703191
3821.902433
3821.388343
3826.506892
3826.99863
3828.607956
3831.290165
3829.211453
3826.976279
3823.511758
3827.020982
3825.188139
3823.936441
3822.103598
3823.243537
3827.535072
3832.228939
3826.305726
3822.930613
3827.468017
3833.14536
3825.97045
3822.438875
3826.708058
3829.770247
3822.572985
3826.529244
3820.382514
3822.282412
3832.743029
3824.964622
3823.444703
3828.518549
3828.607956
3829.658488
3827.2445
3825.746933
3831.357221
3829.390267
3827.020982
3827.468017
3832.318346
3832.206587
3834.397058
3832.944194
3829.323212
3831.044296
3828.250328
3824.741104
3827.199796
3828.295032
3821.678915
3828.40679
3834.844093
3829.144398
3828.160921
3830.798427
3834.307651
3831.357221
3824.986973
3830.507854
3834.03943
3835.738162
3832.25129
3832.564215
3835.514645
3833.838264
3830.910186
3825.188139
3828.250328
3830.798427
3838.196854
3833.368878
3834.531168
3838.755648
3832.318346
3835.916976
3833.413581
3832.474808
3829.345564
3845.148247
3852.524323
3855.362994
3851.607901
3854.67009
3852.166695
3854.088945
3859.967453
3852.74784
3857.665224
3854.759497
3856.838209
3855.810029
3857.754631
3854.625387
3852.23375
3849.663299
3853.396041
3851.742012
3854.312462
3852.546674
3855.921788
3849.752706
3847.249311
3846.936386
3843.13659
3836.98986
3839.783828
3843.337756
3839.381497
3839.605014
3840.968471
3843.673032
3842.533093
3838.867407
3842.913072
3843.404811
3840.342622
3839.716773
3840.230863
3844.745916
3839.984994
3837.414543
3834.441761
3843.51657
3841.035526
3838.442724
3838.040392
3843.382459
3844.120067
3841.86254
3837.325136
3841.326099
3842.957776
3840.141456
3830.552558
3832.899491
3836.699287
3834.17354
3837.191026
3837.36984
3838.621538
3839.225035
3839.001517
3841.795485
3841.124933
3833.167712
3832.944194
3832.877139
3837.101619
3837.705116
3839.4262
3839.649718
3839.448552
3842.376631
3842.421334
3840.029697
3841.884892
3845.371764
3842.957776
3841.951947
3845.774096
3841.840189
3838.241558
3832.787732
3831.670145
3837.705116
3840.007346
3840.163808
3844.790619
3842.130761
3842.957776
3841.951947
3838.666241
3844.455343
3840.610843
3839.828532
3836.520474
3836.408715
3840.096753
3834.307651
3834.17354
3835.96168
3833.860616
3834.799389
3838.688593
3844.656509
3846.265834
3845.639985
3836.699287
3842.354279
3847.472828
3845.394116
3841.996651
3848.098677
3858.827515
3853.865427
3851.429087
3859.453363
3856.055898
3857.262892
3858.51459
3859.766288
3861.196799
3865.018948
3865.153058
3866.315349
3870.450422
3869.15402
3870.405718
3867.879971
3866.762384
3874.429032
3869.824573
3869.578704
3869.601055
3869.064613
3864.907189
3863.409622
3863.789602
3865.957721
3867.768212
3863.521381
3860.995634
3865.063651
3867.701157
3861.442669
3860.392137
3864.326044
3864.191933
3859.006328
3860.369785
3858.536942
3861.889703
3863.141401
3863.655491
3861.777945
3862.336738
3861.040337
3856.59234
3860.101564
3857.687576
3854.759497
3854.960663
3856.413526
3861.33091
3858.156962
3856.21236
3858.693404
3861.129744
3857.665224
3859.654529
3859.118087
3857.866389
3859.118087
3856.994671
3856.927616
3861.733241
3864.035471
3858.492238
3851.652605
3852.904302
3853.016061
3864.549561
3860.995634
3862.157924
3860.190971
3856.994671
3854.446573
3855.810029
3861.353262
3863.297863
3856.659395
3857.084078
3863.811954
3863.431974
3862.672015
3864.415451
3864.258988
3859.520419
3852.189046
3854.625387
3859.229846
3863.879009
3862.672015
3857.441706
3853.731317
3857.709927
3854.826552
3855.072421
3857.531113
3860.503895
3861.845
3858.313424
3858.268721
3858.671052
3854.647738
3856.480581
3859.810991
3861.509724
3863.25316
3863.588436
3859.632177
3862.917884
3870.629236
3865.600093
3858.156962
3864.527209
3862.22498
3864.907189
3862.001462
3861.889703
3872.216209
3866.337701
3865.264817
3871.232733
3871.188029
3869.668111
3867.276474
3862.895532
3867.790564
3863.789602
3862.895532
3865.913018
3865.018948
3868.774041
3861.509724
3859.386308
3861.733241
3862.448497
3863.811954
3858.939273
3863.901361
3868.103488
3866.270645
3864.482506
3870.338663
3868.282302
3866.985901
3869.064613
3868.416413
3864.840134
3866.360052
3866.494163
3863.454326
3866.06948
3865.711852
3867.61175
3868.103488
3871.188029
3871.188029
3867.321177
3860.392137
3858.492238
3855.18418
3856.122953
3860.95093
3864.527209
3875.30075
3876.284227
3872.283265
3871.232733
3880.911038
3882.565067
3882.028625
3886.588381
3892.578649
3888.890611
3887.549506
3890.187012
3895.037341
3892.377483
3896.199631
3901.005256
3899.507689
3901.340532
3899.842966
3896.378445
3895.998466
3893.405663
3892.690407
3893.226849
3900.29
3899.798262
3895.037341
3892.556297
3891.05873
3890.187012
3894.299733
3893.025684
3895.663189
3898.948896
3892.802166
3887.929486
3887.59421
3893.87505
3894.970285
3891.550468
3893.696236
3893.964457
3895.260858
3898.09953
3892.019855
3894.657361
3892.019855
3893.271553
3890.634047
3898.345399
3900.088835
3896.981942
3889.225887
3889.315294
3895.439672
3896.154928
3890.768157
3891.885745
3891.908096
3893.092739
3887.884782
3892.042207
3897.071349
3895.685541
3890.343474
3891.19284
3898.546564
3896.154928
3892.556297
3891.371654
3894.791471
3899.574745
3897.831309
3894.478547
3893.36096
3896.467852
3900.580573
3899.731207
3900.02178
3903.128672
3904.89446
3898.412454
3895.439672
3893.740939
3890.902268
3895.640838
3899.664152
3900.893498
3904.536832
3900.066483
3892.84687
3889.449404
3891.505765
3890.701102
3888.868259
3895.28321
3899.150062
3896.646666
3897.652495
3899.12771
3896.087873
3898.881841
3898.211288
3900.334704
3902.391064
3899.686503
3894.255029
3897.428977
3897.496032
3901.117015
3899.619448
3896.490204
3905.050922
3896.534907
3898.144233
3900.602925
3897.004294
3900.647628
3901.899326
3900.737035
3901.139367
3900.15589
3897.831309
3895.551431
3901.273477
3901.139367
3898.501861
3894.187974
3894.52325
3904.045094
3906.861413
3904.782701
3899.977076
3902.301657
3903.285134
3900.446463
3894.567954
3897.876012
3900.893498
3898.345399
3897.160756
3898.881841
3899.664152
3901.005256
3901.251125
3910.370637
3905.743826
3899.172413
3895.573782
3897.943067
3900.424111
3901.228774
3895.663189
3893.182146
3903.128672
3906.190861
3896.981942
3900.29
3901.541698
3892.019855
3891.617524
3893.830346
3893.293904
3892.511593
3891.57282
3894.52325
3898.323047
3893.025684
3895.596134
3893.003332
3899.328875
3899.619448
3899.507689
3895.774948
3899.105358
3898.479509
3899.015951
3897.093701
3897.898364
3899.507689
3896.221983
3899.150062
3899.507689
3898.61362
3899.999428
3901.854623
3901.474643
3902.301657
3899.172413
3899.440634
3897.093701
3899.418282
3900.088835
3899.530041
3899.015951
3902.97221
3904.223907
3899.6418
3898.948896
3900.848794
3899.12771
3900.245297
3899.731207
3897.652495
3900.781739
3902.011085
3897.786605
3896.780777
3897.116053
3900.111187
3901.429939
3897.518384
3896.959591
3900.334704
3897.808957
3893.740939
3898.725378
3897.585439
3892.131614
3896.31139
3900.178242
3900.02178
3895.640838
3894.590306
3901.027608
3900.781739
3906.973172
3900.111187
3896.601963
3899.887669
3901.631105
3895.327913
3895.596134
3901.966381
3898.23364
3900.357056
3901.362884
3903.642762
3902.860451
3899.753559
3895.774948
3896.400797
3901.94403
3899.440634
3900.848794
3901.407588
3896.780777
3896.669018
3897.451329
3901.988733
3902.502823
3905.140329
3903.128672
3902.122844
3901.921678
3901.519346
3900.245297
3900.401759
3904.358018
3900.334704
3896.110224
3896.780777
3903.016913
3903.709817
3902.055788
3898.390102
3901.429939
3908.940126
3904.961515
3903.262782
3900.044131
3907.017876
3899.328875
3898.390102
3900.29
3902.793396
3902.502823
3900.446463
3898.881841
3899.731207
3900.558221
3899.351227
3904.626239
3898.568916
3902.882803
3901.519346
3898.255992
3899.328875
3898.412454
3889.069425
3892.422186
3895.149099
3899.977076
3895.752596
3900.357056
3899.932373
3898.278343
3894.456195
3896.870184
3896.043169
3901.04996
3904.268611
3900.781739
3896.959591
3903.86628
3903.285134
3899.172413
3897.85366
3893.964457
3903.821576
3901.295829
3899.708855
3901.206422
3900.491166
3899.060655
3892.399835
3893.763291
3900.647628
3899.395931
3896.4455
3893.606829
3897.876012
3899.015951
3899.26182
3902.234602
3898.23364
3898.859489
3895.484375
3894.456195
3898.725378
3897.071349
3893.87505
3895.037341
3901.899326
3894.120919
3893.182146
3897.048998
3899.083006
3901.228774
3897.563088
3893.87505
3898.501861
3896.043169
3898.61362
3902.994562
3901.899326
3902.882803
3901.251125
3897.317218
3900.982905
3905.54266
3894.255029
3886.722492
3889.739977
3896.043169
3894.255029
3896.110224
3891.036378
3893.651532
3894.813823
3890.052902
3881.268666
3880.665169
3886.946009
3882.118032
3881.626294
3878.11707
3874.965474
3874.138459
3870.852753
3866.248294
3866.918846
3861.956759
3862.649663
3863.76725
3859.676881
3860.123916
3862.22498
3860.548599
3861.956759
3859.363956
3854.871256
3852.501971
3851.965529
3848.053974
3849.171561
3848.121029
3851.294977
3852.591378
3852.121991
3844.67886
3845.148247
3852.323157
3846.556407
3835.201721
3843.896549
3842.734259
3839.225035
3842.778962
3840.610843
3841.259043
3843.248349
3836.408715
3833.190064
3840.096753
3845.081192
3840.007346
3837.191026
3840.70025
3838.308613
3837.906282
3842.957776
3840.789657
3842.086058
3842.778962
3837.146322
3839.94029
3843.337756
3845.483523
3845.371764
3842.019003
3845.036488
3847.383421
3840.029697
3842.6225
3846.779924
3843.13659
3843.740087
3843.047183
3846.467
3844.745916
3840.923767
3844.410639
3845.304709
3845.617634
3844.276529
3845.707041
3844.343584
3845.930558
3844.120067
3838.688593
3845.371764
3845.505875
3845.707041
3847.271663
3843.918901
3849.596244
3852.36786
3848.00927
3844.745916
3846.377593
3844.455343
3839.090924
3838.755648
3838.219206
3845.036488
3841.706078
3840.32027
3841.281395
3843.740087
3841.191988
3837.101619
3842.130761
3842.935424
3838.778
3841.773133
3841.437857
3840.566139
3840.119104
3838.621538
3835.469942
3836.498122
3837.995689
3839.157979
3840.052049
3840.655546
3840.70025
3838.778
3834.955851
3845.170599
3843.203645
3835.849921
3838.599186
3845.036488
3845.43882
3841.974299
3840.588491
3838.196854
3839.67207
3840.543788
3841.393154
3838.330965
3837.302785
3838.353317
3837.593357
3836.542825
3842.153113
3839.605014
3836.878101
3837.548654
3838.174503
3837.593357
3839.180331
3834.68763
3847.092849
3846.578759
3838.710944
3834.68763
3833.748857
3835.782866
3833.346526
3831.692497
3834.866444
3843.918901
3836.587529
3828.853825
3830.507854
3834.441761
3831.334869
3829.703191
3833.950023
3833.726505
3833.771209
3828.943232
3824.115255
3835.402886
3833.726505
3833.212415
3829.032639
3836.319308
3835.246424
3833.458285
3833.368878
3834.55352
3837.146322
3836.185197
3833.123008
3829.569081
3836.207549
3842.019003
3836.296956
3837.280433
3832.541863
3827.311555
3830.351392
3833.078305
3829.546729
3830.70902
3832.184235
3825.009325
3828.384439
3834.531168
3834.620575
3831.60309
3829.032639
3836.185197
3837.88393
3837.481599
3833.815912
3830.217282
3835.06761
3834.642927
3830.954889
3835.849921
3836.274604
3833.502988
3835.44759
3836.945157
3835.805218
3833.704154
3836.185197
3836.073439
3838.219206
3834.330003
3830.820779
3836.296956
3833.994726
3834.17354
3831.468979
3837.392192
3838.979165
3837.749819
3829.926709
3829.926709
3831.781904
3828.719715
3828.384439
3825.277546
3823.332944
3833.614747
3833.413581
3833.52534
3834.307651
3835.894625
3840.253215
3841.21434
3842.041354
3838.308613
3837.548654
3839.582663
3843.248349
3848.478657
3841.72843
3843.404811
3845.528227
3843.494218
3847.003442
3844.880026
3845.751744
3843.561273
3841.683727
3835.939328
3837.146322
3844.54475
3843.293052
3838.196854
3842.466038
3846.399945
3841.169636
3841.236692
3845.595282
3847.651642
3848.098677
3843.293052
3838.442724
3838.375668
3843.941253
3841.817837
3843.896549
3843.740087
3846.914035
3843.337756
3844.522398
3847.226959
3848.322195
3847.584587
3841.72843
3842.019003
3849.663299
3843.851846
3842.846017
3844.812971
3842.220168
3845.818799
3847.696346
3845.461171
3843.002479
3846.467
3848.210436
3841.951947
3843.091886
3844.723564
3848.031622
3841.326099
3845.237654
3849.41743
3844.097715
3844.522398
3843.51657
3844.455343
3845.148247
3840.856712
3841.326099
3844.634157
3845.684689
3844.410639
3846.377593
3849.506837
3848.76923
3840.901415
3848.813933
3845.237654
3845.103543
3848.970395
3848.992747
3849.03745
3847.092849
3845.57293
3843.896549
3850.065631
3844.410639
3840.789657
3839.560311
3845.550578
3851.227921
3845.483523
3845.371764
3845.081192
3849.171561
3847.383421
3846.690517
3847.271663
3842.801314
3845.796447
3844.03066
3843.628328
3844.298881
3845.617634
3842.130761
3839.828532
3840.543788
3838.666241
3840.096753
3841.080229
3845.975261
3847.204607
3845.796447
3839.001517
3838.889758
3845.349413
3848.143381
3844.656509
3845.841151
3841.951947
3842.957776
3843.561273
3843.002479
3848.791581
3847.741049
3848.679823
3846.310538
3844.835322
3846.578759
3844.187122
3844.701212
3847.87516
3854.53598
3852.770192
3846.399945
3847.830456
3846.690517
3844.768267
3845.908206
3843.091886
3845.997613
3843.65068
3842.801314
3846.042317
3846.243482
3845.684689
3840.677898
3845.751744
3847.562235
3843.360107
3840.566139
3840.163808
3844.477695
3840.052049
3836.654584
3832.385401
3831.178407
3833.860616
3839.381497
3835.179369
3835.402886
3837.906282
3833.301822
3834.844093
3837.36984
3837.794523
3836.229901
3831.871311
3837.146322
3838.643889
3833.167712
3830.999593
3837.101619
3837.101619
3840.521436
3833.905319
3835.849921
3838.040392
3834.017078
3832.072476
3830.776075
3835.715811
3834.307651
3835.872273
3838.509779
3832.139532
3838.196854
3835.313479
3835.06761
3835.045258
3834.531168
3832.363049
3833.123008
3831.960718
3834.732334
3838.420372
3838.375668
3834.151189
3837.168674
3840.70025
3837.571006
3834.531168
3837.436895
3834.955851
3831.334869
3833.838264
3835.604052
3836.408715
3832.519511
3835.648756
3842.10841
3836.85575
3839.269738
3837.526302
3836.922805
3836.967508
3834.888796
3833.637099
3838.219206
3840.18616
3840.499084
3835.760514
3836.98986
3844.053011
3841.773133
3839.716773
3840.499084
3840.163808
3844.276529
3839.783828
3838.822703
3842.354279
3839.046221
3833.190064
3834.352354
3840.052049
3843.404811
3839.537959
3833.704154
3837.526302
3840.297918
3839.046221
3835.335831
3830.597261
3838.39802
3841.773133
3835.44759
3837.705116
3837.101619
3838.621538
3834.128837
3835.693459
3835.045258
3838.710944
3838.643889
3840.342622
3838.532131
3839.493256
3841.907244
3838.308613
3843.695384
3843.807142
3841.259043
3839.381497
3839.493256
3843.114238
3843.225997
3834.598224
3833.927671
3839.560311
3843.293052
3835.469942
3842.801314
3847.294014
3849.395078
3842.890721
3840.70025
3840.208511
3843.360107
3840.141456
3836.364011
3841.616671
3845.416468
3843.404811
3840.119104
3840.409677
3841.639023
3837.995689
3839.448552
3841.840189
3840.253215
3841.21434
3839.962642
3836.296956
3840.364974
3843.51657
3838.800351
3839.269738
3841.504913
3842.533093
3838.085096
3833.257119
3833.681802
3842.354279
3838.800351
3833.748857
3839.515607
3838.26391
3836.431067
3840.119104
3844.589453
3846.198779
3843.471866
3838.152151
3835.827569
3837.861578
3839.4262
3835.134665
3839.225035
3841.124933
3843.225997
3841.571968
3841.86254
3840.253215
3841.035526
3835.648756
3837.682764
3846.019965
3840.208511
3838.867407
3840.18616
3840.342622
3845.349413
3844.902378
3842.868369
3841.616671
3842.287224
3838.196854
3836.185197
3836.09579
3844.03066
3842.913072
3843.002479
3839.873235
3843.337756
3841.370802
3833.52534
3833.681802
3841.773133
3838.599186
3836.34166
3837.191026
3838.91211
3842.063706
3840.32027
3841.951947
3841.147285
3841.281395
3839.157979
3836.654584
3842.354279
3845.684689
3842.287224
3836.922805
3840.812008
3842.711907
3842.354279
3838.532131
3839.336793
3837.481599
3835.648756
3838.39802
3841.773133
3844.477695
3842.264872
3837.526302
3838.532131
3844.567102
3840.879064
3834.441761
3837.526302
3837.235729
3838.420372
3840.253215
3836.453418
3829.054991
3837.168674
3837.079267
3835.134665
3838.934462
3841.59432
3842.778962
3836.900453
3834.195892
3836.319308
3836.520474
3835.760514
3840.096753
3846.332889
3838.688593
3839.605014
3835.872273
3844.500046
3847.562235
3844.902378
3843.337756
3840.566139
3842.466038
3840.141456
3838.822703
3835.984032
3841.683727
3842.510741
3832.944194
3839.895587
3842.913072
3847.450477
3839.850883
3839.850883
3842.890721
3844.209474
3840.879064
3836.833398
3841.86254
3843.494218
3843.78479
3843.181293
3843.673032
3843.561273
3843.13659
3841.549616
3839.470904
3842.398982
3844.410639
3841.683727
3845.014136
3839.716773
3840.946119
3839.783828
3840.119104
3844.120067
3842.75661
3842.957776
3841.616671
3843.471866
3844.008308
3839.962642
3837.235729
3844.008308
3844.254177
3838.91211
3835.380535
3839.336793
3845.081192
3844.254177
3839.381497
3841.504913
3839.895587
3840.789657
3838.934462
3835.805218
3840.767305
3839.135628
3836.98986
3834.486465
3843.896549
3838.710944
3839.157979
3839.761476
3835.671107
3833.681802
3835.06761
3835.179369
3838.152151
3833.458285
3834.128837
3840.70025
3842.331927
3838.308613
3839.493256
3839.627366
3836.051087
3835.738162
3838.643889
3836.408715
3839.962642
3840.208511
3834.799389
3835.157017
3837.615709
3839.314442
3841.057878
3836.140494
3840.119104
3842.220168
3844.231825
3841.169636
3838.599186
3839.381497
3837.816875
3840.789657
3836.542825
3835.648756
3842.644852
3838.040392
3830.597261
3834.307651
3839.135628
3838.778
3841.124933
3841.281395
3838.375668
3837.034564
3834.41941
3828.697363
3827.535072
3831.692497
3837.302785
3830.776075
3835.268776
3830.820779
3828.496197
3834.061782
3835.984032
3838.420372
3837.325136
3831.267814
3832.11718
3838.107447
3838.308613
3832.921843
3835.134665
3843.471866
3842.846017
3839.962642
3838.934462
3843.002479
3842.443686
3835.134665
3841.236692
3850.378555
3846.735221
3844.880026
3840.454381
3835.849921
3835.984032
3835.089962
3833.52534
3834.128837
3839.157979
3842.689555
3842.846017
3839.94029
3840.454381
3839.001517
3840.968471
3840.230863
3842.75661
3837.950985
3831.245462
3833.614747
3839.739125
3845.170599
3841.72843
3833.860616
3841.884892
3841.393154
3837.861578
3837.995689
3840.454381
3836.967508
3834.68763
3834.195892
3837.079267
3842.555445
3839.157979
3837.302785
3839.850883
3837.526302
3835.872273
3834.598224
3842.711907
3847.428125
3844.231825
3845.483523
3843.918901
3846.019965
3850.222093
3839.068572
3836.632232
3844.768267
3847.606939
3841.527264
3843.762439
3843.449514
3846.489352
3850.624424
3848.322195
3845.371764
3850.669128
3842.957776
3842.6225
3848.031622
3845.975261
3845.349413
3842.488389
3848.188084
3847.249311
3846.824628
3845.505875
3840.722601
3845.304709
3846.578759
3844.254177
3844.969433
3848.299843
3845.751744
3844.656509
3836.34166
3836.587529
3841.326099
3841.415506
3836.833398
3835.916976
3842.689555
3845.796447
3845.170599
3847.696346
3844.701212
3841.907244
3838.375668
3844.142418
3844.902378
3845.014136
3843.024831
3845.170599
3845.908206
3843.248349
3843.78479
3842.890721
3839.269738
3840.543788
3839.984994
3843.248349
3848.478657
3846.802276
3845.639985
3842.331927
3844.880026
3845.975261
3846.310538
3843.896549
3843.337756
3845.707041
3841.639023
3839.537959
3841.661375
3841.259043
3840.789657
3841.504913
3843.471866
3844.142418
3837.950985
3838.822703
3835.805218
3843.315404
3846.98109
3844.589453
3840.432029
3840.119104
3844.254177
3842.778962
3839.716773
3843.404811
3846.310538
3842.6225
3840.297918
3840.677898
3839.873235
3843.13659
3837.928633
3839.873235
3847.316366
3846.310538
3846.645814
3842.443686
3842.063706
3843.337756
3841.72843
3840.566139
3838.040392
3837.705116
3839.783828
3840.968471
3841.326099
3840.588491
3840.655546
3838.219206
3840.789657
3839.850883
3838.487427
3839.716773
3838.26391
3838.733296
3839.716773
3837.36984
3842.510741
3841.661375
3840.588491
3834.307651
3831.379572
3840.342622
3842.801314
3835.291128
3832.407753
3836.945157
3837.325136
3832.273642
3830.865482
3835.805218
3836.85575
3835.291128
3836.498122
3836.185197
3837.816875
3834.352354
3832.49716
3838.353317
3837.839226
3842.443686
3841.460209
3840.499084
3841.393154
3839.828532
3839.046221
3839.850883
3842.801314
3841.236692
3839.761476
3840.789657
3843.114238
3845.327061
3840.387325
3841.884892
3841.057878
3843.114238
3836.878101
3841.013174
3841.303747
3843.293052
3841.057878
3840.253215
3844.097715
3839.67207
3840.342622
3842.6225
3845.371764
3838.934462
3842.667203
3841.616671
3842.220168
3840.074401
3843.941253
3842.667203
3841.21434
3843.762439
3844.589453
3839.359145
3840.655546
3848.00927
3845.19295
3843.717735
3841.34845
3844.701212
3841.907244
3838.196854
3840.655546
3840.454381
3847.673994
3846.757573
3841.169636
3842.689555
3843.002479
3838.509779
3840.275567
3842.175465
3845.930558
3846.757573
3839.873235
3837.459247
3843.225997
3843.65068
3843.673032
3842.823665
3842.734259
3844.969433
3840.096753
3842.197817
3840.923767
3842.6225
3843.65068
3843.069535
3846.08702
3847.919863
3846.243482
3843.337756
3842.376631
3842.868369
3844.857674
3837.302785
3836.945157
3840.946119
3847.539884
3841.996651
3841.974299
3844.924729
3845.595282
3843.583625
3842.331927
3844.343584
3843.78479
3843.605977
3838.934462
3838.755648
3840.454381
3842.063706
3840.230863
3843.740087
3846.109372
3843.13659
3842.801314
3846.511703
3848.277491
3838.867407
3836.833398
3838.219206
3844.723564
3850.065631
3841.259043
3837.302785
3841.795485
3839.739125
3841.102581
3839.560311
3836.788694
3834.195892
3833.413581
3837.794523
3837.950985
3835.224072
3838.286261
3833.570043
3830.70902
3844.276529
3839.783828
3834.642927
3830.932537
3832.295994
3836.833398
3833.324174
3830.485503
3830.172578
3837.660413
3834.03943
3831.468979
3837.191026
3837.481599
3832.63127
3832.608918
3835.246424
3834.508817
3835.827569
3831.7372
3836.431067
3844.835322
3840.074401
3839.984994
3838.330965
3837.123971
3837.638061
3830.887834
3833.368878
3834.464113
3834.017078
3835.246424
3831.848959
3839.001517
3835.402886
3831.893662
3831.804255
3832.295994
3834.642927
3833.637099
3833.994726
3839.873235
3838.219206
3834.084133
3832.050125
3833.346526
3834.508817
3834.508817
3831.714848
3834.240596
3836.609881
3833.748857
3834.307651
3835.157017
3840.856712
3839.247386
3835.916976
3833.413581
3834.128837
3831.267814
3831.178407
3833.167712
3833.033601
3839.023869
3836.878101
3837.213378
3837.101619
3833.391229
3833.614747
3832.273642
3833.592395
3836.967508
3837.548654
3835.849921
3837.36984
3838.576834
3839.135628
3834.464113
3834.285299
3833.301822
3838.822703
3833.123008
3833.279471
3836.09579
3832.966546
3832.273642
3832.675973
3838.979165
3835.5817
3840.163808
3835.157017
3830.731372
3832.295994
3833.52534
3831.759552
3832.385401
3838.465075
3832.877139
3831.424276
3830.217282
3833.704154
3835.671107
3832.944194
3832.720677
3835.626404
3839.515607
3834.978203
3835.469942
3838.889758
3837.928633
3838.599186
3836.185197
3834.978203
3837.034564
3837.660413
3827.75859
3830.619613
3833.972375
3834.240596
3830.70902
3830.910186
3837.481599
3838.040392
3826.596299
3826.842168
3834.575872
3841.907244
3836.207549
3841.013174
3842.510741
3842.890721
3845.885854
3846.623462
3848.724526
3849.328023
3849.775058
3846.802276
3844.790619
3847.808104
3847.919863
3847.584587
3848.545712
3844.745916
3838.196854
3838.554482
3835.984032
3843.65068
3841.616671
3843.896549
3846.422296
3850.356203
3850.602073
3847.696346
3849.685651
3854.401869
3852.61373
3857.911093
3851.831418
3851.898474
3857.10643
3853.373689
3852.121991
3851.876122
3845.684689
3848.031622
3852.703137
3857.352299
3857.441706
3859.609826
3859.162791
3853.798372
3860.213323
3865.018948
3865.533038
3863.230808
3866.650625
3865.55539
3863.25316
3865.55539
3868.036433
3866.605922
3870.651587
3873.020872
3871.210381
3873.490259
