 EMG Channel 
6594.591629
6596.692693
6606.706274
6610.170795
6610.908402
6601.475966
6612.718894
6621.212557
6618.239774
6609.34378
6599.441957
6598.391425
6608.784987
6626.688734
6624.945298
6606.058074
6626.666382
6637.66344
6646.224159
6629.192129
6634.042458
6636.098818
6629.594461
6633.126036
6629.393295
6603.509975
6607.980324
6642.78199
6670.028766
6663.770278
6649.800438
6651.052135
6636.769371
6639.943318
6629.281536
6627.761618
6642.804342
6641.843217
6645.240682
6659.590502
6673.940322
6656.10363
6644.257205
6642.759638
6638.713972
6660.193999
6666.586598
6650.716859
6641.485589
6648.124057
6642.2679
6637.171702
6646.090048
6658.182342
6657.735307
6640.546815
6636.389391
6660.395165
6655.477781
6643.877225
6649.554568
6655.611891
6640.390353
6621.793702
6633.975403
6651.36506
6645.039516
6651.923853
6646.514731
6645.106571
6646.380621
6632.969574
6641.306775
6673.985025
6666.36308
6652.281481
6660.59633
6661.289234
6637.775199
6638.55751
6661.289234
6676.823697
6656.707127
6649.711031
6654.293138
6654.471952
6664.574941
6652.795571
6617.144539
6623.425379
6662.987967
6681.964598
6674.230894
6653.063792
6660.730441
6642.111438
6623.738304
6648.124057
6668.866476
6663.949092
6664.217313
6654.427249
6646.7606
6651.096839
6638.579862
6652.460295
6679.416499
6666.74306
6650.269824
6642.178493
6629.013315
6651.230949
6659.232874
6652.125019
6655.477781
6656.170685
6659.903426
6648.727554
6634.467141
6655.298967
6668.508848
6651.275653
6645.933586
0.0
6721.102502
6727.271584
6731.049029
6729.730276
6736.413447
6736.279337
6731.473712
6722.823587
6722.264793
6722.130683
6731.160787
6734.893529
6731.250194
6727.025715
6730.490235
6734.178273
6721.393075
6708.920802
6724.432912
6731.026677
6725.17052
6716.945078
6726.95866
6728.031543
6726.95866
6722.73418
6724.969354
6720.856633
6714.620497
6723.918822
6730.222014
6733.865349
6735.877006
6740.41441
6734.066514
6736.681668
6733.194796
6717.347409
6718.755569
6731.96545
6739.430933
6728.165654
6733.910052
6737.396924
6731.138436
6725.662258
6722.488311
6723.829415
6731.808988
6732.323078
6725.796369
6735.005288
6740.347354
6734.334735
6726.332811
6735.631136
6742.962509
6746.918767
6737.486331
6728.255061
6751.769096
6758.184047
6737.084
6719.582584
6725.818721
6729.90909
6716.341581
6712.072398
6701.701188
6696.515584
6695.643866
6699.354255
6703.26581
6701.164746
6695.57681
6692.11229
6699.845994
6700.471842
6681.249342
6667.011281
6679.68472
6684.311531
6678.075394
6680.467031
6687.038444
6687.619589
6684.378586
6677.583656
6679.371796
6682.165764
6680.57879
6682.299874
6674.879095
6684.892676
6689.452432
6686.591409
6682.076357
6683.685682
6686.569057
6681.539915
6680.288217
6685.786746
6681.361101
6686.278485
6674.94615
6680.511735
6683.819793
6681.830487
6673.090955
6665.625473
6667.324205
6664.485534
6658.897598
6651.342708
6657.757659
6658.227045
6647.00647
6649.107534
6655.008394
6653.086144
6660.015185
6655.768353
6649.532217
6637.551682
6639.161007
6647.900539
6642.9161
6643.921929
6652.795571
6657.51179
6659.925778
6652.974385
6646.671193
6646.24651
6659.501095
6662.920912
6664.485534
6665.3349
6664.574941
6666.966577
6664.485534
6661.512752
6661.646862
6662.51858
6664.999624
6663.390298
6651.700336
6651.186246
6662.228008
6660.618682
6655.991871
6656.595368
6663.099726
6667.145391
6669.1794
6662.920912
6655.522484
6655.008394
6659.724612
6652.370888
6658.383508
6659.791667
6659.121115
6668.330034
6670.006415
6663.233836
6655.298967
6651.476818
6661.35629
6669.447621
6660.618682
6647.65467
6656.930644
6665.379604
6660.305758
6658.718784
6668.553551
6664.552589
6657.78001
6657.355327
6660.149295
6657.757659
6657.869417
6656.349499
6661.825676
6666.005452
6671.10165
6664.82081
6660.618682
6657.355327
6659.657557
6658.15999
6657.6459
6657.109458
6660.193999
6659.791667
6653.980214
6656.483609
6662.362118
6657.26592
6654.31549
6657.064755
6663.859685
6663.479705
6661.669214
6659.43404
6665.625473
6664.887865
6654.874284
6657.377679
6664.999624
6669.358214
6658.070583
6643.16197
6649.688679
6668.710013
6673.627397
6672.174534
6671.503982
6673.627397
6672.576865
6671.146354
6677.89658
6684.736214
6685.116194
6687.88781
6690.882944
6685.607932
6683.417461
6682.255171
6679.528258
6684.199772
6687.306665
6686.949037
6685.987912
6687.552534
6686.904333
6689.184211
6696.0909
6688.133679
6682.210467
6677.985987
6671.369871
6684.244476
6690.122985
6684.378586
6682.143412
6688.491307
6685.473822
6687.127851
6680.19881
6682.746909
6686.569057
6688.111328
6682.769261
6686.926685
6683.998607
6685.83145
6691.039406
6694.258057
6691.709959
6691.151165
6690.480613
6685.83145
6690.83824
6687.932514
6687.396072
6695.219182
6693.743967
6690.257095
6683.685682
6683.372758
6683.551572
6689.921819
6686.233781
6673.940322
6682.523392
6689.743005
6682.590447
6678.79065
6684.222124
6682.702206
6689.765357
6685.898505
6680.087051
6672.710976
6676.778993
6686.434947
6686.367892
6693.498098
6696.292066
6689.921819
6686.636113
6701.142395
6694.749796
6681.852839
6690.122985
6702.61761
6716.900375
6716.45334
6700.740063
6695.755624
6693.162822
6691.419386
6691.553496
6698.437834
6699.868345
6704.361046
6708.652581
6704.741026
6692.313456
6692.179345
6707.177366
6704.651619
6706.439758
6710.016037
6717.168595
6705.277467
6695.241534
6701.388264
6707.87027
6698.974275
6695.487403
6700.762415
6698.996627
6695.375645
6696.582639
6699.2872
6707.669104
6704.606915
6697.968447
6700.270677
6699.488366
6697.052025
6701.455319
6710.932459
6710.463072
6703.802252
6697.297895
6700.941229
6707.467938
6691.106461
6688.960694
6699.823642
6713.994648
6713.391151
6703.64579
6698.482537
6700.31538
6702.483499
6699.354255
6703.198755
6706.327999
6703.355217
6707.065607
6704.852784
6697.476709
6690.346502
6691.039406
6705.411578
6705.657447
6705.098653
6704.517508
6704.562212
6708.630229
6710.328962
6699.086034
6697.253191
6703.109348
6704.875136
6705.322171
6702.10352
6700.740063
6702.952886
6705.210412
6707.780863
6704.137528
6705.992723
6705.612744
6694.570982
6702.863479
6711.401845
6714.441683
6707.244421
6698.303723
6697.834336
6701.790595
6706.529165
6705.344523
6704.986895
6706.953848
6700.427139
6703.064645
6703.422273
6697.119081
6700.024807
6702.707017
6706.551517
6710.150148
6709.904279
6703.958714
6703.422273
6709.613706
6710.016037
6712.206508
6706.618572
6700.628305
6694.213354
6698.080206
6700.583601
6700.069511
6694.235706
6690.279447
6686.770223
6684.870325
6680.377624
6686.904333
6685.183249
6687.083147
6701.142395
6702.662313
6691.262924
6686.792575
6688.223086
6691.374682
6687.574886
6686.457299
6693.095767
6687.440775
6689.050101
6690.994703
6688.714825
6685.786746
6684.333883
6680.19881
6686.434947
6687.463127
6685.205601
6689.698302
6690.525316
6689.519488
6696.940267
6683.886848
6679.751775
6688.021921
6690.927647
6685.764394
6682.076357
6691.821717
6687.530182
6683.193944
6693.207525
6704.53986
6691.955828
6679.952941
6681.919894
6683.953903
6685.384415
6673.985025
6673.001548
6682.054005
6677.494249
6676.846048
6681.003473
6671.839258
6672.554514
6675.549647
6675.817868
6677.270732
6680.869362
6676.778993
6677.047214
6678.79065
6683.216296
6683.9092
6677.583656
6675.303778
6687.016092
6686.367892
6675.773165
6670.632263
6677.941284
6681.003473
6674.499115
6674.834391
6688.4019
6679.841182
6671.034595
6676.041386
6677.226028
6680.779955
6680.534086
6679.729423
6677.62836
6680.109403
6686.72552
6679.908237
6676.175496
6674.610874
6675.147316
6669.246455
6672.465107
6683.551572
6687.686645
6681.785784
6682.746909
6689.340674
6678.947112
6672.196886
6670.744022
6675.728461
6682.456336
6676.711938
6674.096784
6673.53799
6679.774127
6677.293083
6673.046252
6675.706109
6680.355272
6668.419441
6668.419441
6676.890752
6680.735252
6680.914066
6678.947112
6682.076357
6681.517563
6678.857705
6673.225066
6674.141487
6681.294046
6681.070528
6680.757604
6677.829525
6673.873266
6672.912141
6678.991816
6673.359176
6671.146354
6684.758566
6691.195868
6689.787708
6672.845086
6669.291159
6670.609912
6666.944226
6672.934493
6678.343615
6674.029729
6673.828563
6671.928665
6680.623493
6685.160897
6672.934493
6674.342653
6678.187153
6677.673063
6671.10165
6675.370833
6685.31736
6693.811022
6682.232819
6673.336825
6679.036519
6676.443717
6676.644883
6678.455374
6688.424252
6701.276505
6688.64777
6683.305703
6684.445642
6693.922781
6687.329017
6680.0647
6679.572961
6688.446604
6689.81006
6686.591409
6690.882944
6696.47088
6692.291104
6684.870325
6675.32613
6672.442755
6679.215333
6683.573924
6675.035557
6682.366929
6684.982083
6685.540877
6681.539915
6683.216296
6683.372758
6679.014168
6673.158011
6676.399014
6685.31736
6685.31736
6682.232819
6678.030691
6671.548685
6671.861609
6674.253246
6674.476764
6677.784822
6674.454412
6674.767336
6675.013205
6679.215333
6670.922836
6674.208543
6677.494249
6676.264903
6684.490345
6685.250304
6676.399014
6681.450508
6701.410616
6695.308589
6692.089938
6696.023845
6698.080206
6701.321209
6695.777976
6698.795462
6711.178328
6719.649639
6708.585526
6704.249287
6710.373665
6714.687552
6711.044217
6712.921764
6714.888718
6716.788616
6720.633116
6713.838186
6717.459168
6729.752628
6729.618517
6728.724447
6728.009192
6731.160787
6732.658354
6721.84011
6716.006305
6729.327944
6732.099561
6732.993631
6733.731238
6737.195758
6729.596165
6719.761398
6715.000476
6732.099561
6739.363878
6740.079134
6731.205491
6724.768189
6728.12095
6731.272546
6727.405694
6731.876043
6741.308479
6742.515474
6737.128703
6725.125816
6723.38238
6718.979087
6716.989781
6721.884814
6730.42318
6732.054857
6730.691401
6732.121912
6740.03443
6733.641831
6731.496064
6732.34543
6731.652526
6725.326982
6722.085979
6728.12095
6741.152017
6743.789523
6737.911014
6730.378476
6732.971279
6736.145226
6730.222014
6728.076247
6734.446494
6742.33666
6732.680706
6725.394037
6733.775942
6730.467883
6729.976145
6734.938232
6732.948927
6737.687497
6743.834227
6741.487293
6739.65445
6731.853692
6731.764285
6734.26768
6723.896471
6720.43195
6723.427084
6717.570927
6707.087959
6713.346447
6715.69338
6711.245383
6705.076302
6710.016037
6720.990744
6720.320191
6701.075339
6699.354255
6705.657447
6714.620497
6719.739046
6716.520395
6716.006305
6710.68659
6711.625363
6711.938287
6711.513604
6709.524299
6710.150148
6714.396979
6717.950907
6710.30661
6713.502909
6712.653543
6714.28522
6712.675895
6719.426122
6710.172499
6721.638944
6722.711828
6717.012133
6718.532052
6713.77113
6713.815834
6712.832357
6710.574831
6709.054912
6715.715732
6716.20747
6720.610764
6721.46013
6726.668087
6727.942136
6713.033523
6703.712845
6703.846956
6710.351313
6707.043255
6692.827546
6691.821717
6699.018979
6710.485424
6697.119081
6684.266828
6695.286238
6680.131755
6681.070528
6689.228915
6688.670121
6694.436871
6689.966522
6683.484517
6687.910162
6694.570982
6691.821717
6679.125926
6684.512697
6695.710921
6691.642903
6694.772148
6693.207525
6691.08411
6692.045235
6685.205601
6686.636113
6693.14047
6686.72552
6687.977217
6682.769261
6687.574886
6697.230839
6688.513659
6693.453395
6695.710921
6701.410616
6692.268752
6682.612799
6694.995665
6700.382435
6691.262924
6681.070528
6681.316397
6692.179345
6694.03454
6694.369816
6690.592371
6701.075339
6697.119081
6688.424252
6681.629322
6678.522429
6682.63515
6686.47965
6688.021921
6687.127851
6693.453395
6693.229877
6691.419386
6683.775089
6685.250304
6685.205601
6689.564191
6697.074377
6700.248325
6689.184211
6682.009301
6684.780918
6691.888772
6691.709959
6695.487403
6695.710921
6691.329979
6686.926685
6688.603066
6694.258057
6695.487403
6695.621514
6687.910162
6686.814926
6683.998607
6683.506868
6685.674988
6680.958769
6678.343615
6675.057909
6666.586598
6670.699319
6682.881019
6680.757604
6678.343615
6675.057909
6674.700281
6678.187153
6673.001548
6675.661406
6676.555476
6678.388319
6679.774127
6675.147316
6670.811077
6679.975293
6676.890752
6678.589485
6676.846048
6675.437889
6681.003473
6682.925723
6671.839258
6671.280464
6673.40388
6670.07347
6670.744022
6671.056947
6672.062775
6678.231857
6674.163839
6671.459278
6672.912141
6671.146354
6668.017109
6674.655577
6673.068604
6671.124002
6669.492325
6670.140525
6679.17063
6676.331958
6673.158011
6668.732365
6682.143412
6678.231857
6672.196886
6674.923798
6680.690549
6672.196886
6672.286293
6668.955883
6667.972406
6664.194961
6663.323243
6665.3349
6668.352386
6670.520505
6671.593389
6669.089993
6665.871342
6678.857705
6673.627397
6670.855781
6670.833429
6673.91797
6679.394147
6681.204639
6669.715842
6673.91797
6668.911179
6668.575903
6670.140525
6674.275598
6677.941284
6681.763432
6674.789688
6666.720708
6664.977272
6665.625473
6659.836371
6669.134697
6679.707072
6680.355272
6675.236723
6678.455374
6678.477726
6674.029729
6669.939359
6669.380566
6670.45345
6674.834391
6673.873266
6671.191057
6679.572961
6674.856743
6676.264903
6674.923798
6680.57879
6677.047214
6674.409708
6671.660444
6672.107479
6679.528258
6681.09288
6677.24838
6678.902409
6680.981121
6676.667235
6670.58756
6678.745947
6672.3757
6669.55938
6673.158011
6679.885886
6686.457299
6685.943208
6679.572961
6688.156031
6695.822679
6689.854764
6679.282389
6680.176458
6684.825621
6681.495211
6688.357197
6691.08411
6684.825621
6687.038444
6685.004435
6675.706109
6679.572961
6690.257095
6687.329017
6683.104537
6684.467993
6689.81006
6686.278485
6687.597238
6681.159935
6677.002511
6676.756641
6679.394147
6677.829525
6685.563229
6689.027749
6678.947112
6682.612799
6681.383453
6685.853801
6682.813964
6682.366929
6687.105499
6691.821717
6685.116194
6682.478688
6683.082185
6687.217258
6683.976255
6676.667235
6682.322226
6689.184211
6696.180307
6689.854764
6692.604028
6691.978179
6682.076357
6681.517563
6681.137583
6692.425214
6690.57002
6684.199772
6692.358159
6692.134642
6685.116194
6686.323188
6686.85963
6685.563229
6684.333883
6681.137583
6676.555476
6686.054967
6694.816851
6693.721616
6685.920857
6686.99374
6689.050101
6688.156031
6684.713863
6682.813964
6687.329017
6685.652636
6687.261961
6687.23961
6692.156993
6690.346502
6681.763432
6679.908237
6681.98695
6673.716804
6680.623493
6694.056892
6697.990799
6693.565153
6688.066624
6692.760491
6697.297895
6703.109348
6707.266773
6705.769206
6708.227898
6709.479595
6717.950907
6718.5097
6720.81193
6720.655468
6719.627287
6715.402808
6712.586488
6709.211374
6714.374627
6711.20068
6712.74295
6714.821662
6717.436816
6715.492215
6716.341581
6718.867328
6713.480558
6709.144319
6714.15111
6713.100578
6717.302706
6717.727389
6706.797386
6712.139453
6716.632154
6717.749741
6720.94604
6719.40377
6720.141377
6714.329924
6706.573869
6717.056837
6723.449436
6717.503872
6720.744875
6718.867328
6715.380456
6717.10154
6714.6652
6719.359066
6727.137473
6736.793427
6728.255061
6709.569002
6706.46211
6717.526223
6718.979087
6709.300781
6716.900375
6725.461093
6718.464997
6708.987857
6702.438796
6704.651619
6706.84209
6703.556383
6702.796424
6710.373665
6709.41254
6706.171537
6704.942191
6712.117101
6716.229822
6709.79252
6705.545688
6705.94802
6708.719636
6700.784767
6700.136566
6708.719636
6712.206508
6705.456281
6699.242496
6709.92663
6715.380456
6715.313401
6706.864441
6699.957752
6701.544726
6711.267735
6711.446549
6711.424197
6715.268697
6712.899412
6706.886793
6708.51847
6706.998552
6709.747816
6711.915936
6701.611781
6708.809043
6712.407674
6709.658409
6711.71477
6713.234688
6715.067531
6702.75172
6696.381473
6701.097691
6708.630229
6705.545688
6701.20945
6702.282334
6701.075339
6696.180307
6694.146299
6701.880002
6698.214316
6699.913049
6695.375645
6696.493232
6699.644828
6702.684665
6702.327037
6697.454357
6693.699264
6695.621514
6691.866421
6693.051063
6694.280409
6699.689531
6696.582639
6698.974275
6694.16865
6690.860592
6691.911124
6697.834336
6702.61761
6700.069511
6698.169613
6696.85086
6695.688569
6695.040368
6690.972351
6690.57002
6692.358159
6699.309552
6702.796424
6696.783805
6695.889735
6696.604991
6701.365912
6702.148223
6691.307627
6699.331903
6704.115177
6700.762415
6693.699264
6692.916953
6700.650656
6690.458261
6687.485479
6703.154052
6698.728406
6692.134642
6690.771185
6687.776051
6693.431043
6689.541839
6684.803269
6682.322226
6688.26779
6700.605953
6694.503927
6686.904333
6691.5982
6698.437834
6691.575848
6690.391206
6691.039406
6691.240572
6695.509755
6694.705092
6693.431043
6696.649694
6698.683703
6692.179345
6688.603066
6693.408691
6690.882944
6693.296932
6694.325113
6695.06272
6692.380511
6685.943208
6681.875191
6690.033578
6695.57681
6692.805194
6686.837278
6683.216296
6689.787708
6690.860592
6684.736214
6686.457299
6688.804232
6688.468956
6691.285275
6700.673008
6702.148223
6693.699264
6689.117156
6696.917915
6695.174479
6692.916953
6690.167688
6694.41452
6691.687607
6697.990799
6697.029674
6688.78188
6690.57002
6704.808081
6699.466014
6690.391206
6688.893639
6695.375645
6697.722578
6694.906258
6693.028711
6697.87904
6699.466014
6690.346502
6694.638037
6694.258057
6689.653598
6685.786746
6687.999569
6690.592371
6695.710921
6691.642903
6680.601142
6689.407729
6697.789633
6692.559325
6696.046197
6702.528203
6703.310514
6699.689531
6701.857651
6701.812947
6706.015075
6708.116139
6705.679799
6706.350351
6709.479595
6708.563174
6707.847918
6709.010209
6712.765302
6708.786691
6700.136566
6697.677874
6702.036464
6706.149185
6709.479595
6704.495156
6708.630229
6719.40377
6716.274526
6701.701188
6701.857651
6706.775034
6708.049084
6700.784767
6702.215278
6710.664238
6713.480558
6710.060741
6706.685627
6716.274526
6715.335752
6702.729369
6700.538898
6711.71477
6707.512642
6703.109348
6703.757549
6705.456281
6705.836261
6704.316342
6704.53986
6707.892622
6702.595258
6703.109348
6700.293028
6695.889735
6705.076302
6702.885831
6701.075339
6702.885831
6711.133624
6710.8207
6705.590392
6714.553441
6713.480558
6707.155014
6695.95679
6700.874174
6712.810005
6709.92663
6707.713808
6711.625363
6717.302706
6710.038389
6698.974275
6702.908182
6715.268697
6714.844014
6710.30661
6716.788616
6720.834282
6707.534994
6701.812947
6698.549592
6704.271639
6710.150148
6713.033523
6713.592316
6712.050046
6712.60884
6711.021866
6712.765302
6712.050046
6711.84888
6704.67397
6696.0909
6699.980104
6718.12972
6720.633116
6707.579697
6715.335752
6723.784712
6720.521357
6728.210357
6738.402753
6744.549482
6746.225863
6745.018869
6741.330831
6746.628195
6751.724392
6737.59809
6742.604881
6755.166561
6756.284148
6748.975128
6753.110201
6761.894436
6753.803105
6748.930424
6743.387192
6747.477561
6757.312328
6755.971224
6750.718564
6752.394945
6754.51836
6753.289014
6745.063573
6747.07523
6744.415372
6751.120895
6748.304575
6740.637927
6749.2657
6755.144209
6755.568892
6749.243349
6746.18116
6755.032451
6750.115067
6747.34345
6750.606805
6752.730221
6748.684555
6749.802142
6746.650546
6755.524189
6761.670919
6751.590282
6741.487293
6748.841017
6757.580549
6753.624291
6750.249177
6741.44259
6749.533921
6750.182122
6755.859465
6760.128648
6760.262759
6748.952776
6746.561139
6745.734125
6741.599052
6740.459113
6747.34345
6749.600977
6754.160733
6757.401735
6757.021756
6755.859465
6748.818666
6750.696212
6752.774924
6752.394945
6753.132552
6746.672898
6750.427991
6752.260834
6751.031488
6756.641776
6750.875026
6745.912939
6750.718564
6750.204474
6746.382325
6740.012078
6746.449381
6759.882779
6755.099506
6748.684555
6749.802142
6756.68648
6758.36286
6752.953738
6752.774924
6750.875026
6750.696212
6748.170465
6745.376497
6749.086887
6757.982881
6753.892512
6748.192817
6747.678727
6747.008174
6748.036355
6752.149076
6763.727279
6763.950797
6754.630119
6751.880855
6762.609692
6771.125707
6771.148058
6767.348262
6763.123782
6764.978977
6770.991596
6776.512477
6774.433765
6774.523172
6784.49205
6782.770965
6780.066404
6779.105279
6778.546486
6777.920637
6778.85941
6782.05571
6786.011968
6776.914808
6772.287997
6774.903151
6780.334625
6776.490125
6776.020739
6781.80984
6786.727224
6785.117899
6779.731128
6778.032396
6775.193724
6777.428899
6778.47943
6775.149021
6778.993521
6781.273399
6775.461945
6773.696157
6784.804974
6787.509535
6782.458041
6776.735994
6775.350186
6779.954646
6782.681558
6776.691291
6779.641721
6782.636855
6782.547448
6775.39489
6774.791393
6781.541619
6779.552314
6767.616483
6773.025605
6778.658244
6781.586323
6780.78166
6783.910904
6779.976997
6778.993521
6778.300617
6778.658244
6780.446384
6782.882724
6775.126669
6774.992558
6777.428899
6788.045977
6793.432748
6776.020739
6776.42307
6783.329759
6776.400718
6779.708776
6778.188858
6782.815669
6777.540657
6773.718509
6778.85941
6783.352111
6780.424032
6769.963416
6772.06448
6781.005178
6783.46387
6782.681558
6777.540657
6778.121803
6783.374463
6779.641721
6778.7253
6782.234524
6785.319064
6775.596055
6771.304521
6776.154849
6777.920637
6781.899247
6774.12084
6774.612579
6780.334625
6785.877858
6778.367672
6778.367672
6782.502744
6783.173297
6770.477506
6774.858448
6777.294788
6784.737919
6783.039186
6772.869143
6780.200515
6789.700006
6779.082928
6775.663111
6778.770003
6784.603808
6780.826364
6774.970207
6776.177201
6788.001274
6781.496916
6780.736957
6777.652416
6784.201477
6791.309332
6779.865239
6777.361843
6780.714605
6782.860372
6779.418204
6782.346282
6784.916733
6789.811765
6787.911867
6776.445422
6770.924541
6777.272436
6781.005178
6780.401681
6777.920637
6791.219925
6798.417187
6795.578515
6785.631989
6772.690329
6773.137364
6762.676747
6752.394945
6751.43382
6752.327889
6748.639852
6753.378421
6752.126724
6747.030526
6741.219072
6741.084962
6745.555311
6759.502799
6755.233616
6747.298747
6753.020794
6746.628195
6737.329869
6731.049029
6740.54852
6753.713698
6754.38425
6750.070363
6754.138381
6751.925558
6749.533921
6742.47077
6742.828398
6747.522264
6749.600977
6743.49895
6745.600014
6752.037317
6764.666052
6759.212227
6741.666107
6740.950852
6740.369706
6740.704982
6730.020849
6724.567023
6717.973258
6711.178328
6703.891659
6709.054912
6714.732255
6717.973258
6718.286183
6718.979087
6719.604936
6712.36297
6707.892622
6706.886793
6709.747816
6710.463072
6712.295915
6713.324095
6720.990744
6725.774017
6715.268697
6713.502909
6717.258002
6718.643811
6714.173462
6706.775034
6703.534031
6716.922726
6714.173462
6710.753645
6717.168595
6718.956735
6719.359066
6717.235651
6714.173462
6716.341581
6711.938287
6711.513604
6712.161805
6725.215223
6716.498043
6708.339656
6708.049084
6709.434892
6705.165709
6695.599162
6687.865458
6696.202659
6701.701188
6706.372703
6703.690494
6707.35618
6711.513604
6709.971334
6709.569002
6708.89845
6709.859575
6702.349389
6700.047159
6706.573869
6706.953848
6703.042293
6705.56804
6706.909145
6704.15988
6704.115177
6696.962618
6691.978179
6702.505851
6703.310514
6706.797386
6700.851822
6698.39313
6703.042293
6708.965505
6704.450453
6700.762415
6699.354255
6703.668142
6699.063682
6695.107424
6698.951924
6702.058816
6701.142395
6699.264848
6699.622476
6691.955828
6685.674988
6686.34554
6697.186136
6709.636058
6708.853747
6709.189023
6715.04518
6717.414465
6710.530127
6700.918877
6705.523337
6711.245383
6700.136566
6692.49227
6697.387302
6704.428101
6706.216241
6701.611781
6702.259982
6715.581622
6721.32602
6708.876098
6697.297895
6708.406712
6693.945133
6697.230839
6705.18806
6710.865404
6718.88968
6705.903316
6699.577773
6707.49029
6707.669104
6701.254153
6700.404787
6717.660334
6713.25704
6702.394092
6695.4427
6705.255116
6709.144319
6706.618572
6699.689531
6693.051063
6699.018979
6706.84209
6708.630229
6711.111273
6712.318267
6717.347409
6711.71477
6716.498043
6730.020849
6727.919785
6718.040313
6716.58745
6724.567023
6727.740971
6729.372648
6725.796369
6724.879947
6725.483444
6715.291049
6713.167633
6718.867328
6724.321154
6724.231747
6717.950907
6714.28522
6718.733218
6720.141377
6726.802197
6723.963526
6717.414465
6726.243404
6719.761398
6724.231747
6728.456226
6727.249232
6721.504834
6717.950907
6725.215223
6733.172444
6718.085017
6721.907165
6731.004325
6733.552424
6725.68461
6724.947003
6737.955718
6734.602956
6732.300726
6722.823587
6722.22009
6722.398904
6720.81193
6728.299764
6728.143302
6730.646697
6729.126779
6719.470825
6710.530127
6719.068494
6729.484407
6732.770113
6736.18993
6747.119933
6749.220997
6742.873102
6737.59809
6746.449381
6750.383288
6751.389116
6753.892512
6753.601939
6753.691346
6750.360936
6744.996517
6738.11218
6744.325965
6750.15977
6754.697174
6755.300671
6759.055765
6756.328852
6746.18116
6738.983898
6742.113142
6746.471732
6749.243349
6748.684555
6753.266663
6757.267625
6742.314308
6737.463979
6747.566968
6753.736049
6751.94791
6752.059669
6750.316232
6751.545578
6750.606805
6740.995555
6746.337622
6757.178218
6760.486276
6746.985823
6748.930424
6754.205436
6753.87016
6748.23752
6754.965395
6771.595093
6758.22875
6744.191854
6734.871177
6732.054857
6726.645735
6721.348372
6718.397941
6722.197738
6712.206508
6702.639962
6705.880965
6711.491252
6709.144319
6702.282334
6702.215278
6696.113252
6698.214316
6706.730331
6702.327037
6703.936363
6705.612744
6707.020903
6702.394092
6708.093787
6708.741988
6704.271639
6699.264848
6701.745892
6698.303723
6705.344523
6701.58943
6709.680761
6714.441683
6710.530127
6707.713808
6698.01315
6698.080206
6701.008284
6704.249287
6705.121005
6702.483499
6706.864441
6707.244421
6698.236668
6700.203621
6705.970371
6705.121005
6709.010209
6705.813909
6698.348427
6703.556383
6702.975238
6703.601087
6711.535956
6707.669104
6694.705092
6695.599162
6702.371741
6704.115177
6701.477671
6698.929572
6704.606915
6707.847918
6704.472805
6701.969409
6707.937325
6704.405749
6697.409653
6693.095767
6697.432005
6699.197793
6696.403825
6697.655523
6708.339656
6713.100578
6709.434892
6695.465052
6690.70413
6695.889735
6701.030636
6701.298857
6697.141432
6700.024807
6706.104482
6704.942191
6701.544726
6705.121005
6703.444624
6705.344523
6703.26581
6701.120043
6712.050046
6715.894546
6706.931496
6703.26581
6705.43393
6713.480558
6719.247308
6713.704075
6712.832357
6709.010209
6709.41254
6709.569002
6708.160842
6710.351313
6712.430026
6708.786691
6707.803215
6712.877061
6711.603011
6704.875136
6709.569002
6711.513604
6708.406712
6710.239555
6708.786691
6714.598145
6715.268697
6708.294953
6711.133624
6704.428101
6708.920802
6706.126834
6704.718674
6712.698247
6721.348372
6717.325058
6711.625363
6711.938287
6715.380456
6706.909145
6699.622476
6708.652581
6717.682686
6721.482482
6717.660334
6717.235651
6719.694343
6716.07336
6714.6652
6719.470825
6717.883851
6718.576755
6724.343505
6728.210357
6724.589375
6726.176348
6717.302706
6711.670066
6714.262869
6720.141377
6718.196776
6710.932459
6713.659372
6720.588412
6719.426122
6717.906203
6719.91786
6727.98684
6721.996572
6715.760436
6723.315325
6728.63504
6731.406657
6717.548575
6705.277467
6717.637982
6728.478578
6721.549537
6714.039351
6721.974221
6727.003363
6723.561194
6723.538843
6724.567023
6728.188005
6717.749741
6710.932459
6718.532052
6721.482482
6720.923689
6725.259927
6731.138436
6721.706
6707.333828
6708.741988
6724.991706
6733.798293
6730.177311
6722.331848
6729.01502
6742.224901
6746.851712
6745.130628
6749.869198
6744.460075
6741.084962
6735.29586
6738.469808
6738.693325
6743.275433
6747.969299
6743.118971
6737.709849
6738.827436
6743.320136
6746.114105
6743.051916
6747.701078
6750.964433
6743.789523
6740.436761
6743.811875
6755.904169
6746.471732
6735.340564
6733.217148
6737.061648
6742.426067
6743.968337
6752.462
6752.551407
6754.138381
6752.819628
6744.303613
6747.611671
6749.109238
6738.49216
6749.623328
6753.579587
6752.126724
6747.34345
6746.69525
6744.013041
6738.000421
6736.838131
6741.643756
6751.724392
6753.49018
6752.08202
6739.609747
6737.285165
6742.560177
6749.086887
6756.753535
6754.563064
6746.583491
6731.607822
6729.193834
6733.597128
6743.029564
6732.546596
6728.053895
6732.792465
6739.766209
6741.107314
6739.743857
6741.107314
6744.124799
6737.374572
6737.933366
6747.634023
6747.34345
6745.398849
6745.778828
6733.507721
6737.173407
6742.448418
6747.701078
6751.702041
6748.483389
6748.036355
6734.602956
6737.195758
6747.142285
6745.041221
6736.346392
6734.625308
6745.957642
6759.301634
6760.195704
6747.298747
6733.708886
6731.384305
6726.466921
6735.832302
6734.915881
6719.068494
6724.388209
6721.817758
6724.231747
6742.023735
6742.895453
6734.759418
6731.719581
6738.670974
6737.285165
6725.729314
6720.275488
6729.14913
6733.798293
6735.385267
6731.518415
6740.749686
6734.759418
6717.258002
6717.280354
6729.417351
6733.597128
6728.389171
6727.405694
6733.261851
6732.501892
6734.222976
6725.5505
6729.216186
6726.399866
6734.155921
6737.307517
6734.290032
6734.513549
6735.228805
6734.245328
6726.913956
6726.288107
6735.385267
6733.597128
6743.051916
6737.754552
6725.930479
6723.360029
6720.923689
6716.45334
6720.409598
6716.788616
6705.478633
6710.641886
6717.168595
6717.906203
6717.794444
6708.51847
6712.027694
6719.716694
6717.213299
6711.535956
6714.329924
6719.292011
6715.358104
6717.682686
6713.726427
6709.546651
6703.914011
6706.015075
6720.499005
6719.448473
6723.002401
6712.36297
6708.138491
6716.386284
6717.235651
6715.782787
6711.871232
6713.502909
6715.983953
6715.603973
6711.781825
6713.569965
6718.040313
6709.501947
6714.15111
6713.167633
6716.654505
6723.158863
6717.503872
6712.60884
6717.794444
6725.014058
6714.128758
6713.547613
6715.961601
6721.147206
6721.527186
6719.493177
6709.479595
6714.464034
6705.791558
6704.562212
6710.597183
6701.768244
6691.754662
6691.464089
6700.762415
6704.271639
6702.684665
6710.083092
6706.953848
6699.756587
6702.304685
6702.461148
6697.767281
6706.149185
6705.992723
6700.427139
6702.639962
6703.198755
6697.946095
6698.124909
6703.310514
6705.724502
6701.880002
6702.036464
6697.700226
6700.605953
6706.015075
6702.327037
6704.048121
6705.232764
6701.500023
6698.348427
6692.022883
6697.119081
6703.936363
6698.549592
6700.538898
6703.444624
6702.125871
6698.460185
6696.895563
6697.163784
6700.002456
6698.169613
6696.225011
6691.195868
6693.766319
6694.593334
6692.872249
6711.535956
6715.492215
6713.324095
6711.021866
6709.569002
6712.005342
6710.463072
6704.562212
6701.500023
6706.752683
6710.641886
6706.46211
6704.048121
6707.087959
6710.8207
6720.230784
6710.8207
6705.769206
6713.614668
6710.127796
6704.048121
6706.238592
6706.775034
6707.758511
6703.466976
6701.969409
6709.814872
6717.973258
6704.718674
6700.337732
6705.277467
6712.474729
6701.075339
6697.007322
6697.163784
6709.166671
6715.581622
6715.894546
6710.418369
6719.40377
6715.55927
6718.062665
6728.925613
6734.871177
6726.891604
6721.169558
6723.874119
6729.797331
6733.440665
6724.991706
6717.168595
6726.109293
6729.417351
6730.624346
6723.76236
6724.835244
6730.55729
6725.326982
6730.333773
6731.943099
6728.590337
6729.350296
6726.779846
6722.890642
6724.388209
6725.572851
6723.38238
6730.132607
6733.999459
6730.669049
6728.925613
6719.627287
6720.923689
6728.478578
6731.786636
6731.429008
6726.221052
6724.723485
6717.302706
6721.236613
6728.903261
6730.80316
6736.659317
6733.038334
6729.596165
6718.733218
6717.012133
6723.270622
6722.376552
6722.510662
6718.844976
6729.439703
6730.311421
6728.746799
6726.444569
6719.381418
6714.978124
6720.208433
6727.964488
6730.378476
6727.964488
6721.482482
6721.638944
6723.337677
6719.582584
6722.085979
6725.617555
6714.620497
6720.141377
6730.356125
6730.758456
6728.702096
6725.30463
6735.139398
6745.018869
6744.840055
6742.515474
6747.544616
6748.729259
6752.394945
6753.110201
6747.365802
6762.989672
6771.438631
6759.189875
6748.930424
6746.650546
6754.406602
6750.830323
6747.119933
6757.602901
6763.906093
6757.245273
6756.977052
6751.43382
6754.853637
6758.720488
6745.510607
6738.849788
6756.217093
6760.240407
6757.312328
6761.782677
6764.174314
6751.769096
6745.220035
6752.730221
6764.911922
6762.274416
6758.586378
6752.573759
6754.786581
6755.635948
6760.329814
6758.027584
6754.786581
6751.009137
6754.116029
6739.565043
6744.39302
6761.313291
6761.380346
6764.956625
6763.347299
6762.609692
6765.247198
6772.220942
6780.871067
6788.269495
6781.273399
6780.826364
6788.604771
6787.643646
6773.249122
6761.737974
6765.336605
6784.514401
6783.173297
6766.521247
6760.709794
6773.293826
6780.26757
6773.494991
6776.28896
6785.00614
6791.15287
6789.275323
6773.517343
6771.505686
6769.494029
6774.232599
6780.26757
6780.155811
6777.585361
6780.960474
6779.842887
6779.842887
6788.761233
6787.0625
6775.529
6769.851657
6780.491087
6788.33655
6788.716529
6775.417242
6774.187896
6785.721396
6786.347245
6781.29575
6782.502744
6771.103355
6771.103355
6779.485259
6779.619369
6786.660169
6790.504669
6791.935181
6797.657227
6795.734977
6781.273399
6778.188858
6758.899302
6763.10143
6775.752518
6764.330776
6758.631081
6776.177201
6790.504669
6789.208268
6779.641721
6774.053785
6788.224791
6765.426012
6748.014003
6763.86139
6788.716529
6790.2588
6794.796204
6780.379329
6768.018814
6781.832192
6760.307462
6762.207361
6790.325855
6788.023625
6779.597018
6775.953683
6777.048919
6790.728186
6806.463815
6811.180033
6803.33457
6807.223774
6810.37537
6805.480338
6809.950687
6816.298582
6798.84187
6796.763157
6810.487129
6810.956515
6803.893364
6801.054692
6795.310294
6799.512422
6800.987637
6807.022608
6811.112977
6810.800053
6799.780643
6797.143137
6802.30639
6810.710646
6813.392855
6807.268477
6803.71455
6801.032341
6792.806899
6805.12271
6817.55028
6815.963306
6811.515309
6806.553222
6801.948762
6803.803957
6801.211155
6802.261687
6801.747596
6799.937105
6805.301524
6796.807861
6792.941009
6813.817538
6826.938012
6815.695085
6795.310294
6789.163564
6782.905076
6778.099451
6776.42307
6771.639797
6772.71268
6762.095602
6751.322061
6740.302651
6741.286128
6744.415372
6738.805084
6729.797331
6723.091808
6727.338639
6720.476654
6706.059778
6714.844014
6721.147206
6718.107369
6720.253136
6720.901337
6721.035447
6711.692418
6712.385322
6706.059778
6715.782787
6729.484407
6717.906203
6717.436816
6727.405694
6719.806101
6709.457244
6711.692418
6716.229822
6723.851767
6722.175386
6708.362008
6710.239555
6722.935346
6722.085979
6716.363933
6720.767226
6720.163729
6715.782787
6714.6652
6717.012133
6723.091808
6717.682686
6716.319229
6717.816796
6717.749741
6714.128758
6705.702151
6711.021866
6709.814872
6703.556383
6705.903316
6701.075339
6691.933476
6697.253191
6694.772148
6692.11229
6702.707017
6709.077264
6711.804177
6713.949944
6704.070473
6691.754662
6693.609857
6699.376607
6705.098653
6707.602049
6704.137528
6705.05395
6699.376607
6706.216241
6706.327999
6693.386339
6692.693435
6698.057854
6703.466976
6702.818776
6697.409653
6698.706055
6699.175441
6701.231802
6705.009246
6708.965505
6703.355217
6700.382435
6706.193889
6699.443662
6698.236668
6699.980104
6701.142395
6703.377569
6708.853747
6710.328962
6700.717712
6698.191964
6700.024807
6688.893639
6686.837278
6697.856688
6704.986895
6710.708941
6707.557345
6704.919839
6706.037427
6705.724502
6697.49906
6692.939304
6701.611781
6709.881927
6705.903316
6700.918877
6701.544726
6700.807119
6706.260944
6704.763377
6702.081168
6698.750758
6684.467993
6679.595313
6701.634133
6721.996572
6713.324095
6713.011171
6718.576755
6721.661296
6733.842997
6731.920747
6727.405694
6723.002401
6724.567023
6715.335752
6714.911069
6728.344468
6731.987802
6727.830378
6716.743912
6721.862462
6722.689476
6721.013095
6725.885776
6724.947003
6720.878985
6731.160787
6730.467883
6721.102502
6721.571889
6727.003363
6724.388209
6720.789578
6728.746799
6726.690439
6724.65643
6726.444569
6728.903261
6729.01502
6730.534939
6735.832302
6730.646697
6723.918822
6708.138491
6718.263831
6735.206453
6723.874119
6715.738084
6732.144264
6735.720543
6730.467883
6727.919785
6722.22009
6720.186081
6728.031543
6727.003363
6720.878985
6723.583546
6734.737067
6739.855616
6733.507721
6723.047104
6720.163729
6724.544671
6716.632154
6722.667125
6737.061648
6725.796369
6727.740971
6730.020849
6723.941174
6736.279337
6731.294898
6714.866366
6715.93925
6729.037372
6723.315325
6706.819738
6705.322171
6721.683648
6729.283241
6712.698247
6705.143357
6716.498043
6730.199662
6727.115122
6723.829415
6715.55927
6719.91786
6727.137473
6726.176348
6724.27645
6720.364895
6713.793482
6699.600124
6699.845994
6713.793482
6708.00438
6698.39313
6692.358159
6701.857651
6709.658409
6715.112235
6718.621459
6710.865404
6705.121005
6705.478633
6701.432967
6707.557345
6709.345485
6702.572906
6705.94802
6707.892622
6712.36297
6709.390188
6713.815834
6702.371741
6697.096729
6702.23763
6704.115177
6709.546651
6710.977162
6703.64579
6705.031598
6698.706055
6699.466014
6704.226935
6710.999514
6709.233726
6699.354255
6691.754662
6695.643866
6707.043255
6714.374627
6714.128758
6709.144319
6700.673008
6699.622476
6696.604991
6701.634133
6703.668142
6706.171537
6715.380456
6706.864441
6694.727444
6691.754662
6698.974275
6707.11031
6705.210412
6695.934438
6705.657447
6710.731293
6705.05395
6702.662313
6700.024807
6705.635095
6708.250249
6702.10352
6710.865404
6706.171537
6698.057854
6696.940267
6699.957752
6706.797386
6712.474729
6704.606915
6693.095767
6701.187098
6711.781825
6706.506813
6708.585526
6710.150148
6703.154052
6700.114214
6702.461148
6705.277467
6700.762415
6686.278485
6688.960694
6704.003418
6707.959677
6713.860537
6719.135549
6720.499005
6722.823587
6723.829415
6708.294953
6707.669104
6706.059778
6709.904279
6714.15111
6718.822625
6712.698247
6717.705037
6706.015075
6696.649694
6697.856688
6718.017962
6709.144319
6709.054912
6719.582584
6719.850805
6712.944116
6711.088921
6722.756532
6718.353238
6700.427139
6707.020903
6710.753645
6711.021866
6705.031598
6707.244421
6722.667125
6720.476654
6720.923689
6712.318267
6712.877061
6722.376552
6715.358104
6696.627342
6701.701188
6707.959677
6709.680761
6715.17929
6725.662258
6737.888663
6699.555421
6698.884868
6709.971334
6702.371741
6701.812947
6780.982826
6738.313346
6681.584618
6702.997589
6724.544671
6723.091808
6722.488311
6729.90909
6721.974221
6725.952831
6744.638889
6746.471732
6743.610709
6738.290994
6726.824549
6729.640869
6738.24629
6720.074322
6734.759418
6755.859465
6754.339546
6732.591299
6720.476654
6730.356125
6736.860482
6739.363878
6742.828398
6733.105389
6726.377514
6734.26768
6733.686535
6740.146189
6738.514511
6743.118971
6734.714715
6735.474674
6738.760381
6742.001384
6733.8877
6722.398904
6732.032506
6709.971334
6704.070473
6736.05582
6736.525206
6735.832302
6748.170465
6740.704982
6732.390133
6736.547558
6741.174369
6743.588357
6741.979032
6735.027639
6730.669049
6724.365857
6742.224901
6761.492105
6756.418259
6756.530017
6755.188913
6762.117954
6756.909997
6756.731183
6758.631081
6760.195704
6771.148058
6762.833209
6752.149076
6763.548465
6767.169448
6767.594131
6755.859465
6742.426067
6746.583491
6736.972241
6739.319174
6756.060631
6759.25693
6756.641776
6749.019831
6743.074267
6754.38425
6755.859465
6746.114105
6743.789523
6761.670919
6772.444459
6755.747706
6752.707869
6747.566968
6742.783695
6735.653488
6734.848825
6750.53975
6775.350186
6768.488201
6758.675785
6764.196666
6757.066459
6752.685517
6766.767116
6788.045977
6803.468681
6801.904059
6777.473602
6777.540657
6782.949779
6783.888553
6781.29575
6774.858448
6783.575628
6794.729149
6777.428899
6776.221904
6786.615465
6798.260724
6801.837003
6789.141213
6781.429861
6787.710701
6784.737919
6786.570762
6783.508573
6781.116936
6776.981864
6778.367672
6792.605733
6796.606695
6788.493012
6782.525096
6788.805936
6792.426919
6777.920637
6772.131535
6782.458041
6786.347245
6782.458041
6782.972131
6793.164527
6797.612524
6784.469698
6776.847753
6776.244256
6776.378367
6789.208268
6786.302541
6789.431785
6792.605733
6790.549373
6785.699044
6774.590227
6775.529
6793.343341
6808.609582
6794.818556
6768.041166
6763.235541
6771.773907
6764.263721
6750.048012
6746.851712
6754.987747
6751.836151
6745.957642
6738.849788
6731.31725
6713.838186
6705.836261
6697.74493
6703.779901
6718.308534
6720.208433
6722.421255
6713.704075
6712.474729
6709.300781
6703.422273
6707.35618
6711.312438
6707.557345
6707.11031
6711.804177
6710.396017
6712.36297
6713.726427
6716.609802
6713.815834
6702.461148
6703.64579
6710.105444
6723.38238
6726.399866
6714.933421
6710.753645
6701.947057
6698.840165
6701.924706
6706.84209
6716.051008
6724.701133
6725.326982
6716.58745
6707.914973
6716.520395
6717.772093
6710.194851
6711.491252
6699.711883
6695.889735
6705.523337
6690.279447
6685.496174
6694.749796
6699.264848
6709.457244
6699.443662
6697.74493
6703.668142
6704.316342
6696.604991
6704.293991
6701.72354
6690.011226
6700.538898
6707.758511
6710.597183
6703.042293
6696.761453
6689.005397
6687.507831
6698.124909
6711.424197
6694.906258
6690.659427
6693.833374
6699.622476
6699.063682
6698.348427
6690.480613
6693.296932
6699.622476
6703.712845
6701.611781
6698.281371
6691.08411
6691.978179
6703.891659
6709.27843
6699.577773
6690.055929
6683.439813
6681.070528
6695.845031
6703.221107
6695.375645
6707.400883
6697.610819
6698.348427
6700.69536
6698.951924
6694.03454
6696.113252
6678.075394
6671.794554
6696.873211
6710.060741
6701.410616
6692.961656
6705.232764
6719.202604
6716.855671
6715.93925
6704.293991
6709.546651
6714.240517
6708.89845
6705.769206
6708.272601
6709.367837
6700.807119
6702.684665
6713.167633
6715.156938
6711.424197
6711.066569
6709.077264
6706.126834
6703.26581
6700.628305
6711.84888
6719.448473
6705.590392
6692.49227
6698.080206
6715.313401
6705.970371
6693.900429
6706.283296
6716.430988
6711.759473
6710.932459
6710.753645
6712.988819
6708.362008
6706.171537
6709.591354
6706.238592
6702.863479
6701.120043
6712.295915
6721.884814
6714.955773
6704.606915
6700.717712
6702.148223
6704.897488
6703.109348
6701.231802
6706.886793
6709.434892
6716.20747
6709.41254
6707.065607
6707.557345
6710.753645
6713.569965
6705.992723
6706.529165
6711.804177
6718.12972
6714.039351
6707.177366
6704.361046
6692.134642
6692.738139
6710.127796
6723.38238
6720.230784
6715.536918
6707.557345
6705.255116
6714.553441
6710.150148
6712.698247
6705.679799
6684.713863
6690.19004
6715.827491
6723.561194
6712.899412
6706.909145
6701.321209
6703.556383
6705.791558
6685.876153
6694.682741
6719.292011
6727.740971
6715.268697
6708.049084
6704.562212
6707.847918
6702.684665
6704.450453
6709.367837
6708.585526
6697.990799
6697.677874
6698.504889
6708.920802
6709.658409
6719.873157
6730.356125
6729.506758
6731.518415
6728.12095
6733.686535
6730.065552
6719.761398
6720.588412
6734.64766
6739.587395
6728.947965
6712.921764
6719.739046
6730.713753
6732.054857
6736.346392
6738.000421
6740.727334
6738.313346
6727.182177
6720.029619
6721.750703
6726.288107
6728.411523
6730.691401
6733.574776
6740.839093
6736.592261
6725.282279
6723.047104
6732.591299
6735.452322
6726.511625
6729.596165
6726.623383
6727.22688
6722.287145
6721.549537
6734.222976
6736.32404
6718.688514
6711.871232
6727.740971
6733.574776
6728.925613
6725.215223
6720.253136
6717.749741
6717.503872
6720.096674
6731.697229
6733.485369
6731.250194
6730.825511
6732.211319
6731.45136
6727.808026
6722.153034
6736.614613
6737.419276
6727.360991
6721.907165
6718.5097
6722.600069
6728.009192
6725.796369
6723.38238
6723.829415
6731.093732
6724.388209
6722.197738
6734.871177
6731.898395
6724.27645
6715.134587
6712.899412
6735.519378
6742.291956
6741.040259
6734.111218
6742.359011
6751.791448
6744.370668
6742.604881
6743.253081
6746.136456
6755.010099
6764.50959
6781.094585
6779.75348
6765.448363
6756.507666
6763.079079
6771.483334
6761.447401
6763.593169
6771.371576
6772.176239
6772.332701
6775.305483
6771.416279
6764.174314
6763.10143
6759.279282
6753.959567
6764.666052
6763.637872
6751.813799
6760.173352
6773.427936
6775.618407
6761.17918
6756.418259
6765.291901
6768.331739
6766.81182
6761.156829
6764.062555
6777.518305
6762.810858
6748.75161
6760.083945
6772.019776
6771.617445
6774.50082
6775.417242
6760.307462
6750.15977
6762.185009
6772.06448
6768.73407
6766.677709
6759.078116
6764.040204
6760.195704
6770.209285
6779.75348
6770.969244
6766.051861
6766.901227
6762.117954
6760.285111
6766.633006
6769.181105
6767.437669
6764.330776
6762.833209
6772.556218
6773.494991
6763.459058
6758.631081
6760.396869
6765.40366
6770.835134
6774.947855
6779.261742
6774.523172
6774.076137
6770.14223
6768.778773
6772.779736
6772.086832
6772.623273
6780.64755
6775.774869
6763.459058
6759.234579
6760.01689
6770.14223
6773.204419
6767.594131
6775.238428
6778.099451
6774.8808
6776.445422
6768.756422
6771.528038
6765.671881
6765.627177
6786.704872
6798.484242
6786.190782
6771.952721
6759.927483
6758.631081
6752.439648
6749.600977
6737.955718
6733.172444
6731.250194
6731.719581
6736.011116
6737.955718
6718.308534
6699.466014
6710.977162
6724.27645
6721.638944
6710.485424
6710.798348
6714.374627
6711.871232
6707.937325
6705.94802
6711.871232
6726.019886
6725.237575
6718.286183
6714.866366
6720.499005
6707.400883
6702.774072
6711.088921
6723.449436
6731.384305
6728.456226
6722.398904
6711.826529
6713.279392
6717.012133
6709.904279
6702.818776
6710.172499
6721.571889
6725.774017
6718.263831
6723.047104
6718.688514
6710.977162
6708.049084
6711.044217
6704.495156
6700.293028
6705.791558
6697.543764
6691.799365
6696.649694
6700.784767
6705.411578
6702.014113
6690.301799
6688.357197
6703.779901
6713.927593
6712.206508
6709.077264
6707.758511
6710.641886
6702.483499
6698.862517
6698.683703
6701.097691
6708.809043
6702.10352
6698.281371
6705.165709
6721.817758
6714.061703
6706.573869
6708.38436
6704.070473
6701.812947
6700.628305
6710.194851
6711.223031
6707.244421
6715.447511
6719.806101
6711.088921
6698.236668
6698.951924
6693.922781
6693.945133
6697.342598
6697.186136
6702.371741
6711.84888
6728.277412
6723.114159
6712.36297
6706.618572
6695.710921
6698.169613
6705.05395
6713.972296
6720.94604
6719.314363
6708.943153
6706.015075
6699.622476
6692.268752
6685.138546
6687.776051
6713.279392
6734.446494
6730.601994
6718.062665
6715.268697
6724.432912
6718.308534
6716.118063
6736.167578
6747.07523
6744.795352
6750.383288
6752.059669
6749.533921
6744.594186
6735.474674
6737.061648
6748.639852
6745.577663
6739.632099
6745.577663
6751.769096
6750.852674
6747.879892
6749.735087
6741.196721
6741.531997
6739.028602
6738.425104
6739.743857
6753.601939
6760.598035
6746.628195
6735.720543
6731.808988
6739.319174
6743.342488
6752.462
6753.892512
6751.992613
6749.533921
6747.34345
6743.007212
6735.564081
6726.95866
6739.430933
6752.394945
6743.566006
6743.566006
6749.600977
6743.588357
6741.397886
6746.002346
6746.69525
6744.661241
6743.677764
6740.772038
6741.152017
6750.852674
6750.450343
6749.153942
6737.531035
6733.530072
6729.797331
6731.406657
6747.119933
6751.187951
6753.780753
6752.462
6760.307462
6757.669956
6757.580549
6759.346337
6752.730221
6755.501837
6761.670919
6766.677709
6762.542637
6765.068384
6769.203457
6757.804067
6758.74284
6768.35409
6769.851657
6759.525151
6755.077154
6752.97609
6764.621349
6771.103355
6760.709794
6758.60873
6774.053785
6771.930369
6760.195704
6763.190837
6761.112125
6764.464887
6764.576645
6761.872084
6765.694233
6766.789468
6767.929407
6763.727279
6768.488201
6768.152925
6763.459058
6752.953738
6756.127686
6755.457134
6768.287035
6779.194686
6773.874971
6772.287997
6768.801125
6765.78364
6761.492105
6757.066459
6756.217093
6762.810858
6774.433765
6779.038224
6777.31714
6772.533866
6763.392003
6763.213189
6772.06448
6770.231637
6766.633006
6766.677709
6776.199553
6777.093622
6775.90898
6780.468736
6784.022663
6775.573704
6764.710756
6766.700061
6778.814707
6771.6845
6764.554294
6770.209285
6766.476544
6764.084907
6762.497933
6762.699099
6765.135439
6768.711718
6776.847753
6781.116936
6773.09266
6765.381308
6764.50959
6772.891494
6773.204419
6776.400718
6782.480393
6781.653378
6778.47943
6772.220942
6760.642738
6750.986785
6772.176239
6789.498841
6783.955608
6777.96534
6797.858393
6802.395797
6800.00416
6792.918657
6788.135384
6782.167468
6783.173297
6787.353073
6793.097471
6798.037207
6795.623218
6805.50269
6819.941916
6808.430768
6810.487129
6804.295695
6797.523117
6795.533812
6791.935181
6785.453175
6789.387082
6800.652361
6809.727169
6806.754387
6803.379274
6803.133405
6800.741768
6794.505631
6797.411358
6795.869088
6786.682521
6794.729149
6804.206288
6807.536698
6800.428844
6796.047902
6792.583381
6797.992503
6808.631934
6808.810748
6803.871012
6800.89823
6794.818556
6792.18105
6796.852564
6800.562954
6796.472585
6795.354998
6799.020684
6804.250992
6802.887535
6790.214096
6798.819518
6804.474509
6805.882669
6797.612524
6799.646532
6797.321951
6795.287942
6795.019721
6790.974056
6794.259762
6804.183937
6807.626105
6785.833154
6791.890477
6805.793262
6804.74273
6802.976942
6796.91962
6803.111053
6812.051751
6805.346227
6792.963361
6798.372483
6807.402588
6814.778663
6812.699951
6795.824384
6811.157681
6808.430768
6788.247143
6792.628085
6791.66696
6774.053785
6770.499858
6773.60675
6760.553331
6761.760326
6776.579532
6777.428899
6764.956625
6752.998442
6751.746744
6762.564988
6759.592206
6748.416334
6761.067422
6774.389061
6758.809895
6754.719526
6761.201532
6765.828343
6771.0363
6752.372593
6745.66707
6762.207361
6773.450288
6763.682576
6745.4212
6752.97609
6772.153887
6767.728241
6757.871122
6769.62814
6773.60675
6771.148058
6762.833209
6758.586378
6750.785619
6752.439648
6764.688404
6767.638834
6765.604826
6771.796259
6772.735032
6772.936198
6773.293826
6757.401735
6744.102448
6742.962509
6751.657337
6757.491142
6751.098544
6750.271529
6737.039296
6729.707924
6733.865349
6727.338639
6718.397941
6721.504834
6728.076247
6725.014058
6718.979087
6719.560232
6723.315325
6722.600069
6728.567985
6718.241479
6712.430026
6721.929517
6726.913956
6741.979032
6738.469808
6717.749741
6709.747816
6704.629267
6708.205546
6717.10154
6711.804177
6711.603011
6728.188005
6741.621404
6725.326982
6726.623383
6723.449436
6708.630229
6716.58745
6715.849843
6718.062665
6715.69338
6728.925613
6736.435799
6737.419276
6728.344468
6716.051008
6710.485424
6717.570927
6722.622421
6719.940212
6726.332811
6730.534939
6716.855671
6703.332866
6709.524299
6711.044217
6702.707017
6701.745892
6714.844014
6733.2395
6731.585471
6713.882889
6702.930534
6701.276505
6716.006305
6723.069456
6708.272601
6719.895508
6724.432912
6714.15111
6704.428101
6701.835299
6707.736159
6709.27843
6714.218165
6726.042238
6719.560232
6706.395055
6711.826529
6721.035447
6727.718619
6718.085017
6715.738084
6714.329924
6712.430026
6720.856633
6717.392113
6708.809043
6721.773055
6724.522319
6706.506813
6697.834336
6711.759473
6727.025715
6727.897433
6730.624346
6729.417351
6714.061703
6704.67397
6706.506813
6722.510662
6716.006305
6713.793482
6725.662258
6732.658354
6726.891604
6721.057799
6721.571889
6730.311421
6746.471732
6741.084962
6726.645735
6708.116139
6708.809043
6715.514566
6724.567023
6737.285165
6738.067477
6729.707924
6726.824549
6731.719581
6737.173407
6729.685572
6727.428046
6730.333773
6725.505796
6718.733218
6735.049991
6729.596165
6718.576755
6727.025715
6731.786636
6730.758456
6742.917805
6739.475636
6729.752628
6723.829415
6719.716694
6724.969354
6727.405694
6725.349334
6722.890642
6730.713753
6723.672953
6718.643811
6721.348372
6727.115122
6736.525206
6743.409543
6742.85075
6741.889625
6738.738029
6748.371631
6740.41441
6723.158863
6729.618517
6736.122875
6735.653488
6738.022773
6741.666107
6732.032506
6729.260889
6729.976145
6745.443552
6759.189875
6740.973203
6719.381418
6731.071381
6747.34345
6724.947003
6719.694343
6741.554349
6745.331793
6740.257947
6738.693325
6722.823587
6729.864386
6736.458151
6727.517453
6731.361953
6740.302651
6753.825456
6737.128703
6729.14913
6735.519378
6726.243404
6716.07336
6729.01502
6748.729259
6763.056727
6776.825401
6772.846791
6773.09266
6756.842942
6744.795352
6749.980956
6769.672843
6779.3735
6786.011968
6784.067367
6796.785509
6792.784547
6788.649474
6778.21121
6777.987692
6788.33655
6788.917695
6782.815669
6778.85941
6783.016835
6788.98475
6791.532849
6786.682521
6790.035282
6787.978922
6774.858448
6787.800108
6795.019721
6818.779626
6810.107149
6781.832192
6777.585361
6797.43371
6786.771928
6785.028492
6790.236448
6786.593114
6781.787489
6792.82925
6797.389006
6778.85941
6787.643646
6795.846736
6775.976035
6784.760271
6804.921544
6812.409379
6824.546376
6804.22864
6782.05571
6757.133515
6755.390078
6774.344358
6795.466756
6807.313181
6769.158753
6760.709794
6760.933311
6751.500875
6746.002346
6743.074267
6777.227733
6779.529962
6766.118916
6754.451305
6760.195704
6761.514456
6763.10143
6776.914808
6753.892512
6751.098544
6744.214206
6742.917805
6764.554294
6749.198645
6749.310404
6756.530017
6753.266663
6756.731183
6737.173407
6735.094695
6758.385212
6770.924541
6771.282169
6760.173352
6766.29773
6756.060631
6741.152017
6728.456226
6759.12282
6786.637817
6789.409434
6767.638834
6740.481465
6732.993631
6755.27832
6771.326872
6758.206398
6755.367727
6766.476544
6773.159715
6769.784602
6750.204474
6740.906148
6750.226826
6747.566968
6741.911977
6756.060631
6767.504724
6758.318157
6765.828343
6765.582474
6761.156829
6747.008174
6737.396924
6745.957642
6768.398794
6772.980901
6762.788506
6778.390024
6773.450288
6732.613651
6734.245328
6757.357032
6778.747651
6782.659207
6766.744765
6736.011116
6732.300726
6758.340509
6776.244256
6775.573704
6750.807971
6751.143247
6749.913901
6740.079134
6751.05384
6742.448418
6747.790485
6771.125707
6773.271474
6770.231637
6767.236503
6742.381363
6742.448418
6767.772945
6753.892512
6770.611616
6773.338529
6762.855561
6768.577608
6754.607767
6718.912032
6742.493122
6770.030471
6772.735032
6793.432748
6774.165544
6770.544561
6768.599959
6748.908073
6742.314308
6773.517343
6772.779736
6755.591244
6756.239445
6759.927483
6767.080041
6770.164582
6765.381308
6747.745782
6753.512532
6769.024643
6776.758346
6767.147096
6752.394945
6769.24816
6770.186933
6758.161695
6751.634985
6740.190892
6734.759418
6757.379384
6785.117899
6793.499803
6777.697119
6750.897378
6733.775942
6739.274471
6765.02368
6784.849678
6783.396814
6762.609692
6758.407564
6768.398794
6735.787599
6734.625308
6768.488201
6778.948817
6779.485259
6772.086832
6777.361843
6780.044053
6761.134477
6753.221959
6759.391041
6759.458096
6740.973203
6758.787544
6758.519323
6784.402643
6773.60675
6758.429916
6744.728296
6758.675785
6781.094585
6774.411413
6750.316232
6745.644718
6769.359919
6781.899247
6761.715622
6755.568892
6779.529962
6796.070253
6769.650491
6761.715622
6753.289014
6732.948927
6743.431895
6773.383233
6781.921599
6773.964378
6755.077154
6769.695195
6786.369596
6778.85941
6766.990634
6756.239445
6757.088811
6774.925503
6762.564988
6755.591244
6763.906093
6760.754497
6761.425049
6763.906093
6772.287997
6788.604771
6766.923579
6745.823532
6769.091698
6774.746689
6756.619424
6760.843904
6768.912884
6769.829305
6763.593169
6761.849733
6746.628195
6751.903206
6758.809895
6775.39489
6757.804067
6749.444514
6775.216076
6784.581457
6773.785564
6771.326872
6754.294843
6765.157791
6760.709794
6735.631136
6761.246236
6782.122765
6762.162657
6748.841017
6739.408581
6767.750593
6780.78166
6769.069346
6776.244256
6802.351094
6770.164582
6733.977107
6735.966413
6768.197628
6774.63493
6761.827381
6767.974111
6761.492105
6769.76225
6779.664073
6791.577553
6770.030471
6740.995555
6742.001384
6736.346392
6771.438631
6785.296713
6776.333663
6779.127631
6763.973148
6752.819628
6758.832247
6756.127686
6756.664128
6762.497933
6784.357939
6773.182067
6775.90898
6775.663111
6760.821552
6747.790485
6759.078116
6780.044053
6772.667977
6755.345375
6751.478523
6772.489163
6780.580494
6784.49205
6773.450288
6769.918712
6754.943044
6737.396924
6761.313291
6774.612579
6784.715567
6785.90021
6774.187896
6766.744765
6779.440556
6778.881762
6743.968337
6735.67584
6734.424142
6779.261742
6800.227678
6783.843849
6778.658244
6770.65632
6762.386174
6763.548465
6780.893419
6770.164582
6738.805084
6729.663221
6751.478523
6782.390986
6791.734015
6770.768079
6756.68648
6772.600922
6784.514401
6786.682521
6775.283131
6761.626215
6763.950797
6756.865294
6747.07523
6764.643701
6777.250085
6761.603863
6756.060631
6753.736049
6749.198645
6774.478468
6783.575628
6788.917695
6780.446384
6764.844866
6744.39302
6763.570817
6790.884649
6781.027529
6790.996407
6783.575628
6772.600922
6765.068384
6767.348262
6763.48141
6770.723375
6774.232599
6785.699044
6796.226716
6784.804974
6779.194686
6762.542637
6748.371631
6740.190892
6757.111163
6775.752518
6773.137364
6794.349169
6803.535736
6787.107204
6771.349224
6762.632044
6754.339546
6755.613596
6778.188858
6791.130518
6799.713588
6788.515364
6774.12084
6775.350186
6779.217038
6774.433765
6764.956625
6765.738936
6777.361843
6768.197628
6772.287997
6788.068329
6807.17907
6794.7515
6771.863314
6767.124744
6767.080041
6782.905076
6786.4143
6772.667977
6785.810803
6789.275323
6807.69316
6772.667977
6742.001384
6756.932349
6791.644608
6795.757329
6778.546486
6782.323931
6775.327835
6783.59798
6792.650436
6789.297675
6774.053785
6768.465849
6757.446439
6782.681558
6788.493012
6782.435689
6803.245163
6788.135384
6769.359919
6751.500875
6772.176239
6798.640704
6791.488146
6770.611616
6778.635893
6793.768024
6787.017797
6762.185009
6749.355107
6772.980901
6820.277193
6812.096454
6771.393928
6753.289014
6777.205381
6800.920582
6781.832192
6778.501782
6783.508573
6769.918712
6770.097526
6781.452213
6765.291901
6777.473602
6788.85064
6789.476489
6782.212172
6768.488201
6764.956625
6782.502744
6803.736902
6819.941916
6782.234524
6751.299709
6752.819628
6753.177256
6775.149021
6795.623218
6811.381198
6823.227623
6781.228695
6744.817703
6743.789523
6760.553331
6782.770965
6757.804067
6774.50082
6804.899192
6803.066349
6786.235486
6777.406547
6770.701023
6766.364785
6772.399756
6771.952721
6772.980901
6758.698137
6766.543599
6783.329759
6782.614503
6777.808878
6778.837058
6795.354998
6780.044053
6765.336605
6779.708776
6783.821497
6786.704872
6776.132497
6776.959512
6776.847753
6776.780698
6773.070308
6781.005178
6782.882724
6780.826364
6770.097526
6756.753535
6778.658244
6795.422053
6785.944913
6791.108166
6766.543599
6753.758401
6777.585361
6791.555201
6805.592097
6812.118806
6794.416224
6757.20057
6746.002346
6761.335642
6773.830268
6789.610599
6786.682521
6769.181105
6780.938122
6779.3735
6773.137364
6778.85941
6796.070253
6787.286018
6762.341471
6753.065497
6767.348262
6794.572687
6786.481355
6769.896361
6776.467773
6762.185009
6748.304575
6753.736049
6745.890587
6753.266663
6753.981919
6756.798238
6770.65632
6776.244256
6760.262759
6739.185064
6750.763267
6764.464887
6769.024643
6763.682576
6739.989727
6759.12282
6778.7253
6771.662148
6752.126724
6743.118971
6753.803105
6770.477506
6775.506648
6764.062555
6756.865294
6748.975128
6742.560177
6742.582529
6748.930424
6745.957642
6759.927483
6765.180143
6766.543599
6772.042128
6777.697119
6764.844866
6737.463979
6746.449381
6778.166506
6767.527076
6744.840055
6750.137419
6767.102393
6758.854599
6762.252064
6749.578625
6751.56793
6763.61552
6745.063573
6747.388154
6759.994538
6765.470715
6764.867218
6758.407564
6757.669956
6780.379329
6764.844866
6733.731238
6755.971224
6766.968282
6766.878875
6762.900265
6733.105389
6731.339601
6759.413392
6768.309387
6762.855561
6786.324893
6775.081965
6759.12282
6736.726372
6729.596165
6735.742895
6755.054802
6749.377459
6761.55916
6800.272381
6796.629047
6762.989672
6742.33666
6734.960584
6760.955663
6741.107314
6730.80316
6772.623273
6786.593114
6753.065497
6746.359974
6774.63493
6772.600922
6759.63691
6740.302651
6738.581567
6741.599052
6745.957642
6735.698192
6752.216131
6768.577608
6754.272491
6778.233561
6797.701931
6767.281207
6735.787599
6739.967375
6757.915826
6775.39489
6803.267515
6781.429861
6721.32602
6708.429063
6761.335642
6814.421036
6818.667867
6808.609582
6767.594131
6735.29586
6747.678727
6734.714715
6748.192817
6792.941009
6802.82048
6769.091698
6748.23752
6737.084
6757.044108
6769.583436
6767.1918
6777.987692
6789.632951
6785.363768
6768.73407
6756.239445
6764.554294
6752.394945
6751.880855
6781.385157
6773.718509
6794.952666
6797.43371
6766.141268
6762.788506
6772.846791
6774.63493
6792.717492
6771.460983
6739.319174
6767.348262
6795.399701
6777.652416
6773.740861
6796.02555
6805.033303
6771.639797
6769.270512
6776.691291
6793.410396
6805.860317
6793.835079
6797.992503
6765.694233
6759.994538
6789.476489
6806.53087
6789.163564
6764.755459
6750.02566
6755.591244
6792.426919
6800.093567
6790.437614
6784.559105
6798.640704
6783.46387
6766.901227
6771.103355
6777.96534
6801.837003
6796.763157
6787.978922
6781.340454
6762.162657
6766.074212
6779.082928
6789.655303
6800.317085
6798.417187
6790.683483
6780.222867
6759.994538
6756.909997
6787.107204
6803.803957
6789.945875
6776.80305
6801.389969
6814.018704
6807.134367
6793.678617
6784.559105
6780.289922
6825.529853
6823.853472
6803.960419
6797.076082
6787.800108
6769.404622
6803.111053
6821.461835
6796.070253
6776.445422
6778.278265
6803.803957
6790.370559
6789.543544
6834.291736
6801.345265
6753.333718
6785.453175
6780.289922
6776.825401
6799.423015
6824.680486
6812.521137
6810.263611
6817.080893
6801.300562
6805.457986
6801.255858
6780.759308
6789.767061
6828.480283
6819.718399
6808.877803
6790.482317
6788.872992
6801.457024
6782.145117
6789.945875
6801.27821
6802.239335
6794.1033
6806.01678
6804.183937
6809.883631
6811.962344
6805.25682
6799.557126
6780.200515
6786.704872
6813.169338
6831.9001
6826.870957
6787.241314
6778.188858
6818.131425
6814.957477
6797.254896
6777.764175
6804.586268
6819.561937
6810.151852
6803.625143
6809.950687
6809.660114
6792.471623
6795.734977
6804.787434
6795.980846
6766.118916
6782.838021
6793.097471
6788.805936
6799.825346
6808.006085
6811.336495
6804.765082
6803.647495
6794.125652
6785.699044
6801.948762
6819.494882
6809.503652
6786.526058
6794.952666
6802.015817
6798.931277
6793.700968
6791.443442
6796.472585
6790.079986
6791.443442
6790.057634
6806.575573
6816.544451
6807.380236
6799.49007
6786.570762
6793.008064
6816.589155
6810.911812
6778.524134
6784.737919
6788.940047
6794.013893
6815.985658
6819.204309
6805.457986
6795.600867
6802.216983
6818.176129
6814.063408
6818.734922
6828.145007
6828.413228
6813.83989
6805.592097
6805.525041
6832.145969
6817.930259
6811.40355
6808.721341
6808.430768
6802.105224
6796.494937
6814.063408
6836.862187
6830.894271
6797.076082
6789.588247
6795.533812
6822.735885
6838.69503
6833.352963
6822.691181
6816.298582
6805.167413
6788.247143
6787.487184
6804.072178
6815.985658
6804.139233
6797.657227
6820.590117
6823.31703
6810.353018
6811.40355
6804.653323
6800.630009
6800.831175
6805.234469
6825.194576
6824.412265
6806.620277
6805.837966
6812.565841
6808.944858
6801.188803
6799.557126
6814.979829
6808.386065
6799.154794
6809.727169
6791.577553
6783.553276
6778.747651
6768.287035
6754.451305
6768.778773
6787.44248
6767.124744
6760.978015
6758.541674
6769.605788
6770.924541
6772.310349
6768.331739
6757.669956
6772.287997
6787.911867
6781.429861
6769.583436
6773.316178
6769.561084
6744.124799
6754.652471
6766.364785
6783.776794
6789.051806
6785.453175
6778.188858
6768.555256
6748.393982
6755.658299
6762.341471
6747.544616
6767.236503
6792.426919
6781.318102
6776.311311
6766.521247
6760.553331
6769.76225
6774.36671
6771.997425
6768.532904
6766.834172
6755.434782
6748.349279
6764.800163
6781.206343
6767.32591
6770.388099
6780.334625
6779.865239
6763.9955
6752.551407
6755.27832
6769.046994
6786.682521
6786.660169
6771.371576
6742.671936
6752.819628
6767.907055
6771.013948
6768.085869
6760.933311
6745.756477
6760.151
6756.418259
6742.426067
6735.631136
6760.419221
6776.579532
6771.125707
6745.868235
6736.748724
6741.353183
6764.174314
6749.064535
6736.346392
6747.142285
6762.721451
6767.638834
6761.827381
6753.892512
6751.970262
6744.683593
6749.2657
6759.413392
6757.692308
6758.474619
6762.140305
6747.991651
6737.441628
6742.291956
6762.788506
6762.877913
6748.259872
6761.313291
6775.730166
6771.460983
6754.674823
6751.880855
6746.091753
6735.564081
6734.424142
6757.759363
6775.149021
6773.450288
6758.765192
6755.837113
6746.739953
6745.912939
6761.514456
6758.295805
6747.969299
6758.027584
6757.692308
6741.487293
6745.4212
6756.641776
6753.736049
6754.943044
6755.255968
6749.198645
6750.852674
6743.431895
6737.128703
6743.655413
6754.563064
6765.26955
6763.056727
6749.310404
6742.783695
6742.627232
6765.515419
6772.533866
6764.822515
6755.658299
6741.263776
6746.851712
6752.931387
6756.708831
6740.973203
6743.454247
6754.853637
6767.258855
6771.55039
6763.436706
6754.160733
6746.807009
6743.342488
6752.372593
6761.17918
6751.232654
6744.773
6751.746744
6752.640814
6754.451305
6752.819628
6745.309442
6742.157846
6740.325003
6751.880855
6760.419221
6759.681613
6759.77102
6755.92652
6757.71466
6745.778828
6741.554349
6745.957642
6751.94791
6757.468791
6754.160733
6749.779791
6747.924596
6757.960529
6739.430933
6736.636965
6754.160733
6767.370613
6792.605733
6787.353073
6755.770058
6748.773962
6761.581512
6766.387137
6763.012023
6766.409488
6777.093622
6763.280244
6746.069401
6749.578625
6766.655358
6763.839038
6763.660224
6778.524134
6773.942026
6764.129611
6758.966358
6767.571779
6773.807916
6757.513494
6756.351203
6750.495046
6761.402698
6778.188858
6772.511515
6761.357994
6766.633006
6775.707814
6764.531942
6763.548465
6780.044053
6774.009082
6763.056727
6763.414355
6761.827381
6757.289977
6762.028547
6775.350186
6774.456116
6761.715622
6752.59611
6775.841925
6786.235486
6768.622311
6761.648567
6776.758346
6784.022663
6767.929407
6762.207361
6775.461945
6784.424995
6775.126669
6764.733108
6750.91973
6753.289014
6773.494991
6789.521192
6777.071271
6765.694233
6765.046032
6765.135439
6765.694233
6770.343396
6774.277303
6771.706852
6764.464887
6772.600922
6782.100413
6775.193724
6774.299654
6768.532904
6784.983788
6788.671826
6763.213189
6749.802142
6762.497933
6769.270512
6779.127631
6788.98475
6797.634875
6784.134422
6778.591189
6794.863259
6808.095492
6799.400663
6767.1918
6761.134477
6784.670864
6790.661131
6788.135384
6801.501727
6793.768024
6771.393928
6785.542582
6795.64557
6780.625198
6763.056727
6777.004215
6805.167413
6818.623164
6817.617335
6803.558088
6772.220942
6759.25693
6766.185971
6753.892512
6763.347299
6780.356977
6773.047957
6761.894436
6767.728241
6754.406602
6748.572796
6753.266663
6771.975073
6782.346282
6762.319119
6763.392003
6761.04507
6749.243349
6751.791448
6765.738936
6765.426012
6760.642738
6769.315215
6756.418259
6782.346282
6790.147041
6756.038279
6742.738991
6750.383288
6746.672898
6742.806046
6767.661186
6775.350186
6764.554294
6771.840962
6771.237465
6772.19859
6765.78364
6749.712735
6748.081058
6758.564026
6763.9955
6762.855561
6759.972186
6757.960529
6755.658299
6756.641776
6773.718509
6771.013948
6768.801125
6742.649584
6743.029564
6776.534829
6755.077154
6756.798238
6778.21121
6786.481355
6767.124744
6746.114105
6741.196721
6761.290939
6779.284093
6794.706797
6766.476544
6751.411468
6762.766154
6762.341471
6740.526168
6738.425104
6769.046994
6781.832192
6767.772945
6759.659262
6774.50082
6795.13148
6789.834117
6777.83123
6750.517398
6746.963471
6781.608675
6795.578515
6785.363768
6783.352111
6791.689311
6796.517288
6768.823477
6742.180197
6755.703003
6754.607767
6748.192817
6764.330776
6772.936198
6783.419166
6792.113995
6785.184954
6779.194686
6790.325855
6785.117899
6781.921599
6769.337567
6748.304575
6755.948872
6772.779736
6784.201477
6798.148966
6786.794279
6777.205381
6773.226771
6772.310349
6771.617445
6781.832192
6771.885666
6754.183084
6772.936198
6770.879837
6774.187896
6780.982826
6795.734977
6787.375425
6775.506648
6768.376442
6770.052823
6786.03432
6778.501782
6770.723375
6765.560122
6754.048974
6770.723375
6793.633913
6789.051806
6780.804012
6789.74471
6791.66696
6790.325855
6788.604771
6788.537715
6781.094585
6774.791393
6767.907055
6769.426974
6778.524134
6790.348207
6806.955553
6800.76412
6787.196611
6782.011006
6783.46387
6777.853582
6769.11405
6789.275323
6800.518251
6792.784547
6776.445422
6781.474564
6783.73209
6793.812727
6784.179125
6778.658244
6786.257838
6798.439538
6802.574611
6792.941009
6787.867163
6788.090681
6777.183029
6763.146134
6773.003253
6768.622311
6794.952666
6796.807861
6796.40553
6795.913791
6791.957532
6792.18105
6792.493974
6808.207251
6805.457986
6794.975018
6797.925448
6799.378312
6792.784547
6792.762195
6794.371521
6798.528945
6810.37537
6820.813634
6813.236393
6815.136291
6810.665943
6781.005178
6765.627177
6802.485204
6816.991486
6801.859355
6804.899192
6805.413283
6798.752463
6802.328742
6813.057579
6822.087684
6811.761178
6802.507556
6804.049826
6821.260669
6816.924431
6795.802032
6789.297675
6802.261687
6803.088701
6810.822405
6805.882669
6808.274306
6801.591134
6804.630972
6822.177091
6829.039076
6816.432693
6799.959457
6796.517288
6799.266553
6794.349169
6782.70391
6759.279282
6758.116991
6759.63691
6759.323985
6757.871122
6766.141268
6774.12084
6770.186933
6760.329814
6758.541674
6765.53777
6773.629102
6766.118916
6761.112125
6772.399756
6768.935236
6756.977052
6766.968282
6774.769041
6755.568892
6762.430878
6770.119878
6762.006195
6758.921654
6746.69525
6740.682631
6751.255006
6774.903151
6776.80305
6759.279282
6745.130628
6746.337622
6773.562047
6770.924541
6764.330776
6766.454192
6767.70589
6768.510552
6761.603863
6756.373555
6771.885666
6774.8808
6755.613596
6762.475581
6769.494029
6765.560122
6748.416334
6736.32404
6748.729259
6781.586323
6780.759308
6760.173352
6756.68648
6767.482372
6766.700061
6746.985823
6738.961546
6760.888608
6759.703965
6771.952721
6771.013948
6764.844866
6767.862352
6776.534829
6774.746689
6755.993576
6763.123782
6759.078116
6752.171427
6761.246236
6747.924596
6738.380401
6759.435744
6780.535791
6778.568837
6761.983843
6760.307462
6772.891494
6763.056727
6742.493122
6736.882834
6749.556273
6759.659262
6753.847808
6756.530017
6758.09464
6760.106297
6759.748669
6733.865349
6732.881872
6756.552369
6781.765137
6778.054747
6748.148113
6748.796314
6755.948872
6768.555256
6766.275378
6745.957642
6734.200625
6757.021756
6757.759363
6742.090791
6746.136456
6770.321044
6767.258855
6766.81182
6760.821552
6745.108276
6748.10341
6772.489163
6765.358956
6738.849788
6745.4212
6762.654395
6761.447401
6752.439648
6753.825456
6759.972186
6768.73407
6769.471677
6757.155866
6746.918767
6755.054802
6755.814762
6754.607767
6741.554349
6732.881872
6764.688404
6777.875933
6763.839038
6744.90711
6767.482372
6805.50269
6800.205326
6754.473657
6760.486276
6789.320027
6793.812727
6789.36473
6777.987692
6766.051861
6738.983898
6752.439648
6790.616428
6786.302541
6787.151907
6777.920637
6754.831285
6746.292918
6745.778828
6755.568892
6785.341416
6805.25682
6805.6368
6776.400718
6773.60675
6773.003253
6767.683538
6772.824439
6773.003253
6774.322006
6762.45323
6763.436706
6776.646587
6777.473602
6772.690329
6763.235541
6773.964378
6782.882724
6782.502744
6772.019776
6767.482372
6765.40366
6762.564988
6772.95855
6778.546486
6772.019776
6758.541674
6755.658299
6779.261742
6791.622256
6778.881762
6777.473602
6782.234524
6780.602846
6772.377404
6762.207361
6763.682576
6773.60675
6773.226771
6771.885666
6783.910904
6787.643646
6781.429861
6770.164582
6756.977052
6763.123782
6769.806954
6778.367672
6805.413283
6799.445367
6786.816631
6787.241314
6779.418204
6782.659207
6793.499803
6790.683483
6781.876896
6785.564933
6789.811765
6779.932294
6774.523172
6778.524134
6789.811765
6783.352111
6786.459003
6800.786471
6793.768024
6789.36473
6788.649474
6774.925503
6764.800163
6779.172335
6776.065442
6766.744765
6791.935181
6801.099396
6796.852564
6785.453175
6774.791393
6784.290884
6778.792355
6769.806954
6778.881762
6791.734015
6804.250992
6784.49205
6770.365747
6770.432802
6775.953683
6766.476544
6766.610654
6786.302541
6793.522155
6786.436652
6777.764175
6771.55039
6771.729204
6787.286018
6788.358902
6770.164582
6756.17239
6772.690329
6788.940047
6790.39291
6801.837003
6806.195594
6802.038169
6796.785509
6793.320989
6810.956515
6806.910849
6791.421091
6785.52023
6802.775777
6808.721341
6799.311256
6797.768986
6801.121748
6794.796204
6787.017797
6782.502744
6803.826309
6800.875878
6794.080948
6803.960419
6809.146024
6806.732035
6802.976942
6800.76412
6795.667922
6801.27821
6804.787434
6796.472585
6803.289867
6785.989617
6775.417242
6782.547448
6798.97598
6811.291791
6809.168376
6804.116881
6791.488146
6804.005123
6804.854489
6797.545469
6799.557126
6800.294733
6795.578515
6772.444459
6778.144154
6803.781605
6795.556163
6793.07512
6799.221849
6809.168376
6812.834062
6795.198535
6783.955608
6790.884649
6797.992503
6790.839945
6794.7515
6796.897268
6798.372483
6796.651399
6786.168431
6795.198535
6805.837966
6813.169338
6794.639742
6766.29773
6763.883741
6792.225753
6820.411303
6826.915661
6817.907908
6813.415207
6828.234414
6833.107094
6803.088701
6770.455154
6774.389061
6777.093622
6778.904114
6782.5698
6783.218
6784.290884
6781.318102
6789.275323
6790.661131
6762.699099
6743.320136
6762.788506
6795.533812
6783.285056
6772.176239
6782.234524
6782.212172
6778.054747
6771.863314
6780.289922
6793.857431
6775.059614
6756.082983
6782.502744
6789.811765
6760.329814
6740.816741
6781.631026
6815.538623
6805.480338
6780.915771
6769.695195
6757.245273
6754.138381
6769.695195
6796.472585
6786.369596
6769.650491
6764.554294
6764.531942
6786.302541
6798.908925
6787.397777
6778.635893
6783.508573
6784.49205
6771.617445
6760.419221
6772.287997
6810.710646
6795.556163
6763.213189
6755.568892
6754.183084
6770.723375
6770.209285
6762.922616
6769.359919
6765.515419
6772.377404
6748.885721
6724.879947
6752.216131
6782.122765
6778.814707
6774.36671
6763.459058
6749.735087
6748.349279
6754.652471
6752.506703
6759.189875
6775.931332
6778.971169
6746.248215
6737.933366
6751.143247
6768.465849
6769.672843
6761.69327
6770.052823
6758.139343
6741.777866
6746.114105
6756.68648
6756.842942
6759.011061
6765.135439
6763.749631
6752.84198
6750.91973
6769.091698
6773.584398
6766.789468
6775.171372
6776.668939
6745.868235
6748.259872
6779.3735
6781.80984
6767.571779
6760.061593
6763.9955
6763.347299
6748.304575
6750.02566
6755.41243
6778.904114
6783.508573
6769.538733
6763.235541
6748.796314
6728.076247
6739.587395
6750.584453
6756.842942
6773.785564
6767.70589
6762.497933
6759.189875
6753.825456
6758.966358
6746.136456
6739.252119
6760.486276
6759.480448
6759.569855
6760.799201
6747.924596
6723.047104
6741.934328
6787.665997
6793.07512
6773.427936
6776.087794
6747.07523
6721.527186
6738.581567
6758.74284
6778.21121
6775.506648
6780.26757
6759.212227
6734.960584
6739.65445
6739.967375
6753.266663
6751.657337
6760.53098
6765.78364
6757.33468
6749.533921
6750.763267
6756.932349
6768.756422
6752.685517
6771.438631
6756.3065
6729.864386
6752.707869
6769.985768
6762.766154
6737.799256
6717.146244
6710.68659
6745.957642
6764.88957
6770.499858
6776.981864
6757.982881
6731.920747
6749.891549
6767.147096
6764.464887
6749.444514
6742.090791
6755.524189
6756.68648
6763.056727
6750.807971
6763.392003
6765.627177
6765.381308
6757.178218
6741.152017
6744.214206
6755.457134
6754.965395
6746.069401
6734.871177
6730.713753
6757.513494
6786.369596
6768.845829
6738.156883
6754.406602
6786.570762
6763.637872
6735.944061
6767.214151
6760.106297
6741.263776
6748.818666
6760.687442
6768.443497
6753.87016
6771.885666
6766.364785
6759.346337
6755.27832
6731.429008
6741.308479
6759.25693
6754.496009
6750.785619
6753.423125
6765.247198
6754.831285
6746.449381
6755.479485
6774.836096
6784.648512
6764.397831
6755.859465
6734.40179
6737.285165
6731.049029
6743.945985
6765.381308
6789.163564
6778.792355
6782.390986
6798.774814
6777.495954
6756.060631
6747.745782
6750.763267
6753.311366
6748.125762
6767.929407
6783.285056
6788.358902
6778.077099
6759.189875
6744.102448
6756.977052
6771.282169
6753.400773
6748.371631
6775.238428
6792.382216
6790.39291
6760.441573
6746.494084
6766.476544
6759.860427
6753.289014
6759.055765
6771.125707
6785.430823
6786.369596
6771.863314
6763.883741
6763.012023
6762.609692
6750.562102
6766.454192
6761.782677
6768.242332
6784.983788
6779.462907
6780.938122
6754.76423
6739.185064
6748.081058
6760.083945
6761.313291
6769.829305
6792.784547
6797.970152
6781.072233
6741.889625
6750.807971
6759.189875
6764.531942
6777.920637
6782.949779
6763.503762
6781.228695
6774.903151
6756.708831
6774.813744
6747.857541
6755.658299
6786.92839
6800.920582
6768.242332
6750.53975
6763.056727
6780.088756
6777.674768
6760.039241
6754.89834
6770.857486
6780.759308
6761.268587
6776.981864
6808.58723
6784.737919
6763.548465
6752.059669
6746.337622
6762.833209
6773.360881
6771.148058
6772.176239
6767.862352
6777.607712
6784.134422
6778.971169
6773.494991
6772.287997
6773.852619
6774.344358
6778.322968
6775.953683
6759.189875
6742.224901
6751.456171
6788.805936
6798.908925
6785.430823
6784.357939
6804.854489
6772.667977
6762.207361
6759.480448
6763.570817
6743.811875
6762.341471
6794.080948
6803.535736
6799.892402
6777.294788
6758.765192
6764.688404
6760.66509
6737.7322
6749.712735
6788.940047
6783.799146
6780.468736
6789.610599
6778.501782
6762.654395
6754.697174
6756.909997
6761.93914
6768.532904
6771.483334
6763.928445
6775.529
6769.426974
6763.682576
6755.859465
6758.586378
6762.900265
6765.962454
6772.779736
6771.259817
6773.137364
6765.135439
6741.643756
6747.611671
6762.877913
6759.927483
6755.054802
6761.827381
6774.232599
6778.568837
6769.695195
6748.23752
6753.199608
6751.724392
6759.25693
6773.629102
6777.607712
6769.896361
6760.106297
6753.534884
6760.463924
6778.702948
6779.284093
6778.747651
6775.886628
6778.501782
6792.046939
6785.609637
6766.789468
6758.787544
6770.633968
6784.670864
6783.195649
6783.218
6799.311256
6784.961436
6784.603808
6791.845774
6790.839945
6773.629102
6770.321044
6776.981864
6785.229657
6782.390986
6770.589265
6791.130518
6786.503707
6768.689366
6761.223884
6765.068384
6772.444459
6790.884649
6792.046939
6795.533812
6802.462852
6799.311256
6770.522209
6755.300671
6759.145172
6769.538733
6788.649474
6807.42494
6798.46189
6802.17228
6801.635838
6794.058596
6779.529962
6765.224846
6755.166561
6768.912884
6779.932294
6796.763157
6805.972076
6803.401626
6789.275323
6782.659207
6784.849678
6780.960474
6780.26757
6785.296713
6784.894381
6794.952666
6801.255858
6805.927373
6780.26757
6759.592206
6757.468791
6764.777811
6781.80984
6790.996407
6790.705835
6791.309332
6790.2588
6786.54841
6782.793317
6780.222867
6784.469698
6792.18105
6782.458041
6777.741823
6779.954646
6789.923524
6789.543544
6782.592151
6777.183029
6765.850695
6774.679634
6784.760271
6790.169393
6787.889515
6790.39291
6795.019721
6792.806899
6789.834117
6784.424995
6769.494029
6777.764175
6781.273399
6777.607712
6783.776794
6788.425957
6777.987692
6765.314253
6756.418259
6773.182067
6801.680541
6810.040094
6793.946838
6785.810803
6783.821497
6766.588302
6774.791393
6797.076082
6793.052768
6778.546486
6784.961436
6793.58921
6794.23741
6787.017797
6774.210247
6778.032396
6796.204364
6804.630972
6799.35596
6791.085814
6783.173297
6783.553276
6787.710701
6785.341416
6784.849678
6795.757329
6800.339437
6793.611561
6787.800108
6790.884649
6788.381253
6791.644608
6786.682521
6785.52023
6787.375425
6792.426919
6789.990579
6800.160623
6801.144099
6783.508573
6776.668939
6786.54841
6793.700968
6795.444405
6789.431785
6785.877858
6793.835079
6788.493012
6789.141213
6790.057634
6794.125652
6795.802032
6794.505631
6784.894381
6787.95657
6780.491087
6786.526058
6809.011913
6794.393873
6773.517343
6775.417242
6788.761233
6801.121748
6794.684445
6781.541619
6780.893419
6785.855506
6780.446384
6790.370559
6805.234469
6801.769948
6787.107204
6781.049881
6777.674768
6765.805991
6783.665035
6802.552259
6798.104262
6782.972131
6790.437614
6792.628085
6791.018759
6792.941009
6797.612524
6813.079931
6808.095492
6801.725245
6786.906038
6788.738881
6804.675675
6796.293771
6796.316123
6802.842832
6802.105224
6808.609582
6805.50269
6799.534774
6793.276285
6791.108166
6789.811765
6785.453175
6791.465794
6791.063463
6800.831175
6812.409379
6804.630972
6790.281152
6779.149983
6792.873954
6800.89823
6798.148966
6796.360826
6791.108166
6785.14025
6804.273344
6821.327725
6821.752408
6802.552259
6794.371521
6791.465794
6795.824384
6775.417242
6765.627177
6757.580549
6767.348262
6776.758346
6764.487238
6767.035337
6774.12084
6782.346282
6784.201477
6767.169448
6755.501837
6775.573704
6790.191745
6784.581457
6776.959512
6767.70589
6773.405585
6791.108166
6772.377404
6763.414355
6765.738936
6753.49018
6760.620387
6772.265646
6776.42307
6773.919675
6770.835134
6774.12084
6773.047957
6776.333663
6768.309387
6763.056727
6779.038224
6781.16164
6783.173297
6786.92839
6780.871067
6774.836096
6762.430878
6760.776849
6772.042128
6777.205381
6773.003253
6759.145172
6758.988709
6787.30837
6788.001274
6774.813744
6765.426012
6758.184047
6754.607767
6755.479485
6748.639852
6754.428953
6770.946893
6772.310349
6776.311311
6778.077099
6764.129611
6759.547503
6764.844866
6774.456116
6776.780698
6770.835134
6756.351203
6759.726317
6762.609692
6767.147096
6751.880855
6766.767116
6770.879837
6766.744765
6766.454192
6770.723375
6774.746689
6765.515419
6757.84877
6758.295805
6753.937215
6756.373555
6768.823477
6775.663111
6775.193724
6770.209285
6759.189875
6768.890532
6769.426974
6767.750593
6765.627177
6743.096619
6731.473712
6761.156829
6787.531887
6781.116936
6776.356015
6770.969244
6766.94593
6768.152925
6765.515419
6774.567875
6773.293826
6760.866256
6758.474619
6765.26955
6766.700061
6770.835134
6774.746689
6780.714605
6781.072233
6770.209285
6760.128648
6758.586378
6762.609692
6765.828343
6762.497933
6761.134477
6766.029509
6755.479485
6754.272491
6758.809895
6773.226771
6765.895398
6767.996462
6782.659207
6795.958495
6793.902134
6790.147041
6776.758346
6773.785564
6769.471677
6774.433765
6791.555201
6802.105224
6790.2588
6787.0625
6781.832192
6771.55039
6775.573704
6780.066404
6790.884649
6803.58044
6794.61739
6782.458041
6779.328797
6772.824439
6778.747651
6786.816631
6789.834117
6775.149021
6780.334625
6787.800108
6786.4143
6788.98475
6783.173297
6783.128593
6786.481355
6786.190782
6797.970152
6794.729149
6788.358902
6782.323931
6778.591189
6781.742785
6787.040149
6780.021701
6784.357939
6780.401681
6778.971169
6780.826364
6788.291846
6783.307407
6775.171372
6783.218
6792.113995
6789.454137
6773.249122
6778.591189
6795.377349
6790.169393
6792.069291
6781.608675
6774.478468
6777.674768
6785.073195
6773.159715
6784.514401
6795.533812
6792.56103
6782.05571
6779.552314
6782.279227
6787.531887
6802.351094
6789.74471
6785.363768
6779.976997
6773.249122
6782.949779
6804.74273
6806.396759
6789.275323
6780.602846
6776.020739
6794.639742
6799.423015
6789.252971
6785.296713
6794.796204
6781.586323
6772.913846
6785.430823
6791.264628
6773.785564
6762.45323
6767.750593
6775.417242
6784.536753
6795.198535
6804.921544
6814.890422
6807.603754
6789.610599
6789.163564
6777.853582
6789.252971
6814.979829
6818.712571
6804.541565
6799.937105
6810.151852
6815.985658
6809.883631
6794.7515
6799.467719
6799.668884
6795.422053
6815.516271
6831.296603
6820.724228
6801.635838
6789.588247
6787.598942
6806.687332
6814.86807
6821.372428
6819.561937
6813.638725
6801.658189
6778.412375
6784.335588
6803.982771
6794.148003
6791.577553
6818.533757
6814.018704
6802.775777
6807.626105
6800.786471
6797.970152
6788.180088
6787.688349
6802.507556
6808.520175
6796.740806
6784.670864
6795.265591
6802.619315
6809.548355
6816.633858
6797.031378
6806.866146
6809.123672
6805.681503
6808.520175
6807.223774
6809.503652
6804.988599
6794.840907
6791.443442
6798.305428
6799.557126
6799.825346
6806.486166
6813.862242
6801.546431
6802.68637
6801.837003
6807.69316
6796.561992
6794.952666
6812.342323
6801.546431
6799.534774
6804.496861
6800.942934
6802.641666
6800.048864
6805.681503
6806.888498
6790.035282
6797.500765
6811.492957
6816.991486
6815.24805
6809.369541
6810.956515
6816.812672
6817.416169
6801.92641
6784.603808
6808.542527
6820.433655
6814.778663
6806.419111
6790.147041
6807.961381
6807.93903
6786.235486
6786.593114
6800.495899
6801.457024
6799.378312
6786.727224
6800.831175
6802.30639
6792.784547
6787.263666
6788.47066
6792.069291
6779.999349
6774.970207
6774.12084
6764.598997
6772.243294
6786.324893
6794.550335
6804.921544
6799.288905
6801.166451
6789.811765
6774.053785
6775.90898
6782.614503
6780.289922
6790.571724
6800.652361
6790.974056
6772.600922
6791.555201
6795.556163
6789.700006
6788.47066
6797.232544
6794.952666
6784.313236
6780.356977
6775.283131
6782.592151
6812.163509
6797.523117
6783.799146
6791.398739
6794.7515
6792.292809
6784.827326
6786.727224
6806.597925
6800.719416
6787.487184
6792.493974
6792.493974
6770.65632
6778.434727
6795.354998
6804.563916
6803.736902
6793.946838
6791.622256
6790.303503
6795.64557
6801.434672
6789.208268
6783.441518
6793.991541
6792.158698
6805.301524
6822.579422
6812.878765
6804.809785
6802.015817
6808.698989
6830.156664
6837.443332
6840.2373
6843.411248
6858.610434
6856.218798
6847.635728
6844.417077
6857.939882
6858.409269
6837.264518
6846.093457
6884.002016
6886.058377
6866.053565
6855.369431
6879.129336
6889.277028
6879.352853
6870.613321
6873.29553
6869.741603
6865.762993
6859.549208
6872.692033
6880.693958
6878.905818
6881.588028
6880.783365
6878.727004
6873.362586
6870.948597
6867.484077
6871.775612
6877.52001
6871.686205
6865.226551
6875.642464
6869.205161
6873.362586
6872.088536
6873.653158
6890.014635
6879.621074
6860.979719
6854.654176
6858.699841
6883.040891
6885.454879
6876.670644
6870.121583
6861.069126
6871.350929
6864.466591
6869.540437
6883.912609
6880.895124
6867.707594
6859.83978
6851.860208
6864.220722
6881.36451
6879.688129
6860.510333
6863.483115
6876.223609
6881.073938
6881.118641
6883.376167
6877.855286
6874.971911
6859.303338
6851.279062
6861.918493
6880.604551
6890.618132
6882.504449
6872.580275
6867.148801
6853.603644
6867.551132
6882.102118
6878.011749
6878.659949
6873.67551
6863.661929
6862.924321
6869.406327
6882.303283
6881.923304
6872.602626
6872.714385
6871.417984
6881.453917
6892.339217
6873.228475
6860.532684
6860.979719
6842.450123
6831.475417
6846.629899
6850.697917
6838.806789
6831.631879
6829.486111
6819.897213
6797.970152
6787.554239
6779.820535
6785.810803
6796.15966
6796.450233
6789.990579
6784.335588
6784.849678
6785.207306
6770.321044
6775.193724
6766.968282
6758.116991
6766.700061
6781.832192
6788.917695
6771.706852
6766.901227
6773.964378
6779.194686
6779.127631
6782.592151
6793.298637
6779.529962
6751.813799
6756.507666
6777.920637
6790.325855
6799.378312
6783.486221
6773.629102
6774.858448
6761.782677
6760.329814
6773.115012
6773.047957
6784.067367
6791.219925
6791.018759
6780.491087
6777.719471
6772.846791
6779.507611
6777.518305
6767.236503
6766.498895
6779.75348
6780.893419
6778.591189
6779.127631
6772.936198
6769.136401
6772.422108
6778.814707
6782.681558
6783.173297
6786.861335
6780.535791
6775.573704
6776.333663
6789.700006
6774.523172
6764.666052
6758.899302
6767.571779
6784.894381
6791.845774
6788.917695
6777.272436
6763.213189
6760.352166
6770.701023
6783.687387
6778.904114
6762.430878
6764.263721
6790.459966
6795.578515
6774.344358
6773.60675
6764.174314
6754.451305
6770.27634
6771.885666
6776.959512
6773.293826
6759.972186
6764.330776
6781.206343
6778.032396
6774.970207
6753.736049
6754.00427
6779.731128
6783.687387
6782.659207
6775.126669
6774.210247
6778.434727
6762.229712
6758.765192
6764.420183
6767.728241
6765.291901
6777.741823
6794.7515
6790.169393
6773.450288
6768.957587
6767.907055
6767.929407
6771.952721
6772.220942
6777.026567
6777.630064
6775.663111
6774.210247
6766.43184
6770.410451
6780.066404
6771.751555
6766.275378
6769.941064
6762.050898
6767.32591
6777.853582
6777.764175
6775.305483
6768.331739
6766.096564
6776.713643
6787.889515
6777.518305
6760.978015
6755.054802
6761.849733
6769.046994
6763.302596
6755.434782
6772.667977
6790.482317
6781.072233
6766.320082
6769.158753
6763.459058
6764.062555
6772.355053
6782.078061
6767.169448
6762.117954
6772.377404
6769.650491
6771.081003
6769.382271
6765.671881
6767.862352
6768.577608
6764.129611
6765.291901
6776.959512
6779.328797
6777.764175
6760.173352
6754.786581
6758.966358
6768.242332
6764.621349
6767.236503
6779.284093
6784.648512
6780.602846
6776.780698
6776.132497
6769.359919
6760.821552
6754.76423
6765.649529
6763.168486
6754.00427
6770.432802
6784.62616
6777.361843
6776.356015
6774.8808
6765.180143
6753.110201
6761.268587
6766.163619
6767.281207
6775.059614
6774.456116
6761.581512
6776.892457
6780.088756
6769.941064
6756.351203
6766.141268
6775.059614
6769.672843
6763.794334
6767.683538
6772.019776
6771.103355
6763.392003
6760.151
6769.941064
6767.996462
6766.118916
6765.26955
6766.588302
6764.129611
6768.912884
6773.226771
6777.875933
6771.326872
6772.779736
6771.662148
6771.595093
6763.839038
6763.660224
6762.408526
6755.859465
6760.843904
6774.12084
6770.701023
6753.780753
6761.894436
6770.14223
6769.941064
6766.118916
6765.91775
6769.76225
6759.838076
6744.236558
6761.916788
6786.570762
6772.757384
6763.973148
6767.974111
6764.688404
6751.925558
6755.814762
6784.134422
6785.207306
6769.471677
6768.421145
6763.883741
6762.542637
6765.515419
6763.257893
6761.648567
6768.912884
6763.950797
6760.933311
6754.38425
6763.414355
6777.048919
6774.187896
6768.085869
6764.219018
6768.421145
6772.667977
6766.409488
6760.307462
6764.241369
6762.006195
6758.139343
6768.152925
6780.736957
6783.508573
6782.726262
6772.377404
6758.22875
6750.092715
6747.522264
6761.268587
6768.86818
6762.185009
6763.794334
6757.692308
6746.896416
6737.821607
6733.150093
6728.679744
6731.786636
6736.05582
6733.507721
6721.884814
6723.650601
6732.032506
6732.703058
6721.124854
6710.30661
6710.932459
6701.969409
6691.08411
6681.942246
6704.003418
6716.96743
6724.902299
6718.464997
6706.84209
6694.906258
6686.747871
6694.660389
6701.812947
6706.283296
6705.322171
6700.069511
6708.026732
6705.657447
6693.721616
6684.5574
6688.111328
6704.919839
6719.895508
6710.239555
6700.248325
6699.197793
6706.350351
6702.997589
6696.33677
6691.73231
6698.795462
6706.909145
6709.345485
6713.078226
6713.502909
6708.451415
6706.573869
6694.481575
6700.628305
6703.042293
6700.024807
6703.958714
6708.920802
6708.00438
6703.243459
6709.345485
6707.132662
6701.522374
6691.799365
6692.939304
6705.635095
6701.768244
6702.863479
6703.422273
6711.133624
6712.586488
6703.64579
6700.628305
6690.368854
6685.920857
6700.471842
6701.432967
6693.386339
6709.121967
6719.001438
6720.476654
6707.311476
6702.304685
6708.451415
6692.2464
6694.392168
6714.374627
6716.051008
6701.544726
6705.143357
6715.514566
6722.935346
6708.138491
6686.971389
6695.152127
6712.452377
6720.253136
6711.759473
6700.650656
6702.707017
6703.779901
6705.232764
6712.385322
6720.29784
6719.627287
6709.479595
6700.024807
6702.081168
6700.538898
6706.886793
6704.003418
6706.46211
6720.208433
6723.650601
6712.944116
6735.67584
6747.701078
6737.754552
6729.931442
6739.207415
6745.510607
6744.638889
6758.496971
6771.058651
6762.07325
6757.759363
6757.133515
6763.347299
6765.53777
6761.872084
6764.353128
6769.62814
6780.804012
6772.332701
6760.195704
6763.034375
6761.581512
6763.548465
6762.185009
6760.083945
6764.576645
6777.585361
6776.356015
6767.370613
6760.262759
6755.680651
6754.563064
6763.056727
6767.70589
6776.847753
6767.415317
6757.513494
6766.968282
6777.741823
6771.483334
6765.336605
6769.695195
6777.741823
6765.113087
6764.040204
6763.660224
6770.589265
6777.540657
6762.274416
6759.189875
6764.554294
6778.278265
6793.388044
6778.7253
6758.876951
6751.813799
6758.921654
6766.342433
6776.959512
6780.64755
6769.583436
6772.265646
6772.824439
6779.038224
6781.720433
6780.960474
6780.714605
6776.356015
6776.311311
6773.383233
6775.01491
6784.402643
6778.702948
6765.180143
6770.701023
6779.507611
6783.08389
6776.735994
6774.009082
6776.668939
6783.799146
6774.053785
6777.630064
6792.538678
6786.906038
6776.646587
6769.874009
6783.709739
6788.828288
6775.707814
6765.470715
6776.780698
6782.279227
6782.033358
6764.442535
6764.576645
6782.279227
6787.733053
6775.596055
6782.279227
6787.487184
6780.535791
6778.881762
6770.566913
6773.427936
6786.92839
6785.296713
6779.75348
6769.494029
6784.872029
6785.766099
6775.90898
6769.829305
6775.707814
6776.80305
6781.720433
6785.542582
6784.849678
6784.961436
6777.361843
6768.979939
6780.602846
6792.382216
6789.36473
6783.150945
6775.976035
6777.428899
6787.934218
6774.031433
6771.528038
6787.978922
6792.382216
6787.911867
6784.961436
6784.581457
6787.263666
6784.894381
6790.996407
6783.508573
6772.869143
6765.291901
6770.231637
6794.282114
6795.019721
6795.13148
6784.62616
6784.045015
6793.276285
6785.162602
6778.904114
6785.989617
6792.493974
6788.045977
6782.011006
6782.793317
6790.437614
6778.971169
6767.370613
6781.474564
6792.248105
6793.991541
6791.555201
6787.800108
6783.910904
6768.242332
6755.814762
6774.523172
6788.582419
6778.278265
6773.718509
6770.946893
6789.767061
6797.657227
6789.655303
6789.051806
6791.622256
6776.959512
6777.808878
6790.817593
6790.214096
6787.777756
6772.623273
6768.756422
6773.115012
6795.019721
6796.204364
6783.642683
6785.833154
6786.347245
6787.241314
6776.847753
6785.117899
6792.449271
6790.348207
6787.017797
6785.117899
6789.767061
6792.359864
6790.39291
6786.749576
6787.598942
6788.381253
6779.842887
6777.093622
6786.526058
6790.862297
6781.340454
6777.898285
6791.041111
6797.701931
6792.493974
6781.80984
6761.670919
6763.146134
6784.179125
6793.566858
6793.253934
6788.761233
6786.4143
6790.750538
6788.872992
6792.628085
6786.079024
6786.570762
6784.156774
6790.147041
6787.30837
6776.110146
6765.873047
6771.706852
6785.207306
6794.371521
6794.796204
6789.945875
6789.454137
6784.916733
6781.876896
6789.945875
6792.113995
6789.990579
6774.12084
6780.625198
6791.443442
6798.663056
6789.36473
6779.597018
6801.546431
6793.186878
6771.55039
6772.95855
6788.917695
6796.204364
6784.134422
6782.435689
6801.009989
6789.655303
6777.428899
6769.874009
6777.697119
6784.536753
6778.144154
6773.204419
6774.63493
6791.28698
6795.578515
6779.88759
6771.058651
6774.299654
6786.257838
6783.955608
6788.671826
6792.337512
6792.449271
6782.212172
6778.546486
6783.665035
6774.322006
6778.568837
6792.113995
6789.655303
6786.704872
6780.580494
6764.129611
6772.623273
6800.652361
6797.880745
6777.138326
6783.128593
6787.531887
6778.390024
6785.14025
6787.151907
6788.805936
6791.398739
6789.945875
6791.063463
6788.202439
6788.358902
6779.440556
6781.183992
6784.559105
6781.251047
6786.459003
6781.496916
6779.708776
6788.694178
6785.564933
6788.269495
6779.731128
6782.390986
6790.415262
6780.26757
6766.096564
6777.093622
6789.029454
6792.69514
6792.382216
6782.972131
6789.74471
6788.515364
6782.547448
6783.73209
6773.182067
6772.489163
6783.530925
6783.374463
6779.552314
6779.999349
6774.50082
6793.365692
6804.452158
6802.932239
6801.613486
6789.811765
6768.689366
6765.873047
6780.915771
6791.510498
6804.161585
6795.422053
6785.676692
6782.212172
6782.167468
6801.27821
6795.109128
6801.166451
6801.747596
6794.125652
6775.596055
6769.270512
6779.284093
6791.398739
6791.689311
6793.522155
6794.349169
6793.008064
6791.66696
6782.167468
6783.776794
6785.117899
6780.893419
6777.205381
6784.11207
6798.931277
6805.234469
6805.703855
6795.399701
6786.213134
6790.750538
6796.852564
6792.918657
6794.371521
6795.198535
6782.994483
6771.282169
6793.58921
6805.033303
6793.320989
6789.588247
6790.415262
6795.980846
6796.561992
6793.253934
6790.2588
6785.564933
6791.66696
6790.012931
6791.063463
6798.484242
6797.545469
6795.466756
6789.074157
6794.282114
6793.298637
6788.716529
6781.273399
6795.198535
6802.373445
6792.82925
6791.175221
6805.592097
6804.474509
6804.318047
6794.863259
6795.064425
6792.426919
6788.940047
6788.47066
6787.084852
6782.592151
6790.527021
6791.711663
6797.031378
6788.940047
6784.290884
6782.815669
6775.529
6777.652416
6793.432748
6797.634875
6797.746634
6805.949724
6787.107204
6773.874971
6782.547448
6786.816631
6798.193669
6801.658189
6786.838983
6780.334625
6787.151907
6792.359864
6789.588247
6784.11207
6787.464832
6790.884649
6789.163564
6796.40553
6809.838928
6794.371521
6771.729204
6774.523172
6789.588247
6797.701931
6804.049826
6789.722358
6783.128593
6793.365692
6794.61739
6791.622256
6793.611561
6799.758291
6802.395797
6799.266553
6794.706797
6797.143137
6790.839945
6787.598942
6792.69514
6795.064425
6790.661131
6779.261742
6772.243294
6790.638779
6811.291791
6800.875878
6790.884649
6792.650436
6797.143137
6796.785509
6797.590172
6804.809785
6792.337512
6792.56103
6796.02555
6789.118861
6783.307407
6787.397777
6795.444405
6795.019721
6795.086777
6805.010951
6800.831175
6793.969189
6785.207306
6787.107204
6790.035282
6789.431785
6807.112015
6807.156719
6790.147041
6793.186878
6804.474509
6798.908925
6787.934218
6789.700006
6799.311256
6803.468681
6802.887535
6797.992503
6785.743747
6790.638779
6801.345265
6793.455099
6782.838021
6788.649474
6798.08191
6798.931277
6800.540602
6796.897268
6793.298637
6791.264628
6785.855506
6791.823422
6791.957532
6790.214096
6796.137309
6801.501727
6798.97598
6800.160623
6805.413283
6798.484242
6789.655303
6782.614503
6786.615465
6799.221849
6811.40355
6802.976942
6790.907
6791.510498
6800.697064
6800.562954
6786.302541
6796.651399
6814.801015
6812.81171
6794.975018
6787.82246
6787.911867
6788.895343
6799.601829
6797.165489
6799.713588
6797.232544
6801.099396
6791.80107
6790.77289
6795.556163
6804.921544
6804.072178
6810.263611
6801.41232
6795.779681
6789.521192
6794.393873
6798.283076
6795.064425
6790.079986
6797.925448
6794.304466
6793.991541
6794.527983
6790.527021
6786.324893
6795.980846
6800.89823
6797.366655
6797.076082
6790.661131
6786.257838
6793.410396
6802.731073
6802.619315
6790.817593
6796.092605
6807.648457
6803.84866
6797.098434
6784.939085
6785.743747
6799.646532
6812.6776
6801.099396
6791.443442
6796.249067
6796.964323
6798.864221
6790.214096
6785.050843
6788.98475
6800.361788
6798.46189
6803.021646
6808.855451
6805.279172
6806.374408
6799.87005
6796.003198
6795.243239
6795.287942
6796.740806
6796.293771
6787.084852
6784.223829
6796.629047
6797.187841
6796.293771
6795.734977
6788.493012
6789.320027
6797.612524
6799.266553
6798.640704
6801.099396
6801.568783
6794.013893
6783.665035
6788.358902
6798.886573
6797.478413
6793.231582
6807.022608
6803.33457
6799.87005
6799.512422
6800.808823
6811.515309
6808.117844
6797.344303
6794.975018
6801.077044
6799.266553
6801.658189
6804.027474
6802.932239
6789.789413
6791.555201
6802.239335
6807.93903
6798.283076
6796.584344
6800.428844
6800.115919
6793.745672
6788.716529
6784.022663
6792.225753
6795.846736
6788.33655
6788.314198
6795.243239
6793.812727
6801.859355
6806.709684
6807.849623
6806.083835
6802.574611
6789.476489
6784.11207
6789.096509
6792.248105
6799.512422
6802.753425
6799.914753
6798.484242
6788.090681
6782.011006
6792.605733
6792.963361
6797.389006
6795.198535
6798.931277
6796.986675
6793.455099
6789.431785
6794.282114
6797.366655
6808.028437
6804.832137
6794.349169
6792.404567
6781.876896
6784.089718
6800.585306
6791.398739
6789.141213
6803.178108
6802.976942
6796.852564
6794.013893
6781.049881
6779.082928
6785.65434
6779.529962
6784.62616
6790.661131
6794.639742
6792.851602
6793.008064
6793.164527
6793.991541
6791.421091
6785.587285
6789.320027
6799.668884
6803.625143
6793.745672
6804.74273
6812.834062
6805.25682
6798.528945
6791.845774
6799.311256
6807.313181
6804.653323
6798.283076
6792.82925
6792.806899
6794.460928
6804.362751
6796.785509
6795.466756
6809.302486
6796.53964
6765.582474
6772.06448
6795.220887
6806.240297
6803.491033
6796.204364
6799.043035
6800.428844
6798.171317
6804.116881
6791.063463
6782.323931
6790.951704
6810.263611
6825.395742
6819.651344
6801.501727
6790.281152
6782.145117
6780.312274
6785.922561
6792.046939
6798.372483
6807.603754
6799.981809
6786.637817
6778.747651
6793.835079
6802.619315
6805.592097
6805.234469
6806.575573
6791.063463
6779.440556
6789.141213
6817.907908
6805.189765
6783.46387
6790.2588
6796.986675
6793.790375
6803.513384
6806.307352
6806.128538
6804.318047
6780.893419
6778.166506
6798.372483
6797.970152
6798.260724
6789.36473
6791.376387
6814.689257
6814.331629
6799.624181
6796.092605
6791.28698
6792.158698
6781.29575
6786.883686
6804.720378
6812.163509
6808.833099
6805.413283
6802.664018
6803.915716
6803.133405
6805.346227
6799.87005
6798.998332
6797.992503
6792.717492
6795.287942
6801.367617
6796.964323
6794.907963
6794.013893
6774.456116
6774.746689
6804.832137
6811.850585
6812.185861
6803.602791
6798.528945
6788.023625
6784.000311
6803.33457
6807.670809
6800.585306
6805.212117
6801.904059
6786.213134
6793.522155
6806.776739
6806.597925
6803.915716
6801.099396
6790.147041
6796.137309
6801.546431
6793.320989
6787.129556
6794.170355
6792.382216
6803.692198
6808.944858
6806.597925
6800.652361
6797.076082
6804.072178
6797.858393
6795.824384
6787.643646
6799.333608
6803.178108
6794.460928
6789.722358
6801.457024
6805.525041
6812.118806
6812.29762
6806.061483
6795.980846
6790.795242
6792.82925
6796.964323
6800.451195
6795.042073
6797.43371
6803.558088
6809.146024
6812.163509
6805.301524
6800.339437
6808.542527
6803.625143
6796.427881
6801.322913
6809.593059
6814.108111
6805.145062
6793.566858
6801.345265
6813.884594
6813.459911
6803.625143
6803.84866
6805.435634
6806.128538
6803.133405
6801.434672
6799.244201
6805.435634
6794.684445
6790.683483
6802.284038
6810.062445
6806.01678
6795.891439
6796.584344
6799.735939
6800.227678
6793.544506
6793.231582
6801.814652
6810.151852
6793.544506
6780.222867
6797.143137
6809.168376
6799.87005
6796.606695
6801.322913
6814.86807
6818.377294
6803.245163
6798.864221
6799.221849
6784.827326
6794.125652
6802.775777
6808.475472
6801.680541
6796.316123
6822.266498
6816.879727
6790.102338
6794.058596
6794.639742
6784.380291
6795.712625
6785.00614
6775.037262
6776.780698
6773.651454
6762.274416
6761.670919
6765.090736
6770.65632
6763.570817
6752.327889
6751.366764
6738.179235
6737.642793
6747.902244
6743.677764
6743.610709
6738.581567
6735.027639
6737.128703
6733.664183
6722.041276
6703.914011
6697.074377
6709.345485
6718.442645
6706.551517
6706.015075
6720.05197
6716.542747
6712.832357
6699.868345
6691.978179
6695.912086
6696.33677
6695.777976
6702.148223
6705.322171
6706.395055
6707.132662
6706.529165
6696.269714
6704.15988
6705.098653
6697.834336
6690.212392
6683.842144
6683.104537
6695.040368
6707.400883
6705.322171
6696.783805
6695.509755
6693.900429
6696.98497
6688.379549
6688.737177
6700.941229
6710.016037
6702.148223
6688.826583
6677.494249
6693.051063
6700.471842
6684.199772
6688.893639
6698.549592
6696.269714
6693.900429
6692.760491
6703.198755
6708.697284
6692.49227
6681.137583
6688.558363
6695.666217
6702.595258
6696.001493
6700.002456
6709.189023
6703.221107
6682.702206
6684.378586
6694.056892
6686.613761
6692.514621
6697.476709
6711.312438
6713.614668
6701.58943
6691.5982
6679.617665
6669.648787
6678.835354
6704.316342
6705.724502
6695.420348
6693.542802
6688.133679
6694.906258
6699.577773
6697.320246
6688.580714
6698.795462
6701.567078
6699.086034
6696.046197
6695.845031
6699.331903
6697.677874
6692.536973
6690.57002
6685.585581
6685.138546
6679.640017
6677.136621
6691.352331
6710.060741
6697.856688
6684.155069
6695.532107
6698.348427
6678.880057
6702.639962
6725.841072
6709.569002
6710.373665
6723.158863
6734.357087
6745.622366
6751.880855
6745.734125
6748.729259
6760.352166
6762.207361
6759.77102
6767.772945
6771.930369
6778.233561
6789.275323
6797.701931
6798.528945
6788.872992
6768.309387
6769.024643
6795.51146
6809.727169
6809.056617
6808.855451
6814.86807
6817.326762
6807.42494
6792.113995
6787.241314
6796.53964
6804.273344
6800.227678
6797.657227
6795.086777
6800.786471
6803.33457
6797.590172
6803.736902
6797.523117
6797.634875
6808.944858
6801.993466
6779.418204
6779.641721
6800.652361
6808.095492
6810.755349
6817.192652
6816.499748
6800.138271
6794.796204
6790.951704
6794.148003
6795.958495
6789.811765
6796.092605
6799.914753
6806.597925
6812.767006
6806.888498
6803.58044
6798.707759
6799.534774
6801.613486
6802.909887
6795.913791
6802.798128
6795.466756
6792.56103
6803.625143
6807.04496
6801.233506
6794.952666
6808.386065
6799.713588
6788.805936
6790.884649
6802.664018
6813.906945
6814.063408
6804.586268
6799.49007
6797.120785
6803.155756
6797.500765
6798.931277
6799.288905
6794.438576
6812.364675
6812.319972
6807.760216
6802.127576
6809.168376
6801.457024
6793.343341
6799.87005
6808.274306
6804.22864
6803.33457
6809.056617
6808.386065
6806.441463
6800.518251
6794.438576
6807.983733
6802.619315
6798.506594
6801.904059
6798.819518
6808.07314
6816.857376
6812.118806
6807.201422
6802.887535
6804.161585
6801.032341
6795.13148
6790.057634
6798.417187
6807.827271
6810.665943
6819.941916
6821.059504
6809.548355
6802.954591
6804.09453
6797.232544
6797.836041
6794.058596
6794.99737
6806.597925
6813.348152
6818.109073
6818.690219
6797.456062
6800.048864
6802.17228
6799.333608
6806.977905
6812.901117
6809.526004
6794.572687
6802.351094
6805.525041
6799.713588
6803.356922
6795.980846
6793.119823
6802.440501
6807.246126
6812.185861
6813.057579
6810.911812
6808.363713
6811.627068
6802.082873
6789.141213
6806.083835
6813.951649
6808.140195
6802.507556
6802.082873
6805.905021
6814.532794
6807.42494
6801.345265
6797.724282
6798.484242
6797.880745
6803.356922
6816.253879
6815.695085
6811.40355
6806.687332
6807.804919
6812.409379
6809.123672
6800.093567
6800.920582
6792.270457
6797.321951
6820.590117
6817.349114
6809.391893
6799.132442
6803.692198
6799.266553
6803.669846
6812.051751
6817.952611
6812.94582
6806.866146
6798.528945
6788.515364
6794.796204
6810.151852
6812.565841
6814.018704
6809.168376
6805.25682
6811.135329
6801.41232
6794.706797
6794.796204
6803.736902
6809.213079
6806.441463
6809.771873
6806.821442
6802.82048
6806.754387
6809.928335
6811.604716
6793.07512
6784.603808
6794.885611
6808.654286
6808.58723
6814.73396
6811.738826
6790.77289
6775.216076
6785.252009
6803.893364
6812.364675
6815.426864
6810.732998
6808.251954
6805.6368
6796.02555
6800.76412
6796.91962
6802.865184
6810.129501
6808.631934
6799.758291
6790.974056
6794.23741
6801.121748
6806.977905
6800.741768
6788.828288
6794.863259
6809.34719
6809.324838
6806.977905
6798.104262
6788.783585
6796.807861
6824.769893
6824.121693
6812.409379
6791.264628
6790.348207
6794.840907
6797.925448
6800.00416
6805.882669
6818.287887
6816.253879
6807.916678
6801.479376
6803.826309
6808.363713
6792.136346
6793.298637
6806.866146
6807.491995
6804.407454
6808.162547
6806.910849
6801.077044
6802.284038
6810.621239
6817.215004
6819.763103
6802.887535
6805.346227
6810.241259
6807.69316
6796.427881
6777.406547
6788.113032
6814.510443
6810.800053
6806.53087
6803.178108
6803.289867
6809.011913
6808.386065
6793.72332
6813.415207
6810.934163
6791.734015
6791.510498
6796.606695
6798.283076
6793.07512
6798.439538
6814.421036
6813.169338
6811.224736
6809.503652
6809.4813
6808.855451
6791.644608
6785.587285
6787.330721
6802.619315
6814.86807
6809.704817
6806.039131
6804.854489
6813.079931
6806.463815
6791.555201
6791.28698
6807.022608
6815.315105
6812.364675
6812.275268
6808.766044
6796.785509
6785.341416
6797.321951
6811.247088
6808.654286
6804.250992
6805.301524
6807.022608
6810.151852
6805.860317
6803.513384
6802.105224
6793.164527
6788.649474
6805.994428
6816.365637
6805.614448
6794.148003
6791.510498
6796.182012
6802.418149
6805.033303
6816.410341
6830.447236
6827.474454
6807.156719
6793.633913
6797.679579
6799.333608
6785.453175
6779.999349
6780.334625
6794.505631
6800.920582
6798.774814
6801.546431
6795.243239
6800.115919
6798.32778
6793.58921
6785.117899
6783.106242
6782.659207
6788.023625
6795.287942
6804.832137
6801.345265
6795.936143
6799.87005
6809.950687
6809.011913
6801.501727
6796.02555
6792.873954
6788.023625
6787.57659
6783.374463
6782.122765
6796.092605
6799.959457
6799.534774
6794.952666
6788.068329
6780.826364
6793.633913
6805.837966
6800.160623
6790.77289
6788.671826
6789.722358
6801.054692
6798.104262
6789.767061
6785.363768
6797.970152
6797.858393
6791.264628
6799.892402
6800.160623
6795.958495
6793.678617
6794.393873
6792.113995
6799.49007
6792.516326
6786.190782
6781.921599
6792.203402
6795.757329
6787.710701
6785.721396
6788.135384
6802.127576
6803.111053
6803.222812
6804.407454
6786.995445
6793.119823
6802.68637
6802.328742
6798.08191
6800.495899
6812.878765
6826.692143
6824.8593
6813.348152
6800.451195
6804.116881
6802.395797
6801.389969
6804.295695
6810.822405
6814.286925
6807.760216
6806.128538
6802.708721
6808.877803
6802.17228
6800.317085
6814.86807
6809.391893
6812.856413
6813.348152
6816.030361
6802.216983
6786.168431
6795.220887
6809.593059
6820.12073
6818.600812
6813.392855
6808.341361
6811.850585
6810.263611
6808.251954
6812.29762
6818.421998
6812.990524
6798.774814
6797.813689
6811.180033
6805.860317
6800.76412
6813.906945
6811.135329
6812.565841
6815.404512
6817.863204
6812.968172
6817.483225
6812.744655
6812.252916
6816.410341
6818.332591
6808.408416
6784.022663
6792.471623
6815.091588
6817.952611
6820.3666
6818.869033
6814.063408
6806.285001
6808.698989
6813.415207
6827.496806
6823.607603
6811.001219
6802.641666
6807.737864
6814.845719
6811.850585
6809.883631
6805.033303
6814.666905
6812.208213
6809.526004
6815.404512
6819.763103
6816.432693
6802.373445
6805.055655
6814.845719
6817.237355
6811.91764
6802.440501
6805.413283
6817.192652
6818.824329
6814.085759
6813.057579
6828.592042
6833.755295
6831.542472
6836.661021
6834.157626
6844.193559
6847.769838
6841.176074
6846.696955
6851.50258
6845.802885
6849.222702
6857.828123
6864.041908
6857.872827
6840.371411
6844.372373
6855.86117
6850.899083
6839.790266
6844.662946
6853.290719
6839.857321
6837.085704
6864.801868
6869.026347
6854.207141
6838.046829
6841.444295
6842.137199
6836.683373
6847.076934
6858.521027
6869.83101
6857.716365
6848.418039
6851.100248
6837.532739
6826.356867
6833.867053
6844.46178
6861.851437
6862.633748
6837.085704
6829.821388
6850.496751
6861.449106
6858.901007
6869.428679
6861.940844
6848.82037
6837.242167
6846.093457
6863.68428
6864.600702
6853.111905
6850.340289
6844.394725
6858.386917
6856.799943
6854.184789
6852.419001
6843.679469
6848.641556
6855.704708
6861.516161
6846.182864
6851.949615
6852.195484
6846.495789
6843.277138
6847.680431
6855.816466
6858.878655
6871.350929
6869.942769
6856.688184
6851.279062
6855.525894
6854.989452
6849.870902
6845.86994
6850.340289
6859.795077
6855.660004
6852.351946
6843.008917
6836.593966
6850.005013
6873.094365
6869.003996
6864.310129
6859.348042
6849.602681
6857.716365
6869.272216
6872.13324
6861.873789
6850.384992
6858.789248
6862.253769
6860.800905
6860.756202
6846.875769
6851.323766
6870.613321
6861.337347
6846.026402
6856.75524
6869.562789
6867.595836
6876.447126
6880.358682
6868.847533
6848.239225
6841.176074
6852.53076
6858.163399
6853.022498
6855.145914
6858.856304
6856.263501
6864.868923
6870.456859
6864.623054
6850.966138
6851.569635
6860.35387
6867.886408
6864.488943
6850.74262
6849.423867
6858.990414
6872.513219
6866.835876
6854.385955
6854.609472
6859.012766
6862.410231
6856.241149
6853.625995
6859.102173
6854.922397
6857.001109
6861.359699
6873.02731
6864.891275
6851.077896
6842.606585
6859.571559
6884.605513
6877.877638
6853.335423
6850.340289
6852.486056
6846.875769
6851.301414
6851.279062
6850.407344
6845.400553
6862.790211
6858.833952
6856.419963
6859.348042
6847.948652
6847.456914
6857.649309
6861.62792
6852.798981
6848.552149
6852.195484
6868.735775
6856.978757
6847.65808
6866.813525
6875.620112
6853.17896
6822.624126
6838.650327
6865.360661
6876.558885
6873.921379
6864.57835
6872.803792
6877.877638
6868.109926
6862.991376
6871.462687
6866.478248
6859.280987
6878.995225
6892.048644
6884.516106
6876.648292
6877.810583
6883.353815
6880.761013
6880.492792
6875.262484
6871.976778
6873.429641
6873.340234
6878.704653
6877.363548
6873.317882
6879.330501
6879.017577
6881.409214
6887.935923
6876.648292
6867.349966
6876.380071
6876.692996
6883.510278
6871.395632
6882.906781
6892.138051
6878.347025
6872.043833
6883.80085
6882.057414
6878.369376
6881.968007
6881.565676
6886.61717
6884.449051
6882.63856
6881.118641
6872.312054
6882.169173
6892.7639
6897.234249
6896.429586
6884.516106
6874.033138
6871.306225
6881.520972
6890.662836
6883.130298
6876.715347
6885.857211
6889.165269
6881.140993
6869.093403
6865.517123
6865.271254
6873.876676
6892.361568
6885.946618
6885.857211
6877.296493
6871.306225
6867.998167
6861.493809
6866.947635
6885.566638
6883.711443
6877.721176
6882.146821
6889.969932
6889.344083
6879.017577
6878.324673
6879.710481
6885.030196
6879.486964
6874.05549
6873.764917
6883.778499
6880.112813
6871.686205
6872.312054
6877.341196
6877.989397
6878.570542
6884.024368
6881.006882
6879.978702
6869.853362
6861.337347
6866.098269
6880.917475
6880.47044
6882.079766
6888.651179
6885.119603
6879.598722
6883.040891
6874.591932
6869.383975
6882.236228
6879.911647
6870.300397
6872.692033
6879.330501
6881.409214
6879.464612
6872.490868
6869.495734
6879.106984
6877.89999
6884.270237
6883.577333
6873.630807
6879.889295
6890.081691
6891.825127
6883.264409
6874.413118
6858.565731
6869.406327
6882.169173
6884.605513
6881.208048
6873.29553
6872.513219
6884.158478
6885.320769
6869.898065
6852.374298
6863.304301
6867.752298
6862.298472
6871.216818
6878.570542
6872.602626
6861.270292
6849.356812
6856.978757
6867.998167
6876.089499
6889.701711
6891.087519
6874.860153
6866.433545
6871.61915
6877.274141
6884.381996
6884.538458
6878.168211
6874.100193
6871.932074
6876.000092
6869.965121
6856.039984
6845.512312
6843.56771
6840.840798
6846.160513
6844.305318
6830.782513
6835.029344
6832.749466
6812.051751
6812.096454
6815.62803
6805.837966
6808.654286
6820.008972
6815.963306
6801.948762
6806.799091
6799.177146
6784.737919
6776.624236
6782.167468
6797.321951
6801.099396
6788.805936
6775.171372
6773.09266
6786.682521
6772.511515
6752.886683
6773.494991
6772.444459
6774.389061
6777.048919
6782.793317
6776.333663
6762.45323
6768.152925
6772.310349
6776.020739
6777.048919
6795.399701
6804.921544
6797.05373
6778.300617
6757.424087
6750.316232
6763.392003
6765.78364
6771.55039
6776.691291
6798.417187
6791.264628
6786.235486
6777.428899
6768.376442
6767.012986
6769.583436
6771.0363
6764.129611
6750.115067
6771.0363
6779.082928
6758.22875
6754.51836
6759.748669
6759.882779
6764.50959
6760.419221
6758.698137
6774.009082
6784.402643
6776.132497
6761.849733
6751.970262
6769.605788
6781.005178
6783.016835
6778.21121
6771.952721
6777.920637
6763.950797
6749.913901
6771.371576
6782.614503
6775.484297
6773.204419
6780.155811
6784.313236
6768.242332
6762.274416
6766.163619
6775.573704
6782.390986
6786.168431
6777.898285
6764.934273
6770.209285
6778.881762
6776.266608
6775.305483
6768.041166
6756.418259
6769.918712
6786.101375
6779.306445
6771.908018
6772.131535
6766.476544
6762.542637
6765.336605
6766.588302
6771.908018
6768.555256
6777.697119
6777.719471
6768.465849
6774.545523
6781.228695
6786.146079
6789.87882
6774.098489
6770.857486
6767.482372
6754.339546
6766.94593
6770.253989
6786.660169
6783.843849
6777.428899
6790.012931
6803.423977
6806.799091
6801.121748
6811.582364
6820.523062
6815.024533
6798.059559
6800.227678
6799.110091
6792.046939
6779.082928
6791.734015
6811.358847
6829.642574
6823.45114
6808.96721
6799.423015
6797.746634
6786.436652
6781.80984
6800.473547
6807.916678
6812.990524
6806.039131
6810.218908
6813.996352
6813.750483
6808.631934
6798.730111
6804.295695
6790.661131
6778.747651
6783.933256
6826.245108
6819.249012
6799.333608
6806.955553
6808.162547
6803.535736
6797.634875
6793.522155
6797.903096
6814.510443
6810.911812
6804.563916
6810.487129
6802.887535
6794.975018
6803.982771
6804.183937
6802.775777
6812.968172
6813.83989
6821.037152
6815.560975
6803.692198
6791.644608
6810.621239
6815.203347
6803.155756
6797.076082
6802.440501
6826.602736
6811.582364
6789.387082
6795.399701
6811.78353
6806.307352
6800.071216
6808.251954
6818.019666
6828.323821
6819.226661
6795.667922
6792.672788
6809.905983
6813.70578
6805.346227
6800.428844
6812.632896
6817.438521
6813.281097
6824.032286
6824.747542
6810.576536
6815.918602
6827.250937
6829.888443
6839.745562
6832.145969
6806.754387
6811.671771
6824.72519
6813.370504
6815.136291
6820.433655
6826.468626
6811.314143
6799.043035
6817.505576
6832.838873
6841.064315
6848.216873
6836.906891
6833.509425
6815.739789
6802.105224
6810.37537
6827.742675
6825.708667
6810.710646
6811.671771
6819.673696
6809.816576
6810.800053
6815.426864
6830.715457
6839.790266
6820.768931
6807.223774
6811.202384
6819.897213
6807.916678
6803.647495
6803.111053
6811.828233
6827.988544
6820.903041
6827.586213
6830.62605
6820.858338
6814.398684
6814.59985
6821.730056
6816.678562
6802.68637
6811.336495
6836.728077
6837.890367
6824.188748
6833.397667
6830.782513
6817.68439
6808.631934
6809.436597
6799.311256
6795.690274
6818.153777
6839.745562
6841.89133
6844.797056
6836.77278
6833.688239
6848.127466
6847.367507
6831.676582
6835.208158
6842.561882
6845.244091
6846.89812
6848.283928
6845.914644
6837.622146
6845.35585
6844.46178
6840.416114
6841.265481
6846.093457
6841.623109
6838.382106
6828.681449
6832.101265
6823.071161
6836.482207
6862.186713
6852.463705
6840.594928
6824.948707
6818.399646
6835.766952
6840.572577
6837.599795
6843.500655
6848.440391
6840.393763
6830.290774
6825.909832
6824.166396
6824.300507
6829.441408
6849.401516
6853.17896
6849.960309
6837.15276
6831.989507
6836.77278
6841.243129
6839.991431
6837.331574
6824.2111
6823.629954
6828.279117
6831.9001
6853.603644
6849.982661
6839.20912
6841.667812
6837.532739
6840.706687
6851.055545
6841.332536
6849.312109
6853.827161
6847.546321
6853.000147
6867.327615
6874.636635
6882.035063
6869.786307
6844.305318
6850.340289
6877.274141
6876.938865
6862.969025
6865.964158
6863.416059
6867.662891
6874.122545
6868.445202
6868.556961
6866.612359
6861.985548
6864.421888
6871.686205
6876.558885
6857.291681
6853.17896
6854.944748
6868.266388
6879.218743
6873.139068
6864.779516
6874.56958
6869.741603
6849.893254
6854.184789
6867.841705
6869.853362
6872.759089
6881.2304
6875.106022
6872.624978
6876.447126
6875.061318
6864.287777
6855.011804
6856.643481
6867.01469
6868.780478
6865.025385
6864.153667
6876.603589
6873.764917
6869.160458
6873.608455
6869.808658
6859.19158
6864.824219
6861.985548
6860.957368
6877.072975
6886.10308
6877.564714
6868.556961
6868.489905
6867.685243
6858.118696
6857.78342
6864.332481
6872.535571
6882.415042
6875.441298
6857.716365
6866.701766
6880.895124
6868.556961
6854.810638
6882.973836
6891.556906
6872.379109
6862.745507
6861.739679
6866.053565
6869.45103
6876.648292
6864.019557
6862.097307
6873.630807
6875.195429
6872.312054
6880.515144
6871.395632
6858.67749
6857.537551
6858.990414
6859.504504
6858.565731
6871.976778
6889.120566
6880.33633
6867.931112
6867.77465
6866.210027
6854.07303
6852.441353
6874.56958
6880.448089
6873.653158
6862.879618
6852.128428
6856.107039
6879.732833
6892.361568
6885.477231
6873.250827
6871.23917
6870.568618
6871.015653
6863.483115
6864.488943
6877.274141
6882.057414
6876.201257
6871.283873
6866.701766
6864.399536
6871.574446
6869.428679
6880.939827
6884.158478
6880.492792
6879.732833
6874.994263
6862.633748
6863.706632
6868.892237
6868.109926
6866.321786
6866.590007
6890.349911
6896.854269
6877.3859
6862.410231
6868.959292
6875.955388
6879.777536
6882.236228
6878.883467
6884.002016
6878.212914
6872.177943
6874.971911
6868.601664
6867.841705
6871.23917
6877.877638
6895.535516
6902.263391
6877.095327
6854.117734
6855.883522
6866.545304
6852.687222
6849.826199
6857.895179
6841.734867
6835.476379
6819.204309
6818.086722
6821.283021
6817.706742
6811.045922
6814.86807
6823.629954
6802.999294
6794.729149
6797.56782
6798.417187
6793.008064
6794.170355
6782.145117
6776.534829
6779.060576
6772.489163
6768.711718
6771.528038
6762.721451
6745.823532
6749.019831
6759.167523
6750.696212
6743.968337
6747.58932
6742.291956
6743.722468
6744.147151
6728.992668
6726.176348
6734.446494
6734.155921
6737.128703
6745.242386
6753.378421
6756.015927
6722.533014
6716.989781
6726.779846
6744.795352
6738.581567
6729.976145
6739.162712
6757.178218
6741.777866
6719.940212
6703.891659
6700.18127
6720.43195
6737.016945
6740.9285
6749.913901
6737.776904
6718.464997
6713.279392
6713.949944
6721.638944
6731.160787
6744.549482
6746.672898
6741.889625
6745.4212
6732.099561
6711.759473
6722.153034
6728.813854
6732.032506
6740.973203
6748.170465
6732.747761
6735.966413
6755.010099
6732.524244
6705.098653
6716.229822
6736.413447
6750.048012
6742.560177
6721.191909
6725.639907
6746.561139
6737.419276
6730.981974
6728.813854
6728.791503
6729.395
6725.282279
6707.266773
6721.46013
6759.525151
6782.815669
6744.348317
6708.585526
6723.672953
6728.590337
6732.926575
6740.41441
6753.937215
6737.776904
6740.772038
6737.642793
6727.673915
6741.174369
6754.071326
6751.255006
6746.404677
6743.163674
6745.622366
6753.378421
6738.983898
6720.901337
6742.604881
6758.474619
6731.361953
6717.392113
6732.47954
6745.890587
6753.713698
6754.607767
6758.22875
6725.662258
6722.711828
6750.517398
6766.29773
6760.754497
