Detector 2,,,,,,,,Detector 4,,,,,,,,Detector 6,,,,,,,,Detector 8,,,,,,,,Detector 10,,,,,,,,Detector 12,,,,,,,,Detector 14,,,,,,,,Detector 16,,,,,,,
"RED1,2,3,4","IR1,2,3,4 ","RED5,6,7,8","IR5,6,7,8 ","RED9,10,11,12","IR9,10,11,12 ","RED13,14,15,16","IR13,14,15,16 ","RED1,2,3,4","IR1,2,3,4 ","RED5,6,7,8","IR5,6,7,8 ","RED9,10,11,12","IR9,10,11,12 ","RED13,14,15,16","IR13,14,15,16 ","RED1,2,3,4","IR1,2,3,4 ","RED5,6,7,8","IR5,6,7,8 ","RED9,10,11,12","IR9,10,11,12 ","RED13,14,15,16","IR13,14,15,16 ","RED1,2,3,4","IR1,2,3,4 ","RED5,6,7,8","IR5,6,7,8 ","RED9,10,11,12","IR9,10,11,12 ","RED13,14,15,16","IR13,14,15,16 ","RED1,2,3,4","IR1,2,3,4 ","RED5,6,7,8","IR5,6,7,8 ","RED9,10,11,12","IR9,10,11,12 ","RED13,14,15,16","IR13,14,15,16 ","RED1,2,3,4","IR1,2,3,4 ","RED5,6,7,8","IR5,6,7,8 ","RED9,10,11,12","IR9,10,11,12 ","RED13,14,15,16","IR13,14,15,16 ","RED1,2,3,4","IR1,2,3,4 ","RED5,6,7,8","IR5,6,7,8 ","RED9,10,11,12","IR9,10,11,12 ","RED13,14,15,16","IR13,14,15,16 ","RED1,2,3,4","IR1,2,3,4 ","RED5,6,7,8","IR5,6,7,8 ","RED9,10,11,12","IR9,10,11,12 ","RED13,14,15,16","IR13,14,15,16 "
153,154,157,153,159,153,155,156,161,163,157,161,162,166,161,161,345,346,342,373,346,344,347,346,2927,2926,2924,2940,2933,2935,2945,2946,782,785,33423,28493,9028,10283,921,797,867,871,17267,15207,23899,31986,1240,914,154,154,31305,32172,20715,22742,25169,42537,156,148,7115,8662,13387,20605,65535,65535
152,157,156,157,153,157,155,161,163,161,159,161,165,163,163,163,344,345,340,373,345,344,347,345,2931,2930,2929,2946,2935,2935,2939,2939,787,785,33442,28512,9030,10297,923,800,875,871,17262,15193,23891,31967,1239,914,675,175,31296,32148,20714,22742,25168,42557,2185,185,7141,8667,13395,20614,65535,65535
153,154,155,157,156,156,158,155,163,163,159,153,162,161,161,167,344,349,338,373,346,348,347,344,2927,2925,2921,2937,2927,2930,2939,2939,788,786,33485,28552,9034,10299,923,798,877,872,17270,15209,23899,31978,1243,914,677,179,31299,32155,20719,22742,25170,42549,2175,187,7138,8671,13400,20611,65535,65535
151,153,156,157,156,154,157,151,163,162,162,161,163,161,162,161,346,345,340,373,343,345,343,346,2926,2925,2922,2940,2930,2929,2938,2938,788,787,33465,28530,9029,10298,925,800,878,874,17277,15199,23894,31971,1239,914,680,177,31285,32129,20717,22739,25174,42556,2187,191,7139,8672,13395,20611,65535,65535
155,167,154,153,148,157,159,154,159,167,163,162,162,162,159,166,343,344,341,373,346,347,348,344,2921,2921,2921,2930,2921,2922,2933,2933,789,786,33513,28621,9044,10332,925,801,875,873,17277,15221,23918,32031,1246,915,679,177,31263,32135,20725,22759,25171,42593,2176,189,7138,8673,13401,20623,65535,65535
155,154,154,154,154,152,155,155,163,160,159,159,161,167,161,164,347,344,340,374,345,346,345,347,2920,2918,2917,2933,2921,2924,2935,2935,790,789,33598,28739,9059,10370,928,805,881,873,17305,15262,23958,32122,1247,917,683,176,31266,32160,20738,22791,25185,42635,2186,187,7140,8679,13410,20647,65535,65535
158,152,154,153,155,154,155,156,163,162,161,163,167,160,161,165,348,344,341,373,345,345,346,345,2923,2921,2919,2933,2926,2929,2937,2939,794,790,33668,28857,9079,10406,933,805,878,875,17339,15306,23987,32229,1250,920,683,176,31276,32193,20758,22826,25205,42685,2177,198,7142,8687,13417,20671,65535,65535
154,157,153,154,157,155,152,159,161,163,162,163,163,163,164,165,345,345,342,373,346,344,348,346,2926,2925,2923,2939,2934,2935,2943,2945,797,796,33740,28981,9097,10443,933,810,881,880,17375,15358,24027,32322,1251,923,684,177,31290,32233,20775,22863,25224,42747,2191,194,7146,8693,13427,20706,65535,65535
151,156,155,157,156,155,155,156,162,165,159,158,165,162,161,163,345,343,340,376,346,345,347,347,2931,2933,2928,2943,2933,2937,2945,2947,796,795,33825,29116,9115,10485,939,813,882,879,17408,15405,24065,32431,1257,925,682,177,31309,32276,20798,22906,25244,42799,2181,187,7148,8702,13442,20736,65535,65535
154,153,156,155,155,154,155,155,166,163,161,161,163,162,161,164,345,344,341,375,346,348,344,348,2931,2931,2923,2940,2929,2930,2939,2941,798,799,33817,28986,9084,10378,929,803,883,882,17425,15407,24061,32346,1254,921,685,178,31397,32335,20799,22864,25226,42674,2191,191,7157,8707,13434,20692,65535,65535
153,154,151,154,154,153,154,159,163,164,160,163,159,166,161,162,345,346,342,374,347,346,349,349,2931,2930,2929,2946,2942,2942,2951,2951,790,791,33395,28392,9005,10243,925,799,882,875,17321,15247,23957,31998,1243,917,684,177,31367,32196,20741,22753,25188,42578,2177,188,7147,8678,13398,20590,65535,65535
154,153,153,153,153,154,153,164,163,160,162,162,165,160,164,164,346,347,345,376,350,346,348,345,2936,2934,2930,2946,2937,2937,2946,2949,790,786,33353,28316,8994,10230,921,801,876,871,17247,15142,23887,31817,1239,913,683,177,31337,32137,20724,22716,25173,42549,2182,188,7140,8665,13386,20554,65535,65535
157,156,154,154,152,154,155,154,162,167,163,166,164,166,163,163,347,347,342,374,346,345,345,347,2934,2935,2931,2945,2933,2936,2946,2944,786,785,33319,28275,8991,10225,922,799,875,871,17211,15098,23857,31745,1237,915,680,179,31303,32093,20716,22707,25167,42535,2172,187,7134,8655,13381,20541,65535,65535
154,159,152,154,154,154,158,154,164,162,160,160,165,162,163,167,345,346,343,375,348,346,345,346,2931,2930,2925,2940,2932,2934,2945,2944,785,783,33363,28336,8991,10234,923,799,873,871,17221,15111,23855,31749,1237,912,682,177,31294,32099,20719,22705,25169,42533,2177,188,7129,8652,13379,20542,65535,65535
156,153,151,154,152,152,159,158,163,165,159,165,163,163,159,162,345,345,341,373,345,344,345,348,2930,2933,2929,2944,2937,2938,2949,2949,787,784,33347,28313,8991,10232,921,798,874,871,17211,15102,23849,31744,1237,915,681,180,31276,32073,20713,22697,25163,42525,2168,178,7128,8650,13375,20532,65535,65535
153,153,154,157,155,155,152,155,163,163,159,161,160,160,165,164,344,345,340,372,347,345,344,348,2931,2930,2924,2938,2927,2927,2939,2937,789,784,33386,28383,8999,10258,924,798,875,871,17222,15116,23869,31791,1238,913,683,177,31267,32074,20719,22716,25171,42558,2176,189,7127,8651,13378,20539,65535,65535
153,154,155,155,155,152,159,158,162,165,159,165,163,163,157,163,345,345,340,373,346,343,343,347,2923,2925,2921,2935,2928,2927,2941,2941,790,785,33455,28504,9017,10297,923,800,872,873,17243,15156,23899,31891,1242,917,681,180,31255,32101,20733,22749,25180,42593,2167,189,7125,8654,13379,20559,65535,65535
154,151,156,154,156,156,150,155,162,167,159,165,163,167,163,163,342,344,346,375,343,344,346,346,2926,2925,2924,2937,2932,2930,2940,2941,791,788,33532,28622,9035,10335,927,802,878,873,17276,15206,23934,31998,1245,917,684,178,31263,32137,20750,22781,25197,42641,2178,188,7131,8660,13387,20588,65535,65535
154,155,156,154,153,154,156,155,163,166,158,162,163,161,162,164,344,345,340,372,343,344,342,344,2927,2929,2924,2941,2933,2934,2944,2945,793,789,33595,28741,9051,10371,933,805,878,877,17303,15255,23965,32096,1248,919,682,181,31282,32171,20769,22820,25207,42694,2169,187,7131,8667,13399,20614,65535,65535
156,154,155,155,154,155,151,158,159,163,158,162,160,161,161,158,343,346,339,372,346,343,348,344,2936,2934,2931,2949,2938,2941,2951,2957,793,794,33685,28881,9068,10413,932,809,880,879,17343,15305,24007,32207,1251,922,685,179,31305,32224,20791,22863,25227,42753,2181,192,7133,8676,13409,20646,65535,65535
156,155,156,154,155,154,154,155,161,160,159,164,159,162,161,163,344,344,341,371,344,343,345,343,2941,2935,2932,2945,2937,2934,2943,2943,795,794,33687,28793,9045,10322,931,803,883,879,17360,15312,23998,32139,1250,917,685,177,31380,32283,20799,22833,25219,42638,2173,186,7141,8680,13400,20609,65535,65535
154,161,154,154,155,149,154,157,167,164,156,161,163,163,161,164,344,343,341,373,343,347,344,345,2930,2927,2925,2937,2931,2931,2941,2943,788,785,33281,28198,8965,10187,918,794,877,871,17253,15139,23896,31771,1238,911,684,178,31368,32151,20743,22720,25179,42545,2179,188,7134,8653,13365,20499,65535,65535
153,153,155,156,154,153,155,155,162,165,157,162,164,163,162,162,346,343,338,373,344,344,343,344,2930,2932,2926,2940,2932,2935,2945,2946,785,782,33199,28085,8952,10166,921,792,871,870,17171,15029,23830,31580,1232,908,682,180,31315,32076,20725,22678,25163,42489,2165,182,7120,8634,13353,20454,65535,65535
157,153,157,157,154,158,151,153,155,162,159,162,159,161,162,163,343,346,339,372,346,343,344,345,2935,2936,2932,2947,2934,2939,2947,2947,783,779,33147,27997,8941,10146,915,795,868,865,17141,14975,23796,31483,1229,908,684,180,31282,32019,20711,22652,25152,42471,2170,190,7121,8626,13339,20431,65535,65535
153,154,157,156,154,155,155,154,160,163,158,160,165,163,161,164,343,343,340,373,344,343,343,343,2935,2933,2927,2943,2935,2933,2945,2946,781,781,33177,28061,8946,10160,917,793,866,865,17141,14982,23788,31496,1231,908,680,178,31259,32014,20716,22660,25147,42466,2160,183,7116,8625,13339,20434,65535,65535
156,157,154,158,155,154,152,155,160,160,163,160,163,164,163,165,344,345,339,373,342,344,343,346,2934,2936,2930,2948,2937,2937,2946,2946,783,780,33175,28050,8939,10151,915,793,869,865,17142,14978,23781,31487,1230,908,680,179,31255,31993,20714,22654,25149,42463,2166,189,7115,8618,13331,20422,65535,65535
154,154,154,155,154,157,156,156,159,162,163,166,163,159,165,167,344,344,339,371,345,343,343,343,2929,2929,2926,2941,2929,2930,2938,2938,782,783,33194,28110,8950,10180,920,795,867,865,17146,14991,23795,31537,1231,908,680,177,31231,31989,20715,22668,25151,42492,2157,188,7112,8620,13331,20433,65535,65535
153,156,157,153,154,151,158,156,162,161,158,162,161,162,164,163,343,344,338,371,342,343,343,343,2926,2927,2924,2939,2929,2930,2940,2943,782,781,33283,28237,8964,10218,920,799,871,867,17172,15031,23836,31643,1234,911,683,178,31236,32020,20728,22700,25167,42537,2165,187,7113,8620,13341,20456,65535,65535
156,153,154,153,154,154,159,155,165,161,163,162,164,167,159,162,342,343,339,372,342,342,346,344,2930,2929,2928,2943,2935,2938,2949,2950,785,784,33355,28365,8982,10254,925,798,870,869,17205,15089,23866,31753,1239,914,681,178,31235,32050,20747,22736,25178,42583,2161,184,7113,8630,13346,20482,65535,65535
153,156,153,154,157,168,155,154,164,159,164,163,163,163,157,162,342,344,342,375,343,343,344,343,2936,2937,2933,2947,2941,2943,2949,2951,787,786,33435,28490,8999,10296,925,806,875,871,17240,15142,23897,31866,1243,917,685,177,31259,32098,20763,22774,25195,42635,2167,189,7116,8637,13355,20514,65535,65535
155,152,157,152,154,155,154,153,166,162,158,162,162,162,160,163,344,344,340,374,343,343,344,344,2941,2936,2933,2949,2943,2942,2952,2951,789,788,33510,28626,9019,10338,929,804,875,872,17270,15195,23937,31980,1247,919,684,178,31272,32136,20784,22815,25219,42699,2162,189,7119,8649,13365,20542,65535,65535
153,157,156,155,156,155,156,155,162,167,159,164,163,167,163,169,344,343,338,375,344,345,345,347,2941,2943,2942,2957,2953,2957,2975,2979,793,791,33607,28751,9038,10356,928,804,881,876,17307,15247,23965,32060,1246,917,686,178,31302,32193,20806,22843,25230,42693,2173,189,7125,8655,13375,20563,65535,65535
153,154,157,156,154,156,155,154,160,163,159,159,159,165,164,163,347,351,347,380,353,351,352,350,2973,2981,2985,3010,3003,3003,3004,2999,789,788,33291,28172,8950,10159,918,795,879,876,17261,15143,23898,31737,1238,911,685,178,31417,32187,20759,22714,25193,42553,2166,188,7126,8635,13345,20449,65535,65535
155,156,158,154,153,165,159,158,162,162,159,159,167,162,162,166,351,351,341,376,347,345,346,345,2982,2973,2964,2975,2961,2959,2966,2967,779,779,33092,27918,8920,10114,912,791,871,867,17147,14975,23804,31454,1229,907,686,179,31364,32090,20726,22661,25178,42492,2167,190,7118,8616,13326,20383,65535,65535
154,154,157,151,153,154,155,154,162,161,160,166,166,162,163,163,344,345,343,372,344,347,345,343,2952,2951,2944,2960,2951,2951,2962,2962,782,777,33006,27792,8907,10085,913,790,868,864,17089,14888,23757,31317,1226,905,681,177,31311,32011,20717,22620,25159,42438,2152,188,7111,8608,13311,20349,65535,65535
155,154,154,154,156,153,159,157,162,163,160,157,163,162,162,168,341,344,338,374,343,342,343,343,2949,2948,2947,2961,2955,2954,2961,2961,776,774,32981,27777,8905,10088,909,788,863,861,17071,14865,23735,31283,1224,905,683,189,31244,31947,20713,22623,25151,42444,2160,189,7109,8603,13309,20347,65535,65535
152,155,153,152,153,157,158,158,160,161,157,162,163,160,160,163,343,343,341,371,343,343,343,346,2949,2948,2944,2959,2951,2952,2961,2963,778,775,33009,27809,8903,10087,910,789,865,863,17077,14874,23732,31293,1225,906,680,178,31238,31949,20712,22617,25147,42427,2150,190,7107,8598,13305,20339,65535,65535
153,152,156,154,151,154,158,155,164,163,163,161,162,163,159,162,342,343,339,371,342,342,342,345,2949,2949,2945,2959,2953,2950,2959,2958,778,777,33006,27820,8906,10102,910,790,865,863,17082,14882,23736,31311,1226,907,683,179,31222,31927,20705,22619,25148,42436,2156,191,7107,8597,13306,20345,65535,65535
153,153,153,155,154,155,154,156,159,161,162,162,163,165,162,161,343,343,337,373,343,343,343,343,2944,2943,2942,2951,2941,2943,2953,2955,778,775,33063,27929,8922,10138,915,790,867,862,17099,14911,23767,31397,1227,907,681,178,31189,31923,20711,22641,25151,42473,2148,193,7103,8599,13309,20363,65535,65535
156,154,153,153,155,160,154,158,160,163,160,163,159,163,163,160,344,343,339,371,344,343,344,343,2945,2943,2939,2957,2946,2947,2958,2961,778,777,33140,28055,8939,10177,918,790,866,864,17129,14965,23808,31513,1231,907,683,178,31191,31952,20724,22673,25166,42523,2159,187,7105,8605,13320,20389,65535,65535
153,153,153,153,157,155,155,159,162,163,157,161,163,163,163,160,344,344,343,371,343,343,343,345,2944,2942,2936,2953,2944,2943,2951,2952,782,781,33215,28184,8961,10218,919,795,869,867,17165,15023,23839,31633,1234,915,682,177,31200,31987,20735,22707,25182,42561,2151,189,7112,8613,13327,20417,65535,65535
155,154,156,157,153,155,157,155,162,165,161,162,167,161,159,156,339,343,340,371,345,342,344,345,2939,2939,2934,2951,2939,2939,2951,2950,783,782,33291,28311,8974,10254,920,796,870,868,17199,15077,23874,31747,1236,913,685,177,31220,32032,20755,22747,25205,42619,2161,188,7111,8622,13335,20452,65535,65535
156,155,155,155,153,155,156,157,161,163,159,158,169,161,162,163,344,344,338,373,343,344,343,347,2937,2935,2931,2950,2938,2938,2949,2949,784,782,33368,28438,8999,10299,923,800,872,871,17233,15131,23910,31860,1243,916,682,177,31237,32081,20775,22789,25221,42686,2156,190,7116,8631,13354,20487,65535,65535
157,156,155,156,153,155,155,156,159,159,160,161,166,160,163,159,343,344,339,371,346,343,344,344,2938,2936,2929,2945,2933,2935,2940,2937,788,785,33466,28582,9019,10336,926,800,877,872,17275,15191,23945,31970,1241,914,687,178,31261,32134,20799,22831,25241,42719,2166,190,7119,8639,13362,20521,65535,65535
156,154,155,154,157,156,155,155,168,163,159,166,170,161,163,162,344,345,341,371,346,343,342,345,2921,2914,2907,2921,2912,2913,2917,2915,786,784,33287,28167,8949,10160,916,790,877,874,17253,15132,23901,31744,1233,909,686,178,31362,32149,20777,22734,25206,42569,2160,188,7124,8635,13342,20427,65535,65535
157,153,153,155,152,159,155,154,159,164,163,162,164,162,160,161,344,341,342,370,347,341,341,344,2903,2899,2895,2910,2899,2899,2907,2907,777,775,32967,27778,8898,10089,907,782,866,862,17135,14951,23794,31407,1222,899,685,178,31287,32016,20730,22663,25189,42517,2164,189,7112,8610,13322,20359,65535,65535
155,153,155,152,153,155,158,153,163,163,164,161,162,162,160,161,345,343,339,371,342,345,344,343,2897,2893,2894,2906,2899,2899,2909,2909,775,775,32904,27673,8889,10065,905,783,863,857,17077,14863,23737,31258,1220,899,684,177,31253,31957,20712,22624,25173,42465,2151,191,7105,8596,13308,20322,65535,65535
153,155,157,153,153,154,156,156,163,163,160,166,162,167,158,163,339,343,338,370,342,342,343,342,2894,2894,2892,2906,2897,2897,2906,2907,773,769,32873,27643,8883,10067,907,781,860,856,17057,14835,23715,31218,1216,898,683,178,31213,31905,20704,22621,25168,42473,2158,189,7101,8590,13306,20322,65535,65535
155,153,155,153,153,163,157,155,162,160,160,166,164,163,161,160,342,341,336,370,342,344,342,343,2893,2892,2888,2904,2896,2898,2905,2908,775,770,32907,27687,8889,10066,905,783,859,857,17063,14845,23711,31225,1219,895,682,178,31208,31904,20709,22618,25164,42462,2146,193,7098,8589,13304,20318,65535,65535
154,151,153,154,153,153,157,158,162,162,161,160,165,166,160,163,342,344,342,371,343,342,342,343,2895,2894,2891,2907,2898,2899,2908,2904,775,769,32897,27683,8887,10074,906,783,861,859,17063,14851,23715,31236,1217,899,682,179,31188,31889,20703,22619,25165,42463,2157,189,7096,8584,13301,20318,65535,65535
154,154,153,154,156,153,157,159,159,160,159,166,161,165,160,163,341,342,338,370,346,341,341,345,2892,2890,2885,2899,2889,2893,2903,2899,771,770,32947,27778,8900,10104,907,788,860,857,17076,14874,23735,31310,1220,901,681,177,31176,31891,20711,22639,25171,42501,2148,190,7093,8587,13303,20337,65535,65535
153,155,153,157,147,154,157,155,161,164,163,162,161,159,167,160,342,341,342,371,342,343,342,342,2889,2890,2886,2905,2893,2895,2909,2907,773,772,33029,27905,8914,10143,911,788,862,857,17109,14927,23778,31425,1223,904,684,179,31179,31918,20725,22672,25187,42539,2156,189,7097,8592,13315,20365,65535,65535
155,156,153,156,155,151,154,157,162,165,159,160,164,164,165,159,342,341,339,373,341,342,342,343,2896,2895,2892,2909,2899,2899,2907,2909,777,774,33105,28028,8935,10181,914,789,864,861,17142,14985,23809,31539,1229,906,681,179,31183,31954,20740,22707,25203,42589,2152,188,7097,8597,13325,20390,65535,65535
154,153,153,154,155,153,155,156,165,163,162,163,165,161,159,165,341,346,341,371,344,345,343,344,2895,2896,2891,2908,2896,2898,2908,2911,778,776,33175,28148,8951,10214,912,794,865,863,17177,15036,23843,31653,1231,907,684,179,31201,31993,20757,22739,25220,42638,2159,189,7103,8607,13333,20421,65535,65535
154,155,155,154,153,160,147,161,159,160,164,160,165,161,162,164,343,343,337,371,341,345,342,345,2898,2897,2892,2910,2900,2903,2912,2913,780,779,33261,28282,8974,10257,919,796,868,865,17207,15092,23880,31772,1238,911,685,177,31220,32036,20779,22783,25235,42693,2155,190,7105,8615,13346,20451,65535,65535
153,154,156,155,154,156,158,154,164,165,160,162,163,163,144,167,342,343,338,370,343,343,342,343,2898,2895,2894,2912,2901,2899,2911,2909,783,782,33353,28388,8983,10253,917,794,870,869,17245,15143,23903,31825,1238,907,687,178,31246,32085,20799,22805,25251,42674,2164,186,7112,8624,13353,20463,65535,65535
153,153,152,154,155,149,160,156,163,164,159,161,160,165,163,161,346,342,336,370,343,341,342,342,2895,2897,2891,2908,2894,2896,2904,2908,781,777,33008,27794,8898,10077,909,785,871,866,17173,15012,23822,31487,1227,906,685,179,31315,32030,20755,22691,25214,42562,2156,188,7107,8606,13322,20361,65535,65535
155,156,153,156,163,155,157,155,163,161,161,162,166,163,167,164,339,341,337,370,342,345,339,341,2894,2895,2889,2905,2897,2899,2913,2910,773,771,32881,27639,8879,10055,907,785,864,858,17086,14887,23745,31285,1219,902,686,179,31256,31952,20730,22654,25205,42532,2161,189,7098,8591,13312,20325,65535,65535
153,157,153,155,153,150,156,154,163,166,161,162,165,164,161,164,342,340,337,371,341,339,342,341,2901,2902,2900,2914,2902,2902,2913,2914,773,771,32850,27595,8876,10049,907,785,861,857,17056,14844,23711,31204,1221,901,683,179,31229,31905,20718,22633,25196,42516,2150,189,7097,8580,13306,20311,65535,65535
156,154,154,153,153,154,156,153,161,165,158,163,158,160,170,167,341,341,336,369,343,341,341,341,2906,2902,2895,2908,2897,2896,2905,2909,773,770,32886,27670,8879,10065,907,786,860,858,17064,14857,23715,31244,1219,901,686,178,31193,31888,20725,22646,25201,42529,2157,187,7094,8581,13311,20326,65535,65535
153,154,153,154,154,147,157,153,163,163,155,164,165,163,161,167,342,341,338,369,343,341,341,341,2897,2895,2892,2909,2898,2904,2911,2912,773,771,32885,27662,8878,10062,906,784,863,862,17069,14863,23715,31240,1223,898,685,178,31195,31884,20722,22640,25193,42518,2148,190,7092,8581,13310,20321,65535,65535
154,156,154,155,151,155,155,156,163,163,164,159,162,160,165,163,341,341,335,370,341,343,342,341,2899,2899,2895,2910,2899,2898,2908,2909,777,771,32903,27710,8886,10083,910,786,862,859,17079,14874,23726,31293,1221,901,685,177,31180,31871,20723,22652,25199,42553,2158,188,7095,8581,13310,20334,65535,65535
151,156,154,153,155,160,157,153,161,159,162,160,166,159,159,163,341,339,337,369,340,341,342,343,2892,2895,2891,2905,2895,2898,2909,2908,775,772,32985,27843,8911,10127,909,793,863,860,17105,14920,23764,31407,1224,903,685,178,31174,31897,20738,22685,25216,42589,2150,189,7095,8589,13318,20355,65535,65535
156,155,154,153,150,155,155,157,160,161,159,164,166,166,158,163,341,339,336,369,343,341,342,341,2896,2896,2896,2909,2901,2901,2913,2916,775,778,33065,27975,8926,10166,914,790,865,863,17142,14980,23803,31526,1229,905,689,183,31187,31924,20753,22718,25225,42639,2159,193,7097,8593,13330,20391,65535,65535
156,157,157,154,153,158,154,154,163,164,159,163,165,167,161,161,341,341,339,369,341,340,340,343,2901,2902,2898,2916,2907,2909,2917,2922,778,777,33149,28110,8947,10207,917,792,867,865,17180,15041,23839,31654,1236,908,685,179,31203,31969,20775,22754,25247,42692,2152,190,7101,8602,13346,20428,65535,65535
154,154,157,155,155,154,154,155,166,162,160,162,163,160,166,162,342,341,337,373,341,343,341,342,2907,2910,2908,2921,2915,2915,2927,2927,783,779,33242,28243,8972,10245,926,794,870,867,17217,15097,23877,31771,1238,914,687,180,31217,32009,20789,22792,25267,42752,2162,189,7105,8614,13357,20457,65535,65535
156,156,155,157,153,154,158,155,161,166,165,157,162,162,159,163,341,340,336,370,343,342,342,343,2916,2917,2913,2932,2924,2925,2937,2937,784,783,33340,28387,8999,10291,924,799,874,871,17255,15155,23915,31893,1240,915,685,179,31235,32063,20815,22842,25291,42812,2159,189,7109,8622,13373,20501,65535,65535
156,151,152,155,151,156,156,157,159,163,163,161,163,164,162,163,341,341,339,370,342,342,343,343,2927,2929,2925,2940,2929,2929,2936,2938,787,786,33443,28479,9005,10271,926,797,876,874,17295,15200,23936,31924,1243,915,689,178,31268,32121,20832,22849,25297,42770,2167,188,7114,8631,13383,20505,65535,65535
152,155,153,154,153,155,162,155,161,161,156,162,165,159,160,164,341,343,341,370,342,341,344,341,2924,2923,2918,2931,2918,2921,2929,2926,783,779,33020,27789,8900,10071,911,793,873,869,17206,15050,23840,31551,1232,905,686,177,31327,32035,20778,22723,25260,42655,2160,189,7112,8610,13345,20387,65535,65535
152,157,153,158,152,155,155,157,162,161,161,161,166,156,165,164,342,341,339,369,343,342,341,343,2913,2914,2910,2927,2918,2921,2933,2935,775,774,32888,27629,8882,10047,909,787,865,863,17110,14910,23756,31319,1225,903,687,178,31270,31954,20753,22681,25244,42621,2165,189,7105,8597,13331,20356,65535,65535
154,151,156,152,152,157,152,155,163,161,157,162,163,162,158,163,341,342,339,369,341,343,343,340,2923,2924,2923,2938,2930,2929,2939,2939,773,772,32845,27556,8885,10043,908,787,864,861,17073,14857,23723,31220,1223,902,684,178,31237,31894,20737,22651,25234,42590,2152,193,7102,8585,13329,20331,65535,65535
157,155,157,156,152,153,157,155,160,164,159,163,167,170,160,160,342,341,336,367,341,341,341,341,2927,2925,2922,2936,2925,2924,2934,2933,773,776,32875,27629,8892,10067,905,787,864,863,17073,14863,23719,31251,1223,904,687,182,31193,31869,20740,22663,25235,42594,2158,193,7099,8583,13331,20345,65535,65535
156,158,153,154,156,154,155,159,165,163,159,163,160,163,162,161,341,344,335,369,341,340,340,342,2923,2922,2917,2931,2926,2925,2935,2934,774,775,32891,27643,8890,10065,909,787,866,862,17080,14875,23723,31253,1222,903,685,178,31187,31859,20739,22661,25233,42594,2150,187,7096,8581,13326,20343,65535,65535
156,157,153,154,153,157,155,155,164,160,163,159,164,165,162,163,340,340,337,369,342,339,340,341,2923,2925,2918,2931,2924,2925,2930,2931,775,772,32906,27690,8901,10091,906,787,865,861,17094,14894,23733,31306,1226,903,686,178,31173,31844,20739,22667,25233,42618,2159,190,7096,8581,13329,20351,65535,65535
154,154,155,153,155,155,160,155,163,162,163,164,162,162,161,165,343,344,335,367,342,341,342,341,2920,2916,2911,2927,2918,2919,2930,2930,777,777,32987,27831,8926,10135,911,788,867,864,17119,14941,23770,31423,1227,906,687,178,31167,31867,20753,22699,25243,42653,2151,187,7097,8585,13337,20381,65535,65535
156,157,156,153,154,153,155,157,161,160,159,160,162,157,162,163,341,340,335,369,339,342,342,342,2919,2919,2916,2929,2923,2924,2935,2937,778,777,33073,27975,8947,10179,918,793,867,866,17159,15006,23812,31552,1232,910,687,182,31173,31899,20770,22733,25261,42705,2161,188,7100,8595,13350,20414,65535,65535
153,156,154,153,153,153,155,154,161,165,158,161,164,166,163,166,341,340,337,370,341,340,342,341,2923,2925,2923,2936,2928,2928,2937,2939,779,779,33171,28127,8970,10222,921,792,870,868,17199,15067,23850,31683,1238,913,686,178,31183,31942,20787,22771,25277,42762,2155,189,7099,8603,13364,20450,65535,65535
153,158,154,154,157,154,157,156,165,160,156,161,160,175,162,162,342,342,339,368,341,342,340,343,2926,2931,2923,2942,2933,2934,2946,2944,783,782,33264,28270,8995,10261,921,797,875,870,17242,15129,23885,31800,1243,918,688,178,31206,31980,20802,22812,25299,42816,2166,189,7107,8608,13377,20485,65535,65535
153,154,155,154,155,153,155,157,166,166,158,162,163,163,163,163,343,343,337,369,341,341,341,345,2933,2934,2930,2945,2935,2937,2947,2949,785,786,33371,28414,9015,10309,925,799,876,874,17282,15187,23929,31931,1248,918,688,182,31215,32032,20830,22853,25319,42879,2159,189,7110,8620,13397,20527,65535,65535
154,154,153,153,153,153,153,155,167,163,159,166,177,162,166,163,342,343,336,369,342,341,342,339,2938,2939,2937,2949,2944,2947,2955,2953,790,786,33491,28578,9047,10353,929,801,879,878,17323,15247,23971,32052,1248,923,690,180,31251,32092,20852,22902,25347,42927,2169,190,7117,8632,13413,20569,65535,65535
152,155,157,155,153,154,154,154,160,163,159,162,162,166,166,162,341,341,339,369,341,340,341,341,2936,2934,2930,2942,2931,2934,2941,2942,789,785,33368,28230,8983,10173,916,792,879,875,17321,15211,23935,31867,1241,912,687,179,31355,32119,20833,22813,25317,42785,2164,189,7122,8630,13397,20489,65535,65535
153,150,153,153,155,153,155,158,161,162,163,164,167,162,159,163,339,340,336,371,343,339,344,339,2925,2923,2919,2932,2923,2925,2935,2938,780,777,32970,27711,8910,10063,909,787,871,870,17200,15027,23823,31505,1229,904,691,180,31287,31968,20782,22730,25291,42719,2169,189,7113,8602,13365,20411,65535,65535
158,153,153,153,153,157,157,156,166,163,160,162,162,162,161,165,341,341,335,367,342,344,343,340,2925,2925,2922,2937,2929,2932,2941,2941,775,776,32905,27620,8907,10047,908,786,869,865,17123,14930,23760,31341,1226,905,688,178,31243,31904,20767,22689,25276,42673,2157,189,7104,8588,13355,20377,65535,65535
157,151,153,153,155,155,155,158,167,162,163,166,163,157,164,163,341,340,339,370,343,340,340,340,2928,2928,2921,2937,2927,2932,2939,2940,775,773,32863,27587,8902,10066,909,785,867,862,17101,14891,23735,31281,1226,903,687,181,31202,31848,20749,22672,25266,42661,2162,190,7102,8579,13354,20367,65535,65535
156,155,157,157,156,152,155,153,164,162,159,159,161,164,159,163,340,341,337,368,344,339,340,341,2925,2922,2918,2930,2923,2924,2931,2932,774,773,32920,27675,8920,10083,908,786,864,861,17111,14915,23742,31321,1224,904,686,177,31185,31843,20754,22670,25261,42659,2153,189,7101,8580,13357,20383,65535,65535
152,154,154,156,155,154,155,159,165,162,159,162,150,165,158,163,340,341,336,367,339,339,341,341,2919,2920,2917,2931,2921,2920,2927,2929,774,772,32933,27695,8926,10099,907,786,865,862,17122,14932,23750,31350,1229,904,687,181,31179,31827,20749,22663,25270,42667,2161,190,7099,8578,13355,20382,65535,65535
153,154,157,155,156,153,157,155,159,163,159,162,162,164,159,165,337,342,338,368,341,338,340,340,2913,2911,2905,2918,2908,2908,2915,2914,775,776,32951,27777,8944,10132,910,789,865,863,17133,14962,23773,31441,1229,905,685,178,31173,31833,20734,22664,25271,42695,2155,202,7099,8576,13361,20399,65535,65535
157,153,152,152,154,154,155,159,159,162,163,159,167,164,158,162,340,340,337,371,342,339,341,341,2903,2900,2895,2909,2902,2903,2911,2914,776,774,33018,27914,8972,10185,912,789,866,861,17171,15022,23814,31566,1230,906,686,181,31146,31834,20727,22671,25282,42733,2163,189,7099,8583,13371,20433,65535,65535
157,154,157,155,157,154,156,154,166,162,159,161,162,166,163,162,338,337,337,368,344,339,342,340,2903,2901,2897,2913,2906,2906,2916,2915,778,777,33102,28063,8997,10230,917,794,870,866,17212,15086,23857,31707,1237,910,686,178,31131,31842,20733,22698,25288,42767,2155,194,7103,8590,13382,20466,65535,65535
155,157,156,154,154,154,155,155,162,163,159,160,161,160,162,166,340,341,335,368,342,342,341,341,2905,2904,2901,2917,2907,2910,2921,2921,780,780,33191,28199,9024,10277,921,796,873,869,17256,15147,23903,31843,1238,914,687,180,31122,31865,20737,22723,25306,42826,2165,191,7107,8601,13399,20505,65535,65535
153,155,153,154,152,154,154,154,161,166,161,161,163,163,162,164,339,341,336,368,339,340,340,341,2907,2909,2905,2921,2911,2913,2922,2923,784,781,33284,28339,9053,10321,924,796,875,873,17292,15204,23945,31971,1245,915,686,181,31121,31897,20752,22764,25315,42874,2159,191,7106,8613,13410,20544,65535,65535
157,153,155,154,154,154,157,155,162,164,159,159,164,166,161,162,341,341,336,370,341,341,340,345,2914,2913,2911,2925,2915,2918,2929,2927,786,785,33397,28491,9077,10368,927,800,877,874,17339,15261,23995,32103,1249,918,690,179,31135,31943,20783,22815,25334,42926,2171,188,7113,8624,13426,20588,65535,65535
154,152,157,153,157,154,153,155,163,160,159,162,161,164,166,163,344,335,337,370,342,341,341,336,2917,2916,2915,2932,2923,2921,2928,2924,790,785,33529,28659,9109,10403,931,801,880,877,17375,15327,24039,32218,1253,920,688,179,31162,32010,20814,22864,25349,42956,2165,191,7118,8638,13441,20625,65535,65535
156,157,155,153,154,157,155,155,160,162,156,160,159,162,165,163,342,342,337,370,341,338,341,341,2910,2905,2902,2915,2905,2904,2909,2909,788,785,33340,28203,9023,10202,916,790,879,875,17359,15266,23989,32001,1239,915,691,182,31260,32007,20781,22764,25315,42802,2177,190,7125,8631,13419,20532,65535,65535
156,154,154,153,155,155,154,155,166,163,155,161,164,167,158,165,347,346,338,369,341,340,341,341,2897,2893,2890,2903,2895,2891,2900,2904,779,779,32997,27771,8967,10107,912,787,872,869,17243,15109,23888,31691,1233,906,687,177,31190,31887,20738,22690,25285,42737,2163,188,7115,8606,13396,20467,65535,65535
157,154,154,155,152,154,153,155,161,162,156,159,163,161,164,163,341,344,335,370,340,343,340,343,2894,2895,2891,2911,2905,2905,2916,2914,775,775,32958,27715,8960,10098,912,788,869,865,17185,15031,23836,31557,1228,906,688,179,31153,31828,20725,22657,25271,42698,2169,189,7108,8595,13388,20448,65535,65535
154,156,155,157,154,151,158,155,162,164,158,173,161,163,156,156,343,340,339,369,342,341,341,340,2898,2901,2896,2913,2905,2902,2909,2907,776,775,32950,27728,8968,10124,911,791,867,866,17166,15010,23816,31536,1231,906,685,179,31109,31779,20717,22653,25263,42691,2159,191,7107,8591,13391,20451,65535,65535
154,153,156,156,155,153,154,154,165,166,159,162,161,166,165,160,341,347,337,369,340,339,342,343,2893,2892,2890,2905,2895,2897,2907,2907,779,778,33009,27806,8981,10142,914,788,868,865,17180,15034,23831,31573,1231,909,687,178,31107,31780,20726,22663,25265,42680,2169,189,7107,8593,13391,20455,65535,65535
154,157,153,154,154,153,155,154,156,164,159,165,165,162,159,155,339,339,337,368,339,339,340,340,2895,2895,2892,2903,2895,2895,2902,2903,782,772,33012,27823,8987,10161,915,791,867,866,17184,15040,23836,31593,1233,909,685,178,31089,31765,20729,22665,25257,42679,2159,188,7105,8592,13395,20461,65535,65535
153,152,157,155,154,155,157,154,166,165,159,161,164,163,161,168,341,340,335,368,340,339,339,340,2889,2889,2887,2901,2891,2890,2903,2901,780,777,33095,27959,9013,10213,917,793,869,867,17203,15075,23867,31698,1235,910,687,178,31081,31772,20740,22690,25260,42717,2169,189,7106,8594,13398,20484,65535,65535
164,153,151,157,157,157,153,154,159,163,164,159,159,160,160,159,338,344,337,368,343,341,340,340,2889,2887,2889,2902,2894,2897,2904,2905,780,778,33185,28111,9041,10266,924,797,871,869,17241,15137,23909,31823,1241,912,685,178,31079,31798,20755,22722,25274,42752,2162,195,7105,8599,13407,20514,65535,65535
155,154,157,154,155,154,156,155,166,160,159,163,165,159,160,164,340,340,337,370,343,343,343,341,2894,2894,2894,2907,2898,2901,2909,2912,783,783,33295,28269,9065,10310,923,797,873,871,17286,15196,23955,31956,1243,917,690,178,31090,31832,20768,22757,25289,42801,2172,190,7109,8609,13423,20552,65535,65535
153,155,154,157,157,155,155,156,162,159,159,163,161,163,162,163,341,341,337,369,344,340,342,341,2900,2898,2897,2913,2906,2904,2915,2915,789,785,33389,28413,9095,10353,927,800,875,873,17327,15255,23995,32075,1248,919,687,177,31107,31880,20791,22800,25303,42851,2164,192,7116,8621,13433,20590,65535,65535
157,153,152,154,155,154,154,155,159,162,159,162,162,163,160,167,342,341,337,370,341,341,342,341,2903,2906,2904,2921,2910,2912,2921,2923,789,787,33502,28559,9117,10395,930,804,879,875,17364,15310,24041,32202,1253,920,691,178,31129,31925,20822,22849,25329,42922,2175,192,7123,8629,13453,20630,65535,65535
154,157,155,154,154,154,154,155,163,166,151,163,167,163,163,164,339,341,336,369,342,341,341,341,2911,2910,2905,2923,2916,2915,2923,2925,794,791,33621,28725,9146,10437,934,804,882,878,17405,15372,24083,32318,1256,921,688,179,31146,31976,20850,22898,25345,42962,2169,185,7128,8648,13469,20674,65535,65535
153,151,155,157,153,152,156,154,162,167,159,161,160,166,161,166,342,340,337,369,341,340,341,341,2907,2906,2902,2916,2907,2905,2913,2913,792,791,33516,28399,9079,10274,921,799,883,875,17398,15329,24051,32158,1251,917,692,177,31253,31997,20833,22815,25325,42819,2183,190,7132,8642,13451,20594,65535,65535
153,149,154,155,153,154,155,158,161,162,156,164,165,167,162,163,341,341,338,368,341,340,340,344,2899,2897,2893,2906,2899,2898,2908,2909,784,786,33167,27943,9017,10173,918,794,877,873,17309,15198,23961,31882,1241,915,687,178,31195,31878,20792,22746,25293,42765,2171,185,7126,8620,13427,20529,65535,65535
153,153,156,154,154,155,156,155,162,162,159,160,160,163,161,171,339,339,335,369,342,342,340,346,2898,2899,2899,2912,2906,2908,2918,2915,786,778,33166,27932,9014,10167,918,793,875,870,17259,15143,23919,31789,1239,911,689,179,31167,31846,20788,22729,25283,42746,2176,189,7123,8611,13424,20516,65535,65535
154,157,154,157,156,153,157,155,163,167,156,159,159,164,161,170,338,341,340,372,340,339,343,341,2904,2905,2904,2921,2912,2909,2918,2919,785,781,33183,27993,9025,10190,919,796,876,870,17247,15137,23911,31794,1242,913,686,181,31132,31810,20786,22738,25289,42755,2165,188,7123,8614,13425,20533,65535,65535
153,153,169,154,154,155,155,158,162,163,162,162,159,159,158,163,340,340,336,369,341,340,339,339,2904,2906,2903,2919,2913,2915,2925,2925,783,783,33243,28059,9032,10202,919,797,877,872,17266,15161,23928,31839,1241,915,693,177,31138,31822,20790,22743,25289,42751,2177,193,7125,8616,13435,20539,65535,65535
154,153,157,156,157,156,158,156,162,165,158,159,163,159,158,162,339,343,336,369,342,342,340,345,2915,2915,2910,2927,2919,2919,2927,2929,784,781,33249,28079,9038,10214,922,797,872,874,17268,15169,23937,31862,1243,920,686,181,31125,31810,20794,22744,25290,42766,2169,187,7127,8616,13433,20548,65535,65535
153,156,157,155,156,157,159,158,165,163,159,162,163,162,161,168,340,341,336,367,341,340,340,339,2916,2915,2912,2927,2920,2919,2929,2933,787,785,33328,28217,9061,10262,925,799,876,874,17291,15209,23964,31957,1247,918,689,178,31119,31834,20810,22774,25295,42806,2175,189,7127,8622,13441,20576,65535,65535
155,154,152,153,155,157,157,154,163,163,161,162,161,162,159,163,339,341,334,369,341,343,343,340,2918,2918,2915,2929,2921,2924,2934,2934,788,788,33432,28383,9090,10317,927,804,877,875,17327,15264,24008,32077,1249,921,687,179,31121,31861,20827,22809,25315,42855,2169,186,7128,8633,13454,20609,65535,65535
154,157,155,155,154,154,158,157,164,159,160,159,159,162,161,167,340,341,337,369,340,341,340,341,2924,2925,2920,2936,2928,2929,2940,2945,792,788,33541,28543,9113,10366,932,807,881,876,17376,15319,24054,32202,1255,922,691,177,31134,31900,20841,22852,25331,42913,2178,189,7139,8642,13475,20655,65535,65535
153,157,154,154,155,153,158,156,159,167,157,164,166,162,159,163,340,340,335,370,341,341,342,343,2929,2931,2925,2943,2933,2936,2947,2946,795,794,33648,28705,9145,10420,937,812,886,882,17411,15375,24098,32331,1259,927,688,180,31154,31956,20867,22901,25358,42979,2173,189,7139,8657,13489,20696,65535,65535
154,153,156,155,154,153,155,155,165,163,160,160,165,165,165,167,341,343,337,370,343,342,342,342,2936,2939,2935,2951,2942,2945,2956,2956,799,795,33765,28864,9171,10470,940,812,886,883,17452,15435,24147,32459,1261,931,692,179,31191,32015,20892,22947,25382,43050,2184,189,7147,8670,13503,20745,65535,65535
153,154,154,152,153,153,155,159,164,159,158,162,163,163,162,161,341,341,341,369,341,339,341,343,2945,2947,2945,2959,2952,2951,2958,2959,802,800,33888,29024,9203,10511,943,812,893,887,17487,15484,24182,32550,1264,929,692,178,31217,32075,20919,22988,25401,43073,2176,193,7153,8685,13522,20778,65535,65535
153,152,154,155,153,155,158,155,162,163,161,159,167,163,154,160,340,343,338,369,341,341,341,341,2946,2943,2938,2951,2943,2941,2950,2949,800,797,33689,28556,9120,10317,931,802,887,885,17461,15416,24133,32340,1257,923,695,180,31318,32072,20889,22881,25364,42915,2189,190,7159,8676,13496,20682,65535,65535
155,153,154,153,153,156,155,156,163,165,163,161,164,160,161,164,340,341,339,367,340,340,341,342,2936,2939,2934,2947,2940,2940,2949,2951,791,789,33355,28123,9059,10218,927,801,883,880,17376,15292,24037,32079,1251,922,689,179,31251,31949,20841,22804,25337,42857,2174,190,7151,8654,13471,20615,65535,65535
152,154,154,155,152,155,157,156,163,163,158,164,167,162,162,165,342,339,338,370,341,340,340,341,2938,2940,2936,2953,2946,2948,2957,2956,788,789,33332,28093,9054,10206,924,801,881,878,17323,15231,23995,31967,1250,918,690,178,31234,31918,20825,22783,25330,42832,2184,194,7147,8647,13469,20603,65535,65535
155,155,159,157,155,153,156,156,162,162,159,160,165,162,163,164,342,342,338,369,341,339,340,341,2943,2942,2943,2958,2946,2945,2954,2953,789,788,33349,28144,9058,10227,928,801,881,876,17309,15222,23980,31963,1247,919,687,178,31190,31889,20822,22785,25325,42836,2172,189,7148,8647,13472,20615,65535,65535
152,153,157,154,155,155,154,155,162,163,159,162,163,162,164,161,340,341,336,367,341,338,343,342,2941,2939,2938,2955,2947,2949,2957,2958,790,787,33401,28211,9063,10236,927,802,880,877,17323,15239,23988,31993,1247,922,692,181,31203,31899,20826,22783,25330,42834,2181,191,7149,8649,13479,20625,65535,65535
154,156,152,152,152,157,155,158,162,167,159,162,163,161,163,161,340,340,336,367,342,343,339,341,2946,2945,2941,2955,2945,2946,2953,2954,791,787,33407,28239,9071,10251,926,803,881,878,17328,15252,23995,32020,1249,919,688,180,31182,31885,20825,22789,25327,42846,2169,189,7147,8649,13481,20630,65535,65535
154,154,157,156,155,154,155,154,162,165,160,162,163,161,165,163,343,340,334,368,339,340,341,340,2937,2937,2935,2950,2940,2940,2951,2952,791,788,33490,28380,9090,10302,931,805,883,879,17353,15285,24029,32113,1251,921,690,178,31177,31898,20841,22821,25335,42888,2181,188,7151,8658,13489,20664,65535,65535
153,154,155,157,154,153,155,155,159,163,158,158,163,162,166,167,339,340,337,368,339,339,340,339,2938,2938,2937,2953,2943,2943,2954,2954,793,792,33591,28548,9120,10355,933,806,883,879,17388,15339,24067,32227,1256,920,690,179,31174,31935,20857,22865,25350,42937,2175,191,7153,8666,13502,20699,65535,65535
157,155,154,155,154,155,155,156,160,162,164,163,163,162,161,156,340,341,335,367,341,340,340,341,2941,2943,2937,2955,2942,2943,2953,2953,796,793,33699,28713,9144,10408,936,809,884,880,17426,15395,24117,32353,1261,928,691,177,31198,31986,20877,22900,25371,42997,2183,190,7161,8677,13519,20739,65535,65535
154,156,154,154,156,157,156,154,163,167,163,164,163,162,160,163,343,341,337,367,341,344,344,340,2941,2944,2941,2956,2948,2950,2961,2959,798,796,33799,28875,9178,10464,940,815,888,885,17465,15451,24157,32478,1262,929,691,181,31215,32033,20899,22949,25393,43066,2175,190,7163,8689,13532,20782,65535,65535
148,154,157,154,157,154,153,155,163,165,156,158,163,159,163,177,340,335,339,368,341,341,341,342,2949,2951,2948,2965,2957,2958,2969,2965,803,801,33918,29049,9206,10517,945,813,889,884,17507,15508,24205,32598,1265,929,693,177,31255,32103,20925,22998,25417,43121,2188,193,7171,8703,13552,20826,65535,65535
153,154,158,154,156,154,155,153,163,163,159,162,164,166,165,163,340,342,337,367,345,339,340,341,2951,2948,2942,2960,2951,2951,2960,2960,802,800,33870,28837,9165,10392,933,807,889,887,17504,15479,24188,32482,1260,926,691,178,31343,32144,20917,22934,25392,42969,2182,188,7179,8708,13539,20767,65535,65535
153,153,156,154,154,153,157,158,163,156,160,160,163,162,152,165,340,339,336,368,341,340,341,340,2947,2945,2944,2957,2950,2949,2959,2963,797,794,33444,28233,9075,10239,926,801,885,882,17419,15353,24089,32187,1255,920,693,179,31301,32004,20859,22824,25361,42888,2188,192,7173,8679,13507,20677,65535,65535
152,154,156,154,154,155,156,156,162,163,159,163,162,165,165,159,339,340,339,367,338,339,339,342,2948,2946,2944,2959,2948,2949,2960,2962,789,788,33387,28167,9061,10214,925,799,881,876,17350,15272,24027,32045,1251,920,688,177,31258,31959,20839,22799,25342,42852,2174,193,7167,8671,13500,20654,65535,65535
157,155,153,155,157,153,155,154,162,163,159,164,162,161,167,163,340,349,335,367,339,339,343,339,2951,2948,2945,2958,2953,2951,2959,2957,787,786,33365,28167,9061,10223,926,799,878,877,17329,15249,24007,32011,1246,920,690,177,31230,31916,20825,22782,25332,42845,2182,190,7164,8667,13500,20653,65535,65535
153,154,163,153,155,156,155,156,163,163,158,162,169,158,160,163,339,341,337,367,339,339,339,341,2943,2943,2937,2954,2945,2945,2954,2955,788,789,33430,28258,9074,10244,925,801,878,879,17337,15266,24009,32034,1248,918,688,178,31217,31923,20830,22789,25337,42841,2173,187,7165,8671,13504,20665,65535,65535
154,153,152,157,155,157,154,155,165,163,162,161,166,161,158,161,338,339,334,367,343,340,341,339,2939,2940,2935,2953,2940,2939,2947,2946,790,787,33435,28283,9071,10253,926,800,881,877,17347,15274,24015,32051,1248,918,689,177,31218,31913,20826,22785,25331,42845,2182,190,7167,8673,13506,20668,65535,65535
155,153,155,154,153,154,155,157,161,162,159,162,177,163,163,160,339,340,335,370,339,340,340,341,2933,2932,2926,2942,2931,2931,2939,2941,788,789,33486,28388,9090,10295,929,803,877,876,17354,15300,24033,32121,1250,918,688,178,31205,31930,20837,22810,25335,42882,2174,188,7167,8671,13515,20691,65535,65535
157,156,154,154,154,153,156,155,160,161,156,158,165,162,165,164,339,341,342,368,341,339,343,346,2927,2926,2923,2936,2927,2927,2938,2937,791,788,33590,28550,9117,10349,929,804,879,877,17390,15348,24073,32232,1251,921,689,179,31213,31961,20849,22850,25347,42923,2183,191,7171,8679,13525,20726,65535,65535
155,153,155,154,155,155,155,158,162,163,161,162,159,163,163,159,339,341,335,366,341,342,340,341,2923,2925,2923,2938,2926,2925,2934,2935,794,793,33683,28710,9150,10406,933,806,881,880,17430,15402,24121,32350,1257,921,689,178,31225,32011,20871,22888,25369,42983,2175,188,7173,8690,13535,20764,65535,65535
153,153,154,155,154,154,156,157,162,161,159,161,167,163,158,163,346,341,336,368,342,339,339,341,2922,2918,2914,2930,2921,2921,2933,2932,796,792,33782,28863,9174,10455,938,813,883,880,17469,15457,24163,32477,1258,925,694,175,31250,32062,20890,22927,25385,43038,2186,191,7175,8704,13551,20806,65535,65535
158,151,153,155,154,156,156,154,166,161,159,161,160,162,161,164,341,341,337,369,340,342,343,340,2919,2916,2915,2930,2917,2919,2933,2931,797,796,33884,29026,9205,10512,940,812,886,881,17509,15513,24211,32595,1262,924,693,178,31273,32125,20917,22979,25406,43099,2179,190,7181,8715,13567,20849,65535,65535
157,153,154,157,155,155,156,156,159,162,156,162,160,163,174,162,341,342,333,368,342,343,343,345,2917,2912,2906,2919,2906,2907,2915,2916,799,797,33951,29047,9201,10465,935,807,886,886,17528,15530,24223,32579,1257,924,693,181,31346,32201,20929,22967,25402,43007,2189,191,7186,8722,13575,20834,65535,65535
153,153,157,154,155,153,155,155,162,163,157,164,155,163,165,166,341,341,339,368,342,338,339,339,2900,2897,2892,2907,2896,2896,2907,2905,791,790,33510,28349,9098,10269,923,797,881,881,17458,15402,24135,32284,1250,915,687,179,31358,32083,20872,22839,25354,42891,2179,188,7184,8697,13531,20723,65535,65535
154,154,153,155,154,153,158,154,165,165,164,161,159,163,159,167,340,341,339,367,342,341,341,341,2893,2893,2889,2907,2895,2899,2909,2912,787,786,33393,28219,9074,10241,922,799,877,875,17389,15313,24059,32111,1247,916,691,177,31315,32025,20842,22804,25338,42853,2182,191,7179,8684,13523,20693,65535,65535
152,153,156,153,155,152,155,154,160,162,157,164,170,162,162,162,340,341,339,367,342,340,340,341,2899,2899,2895,2911,2902,2904,2916,2915,785,785,33370,28198,9078,10240,925,799,876,874,17351,15274,24035,32051,1248,914,686,179,31288,31985,20828,22790,25327,42840,2173,190,7175,8680,13519,20685,65535,65535
157,151,155,155,153,155,156,155,162,162,159,162,163,163,158,166,342,339,336,367,343,339,340,341,2902,2900,2895,2907,2898,2902,2911,2910,786,784,33427,28288,9087,10265,924,799,875,872,17350,15290,24035,32074,1245,916,691,180,31274,31991,20833,22797,25325,42836,2182,189,7175,8683,13524,20695,65535,65535
157,153,155,155,154,153,156,155,163,163,159,158,166,161,162,166,339,340,336,371,342,339,340,340,2899,2899,2895,2914,2901,2902,2913,2911,785,785,33420,28289,9088,10265,926,799,875,871,17351,15287,24034,32072,1245,917,692,177,31260,31975,20833,22786,25317,42827,2172,191,7177,8681,13525,20689,65535,65535
157,156,155,153,152,157,156,154,160,161,158,163,168,163,156,160,340,341,335,369,341,340,343,341,2898,2900,2890,2905,2895,2896,2903,2903,786,783,33450,28365,9100,10295,925,799,876,872,17359,15301,24047,32120,1245,917,690,178,31244,31972,20827,22801,25321,42849,2180,189,7175,8680,13527,20709,65535,65535
153,154,154,154,156,157,155,154,162,163,160,162,162,161,165,164,340,339,337,367,342,343,340,341,2887,2891,2885,2899,2890,2891,2900,2899,788,788,33538,28503,9126,10344,929,801,876,875,17384,15338,24083,32216,1250,918,687,179,31242,32005,20845,22833,25329,42890,2172,189,7177,8689,13533,20733,65535,65535
155,157,155,151,153,154,156,155,162,159,155,162,164,161,167,163,341,341,337,368,341,340,342,341,2885,2884,2880,2893,2886,2886,2893,2892,788,788,33627,28651,9147,10392,931,803,878,873,17415,15391,24123,32329,1251,919,690,179,31249,32038,20860,22868,25341,42935,2180,189,7181,8699,13546,20765,65535,65535
157,154,154,155,154,153,156,155,165,160,161,164,163,163,165,164,340,341,335,370,341,336,341,343,2880,2876,2875,2888,2879,2880,2891,2888,791,790,33713,28787,9174,10438,932,806,880,876,17452,15437,24162,32438,1256,918,690,178,31258,32079,20876,22906,25363,42985,2175,189,7184,8711,13555,20802,65535,65535
152,152,155,157,155,155,155,155,162,161,159,161,165,161,159,160,341,342,337,369,345,344,341,337,2877,2878,2875,2892,2881,2883,2893,2894,793,793,33817,28941,9195,10486,934,807,883,877,17489,15491,24206,32553,1258,922,694,182,31282,32127,20898,22955,25377,43047,2186,191,7191,8721,13570,20840,65535,65535
153,155,153,154,153,156,155,155,161,166,159,162,163,161,165,165,341,343,336,368,341,346,340,342,2879,2880,2874,2887,2874,2875,2884,2884,796,793,33853,28936,9188,10431,930,801,882,880,17507,15506,24219,32536,1257,918,691,180,31343,32197,20910,22933,25373,42947,2177,189,7196,8727,13570,20819,65535,65535
155,154,157,157,153,153,155,155,165,164,159,161,167,163,162,160,340,339,336,368,340,341,341,346,2871,2869,2869,2882,2873,2876,2886,2885,790,788,33439,28292,9091,10262,922,795,881,876,17429,15375,24126,32241,1248,917,691,179,31347,32075,20854,22819,25332,42847,2185,191,7195,8706,13535,20717,65535,65535
156,154,153,154,153,155,153,157,161,161,159,161,163,161,162,163,340,341,335,369,342,343,343,343,2875,2875,2873,2888,2881,2883,2894,2897,785,782,33363,28219,9079,10245,922,797,874,870,17357,15289,24062,32091,1246,913,687,178,31296,32026,20833,22797,25317,42821,2173,189,7184,8697,13522,20689,65535,65535
156,153,156,153,155,153,155,156,160,166,160,161,164,156,159,165,341,341,336,368,342,343,345,345,2883,2883,2882,2895,2891,2891,2897,2896,784,784,33374,28242,9079,10252,921,797,873,871,17331,15266,24043,32056,1243,912,689,178,31274,31999,20830,22795,25309,42816,2179,193,7187,8695,13523,20694,65535,65535
156,156,154,152,154,153,153,155,163,165,160,161,165,163,161,162,342,341,337,371,344,347,343,343,2883,2882,2878,2895,2887,2886,2897,2897,785,783,33422,28322,9085,10265,925,798,873,868,17335,15279,24045,32084,1243,912,689,179,31263,32012,20833,22798,25310,42816,2170,190,7185,8696,13527,20697,65535,65535
152,154,152,157,155,154,155,154,163,162,163,162,162,163,162,159,343,345,337,369,343,343,343,344,2884,2886,2879,2897,2886,2887,2895,2894,785,783,33421,28313,9082,10264,921,797,872,870,17335,15272,24045,32077,1242,914,691,178,31253,31998,20829,22794,25306,42816,2182,189,7187,8697,13527,20696,65535,65535
152,155,155,154,155,154,157,155,159,160,163,161,166,162,164,167,342,343,338,370,342,340,342,343,2879,2879,2876,2891,2880,2878,2888,2888,785,785,33461,28406,9096,10300,926,795,872,869,17334,15286,24055,32127,1241,911,686,178,31237,31999,20831,22810,25307,42843,2172,193,7185,8700,13527,20709,65535,65535
154,154,160,153,154,155,156,155,164,165,159,161,161,159,162,162,341,342,339,370,342,342,342,345,2873,2873,2871,2887,2876,2878,2887,2889,788,785,33558,28550,9117,10352,927,799,873,871,17355,15319,24093,32224,1245,914,689,178,31233,32030,20847,22847,25322,42887,2180,194,7190,8706,13534,20738,65535,65535
159,153,151,151,153,155,156,155,161,159,159,161,165,166,158,164,341,343,339,370,343,340,342,343,2875,2873,2871,2883,2877,2878,2889,2888,789,787,33637,28685,9138,10389,930,803,873,870,17388,15369,24126,32329,1247,915,691,177,31237,32063,20870,22885,25337,42938,2173,190,7191,8715,13540,20770,65535,65535
153,153,154,154,153,155,154,156,165,167,163,165,166,179,162,165,342,343,338,371,343,344,343,341,2875,2871,2869,2885,2877,2876,2891,2890,792,791,33729,28826,9156,10436,936,807,877,874,17419,15415,24160,32434,1253,920,691,175,31247,32103,20887,22932,25357,43006,2184,191,7201,8731,13552,20796,65535,65535
156,156,156,153,155,157,158,159,164,170,159,157,166,159,160,162,345,345,338,373,349,343,343,346,2881,2883,2878,2894,2887,2890,2900,2896,793,793,33830,28988,9185,10482,936,807,879,877,17450,15468,24198,32541,1257,920,691,181,31260,32151,20915,22977,25378,43055,2175,190,7207,8742,13564,20843,65535,65535
155,157,156,153,155,157,155,157,162,163,158,160,156,158,164,164,344,345,338,373,343,342,343,341,2883,2882,2879,2893,2885,2886,2894,2898,795,793,33778,28772,9141,10356,930,802,879,874,17460,15451,24185,32429,1249,912,692,177,31369,32210,20910,22916,25361,42920,2187,190,7213,8743,13555,20779,65535,65535
154,154,154,154,153,155,157,155,163,163,162,161,163,162,159,167,347,341,339,371,343,346,343,343,2879,2880,2877,2890,2882,2884,2893,2893,787,787,33380,28239,9065,10235,921,795,878,871,17364,15307,24085,32127,1242,911,690,178,31325,32085,20853,22823,25328,42846,2174,189,7202,8717,13525,20699,65535,65535
153,157,153,155,154,153,155,157,162,161,163,162,161,167,159,164,343,342,341,370,347,342,343,338,2881,2886,2880,2898,2889,2892,2899,2901,784,783,33349,28203,9056,10228,921,798,871,864,17301,15231,24029,31997,1239,906,691,178,31303,32062,20839,22806,25313,42826,2179,191,7198,8705,13516,20683,65535,65535
154,155,153,156,154,154,154,153,162,163,162,158,167,163,162,163,344,341,338,370,341,343,343,344,2886,2887,2886,2903,2893,2891,2898,2898,786,786,33362,28242,9067,10248,925,798,871,866,17288,15223,24018,31987,1241,911,688,178,31271,32046,20842,22809,25309,42833,2168,191,7193,8705,13523,20691,65535,65535
152,152,154,152,152,155,158,155,161,163,156,165,163,162,161,163,342,345,339,370,343,343,339,343,2887,2886,2883,2901,2891,2894,2902,2902,785,782,33403,28302,9072,10259,923,797,871,867,17305,15241,24021,32010,1239,911,693,178,31287,32062,20839,22810,25307,42821,2179,190,7193,8708,13523,20700,65535,65535
153,156,153,153,153,153,158,157,163,160,160,162,166,162,153,161,342,342,339,370,342,341,343,343,2891,2891,2889,2903,2892,2893,2903,2904,785,779,33400,28299,9072,10266,922,798,871,869,17303,15245,24019,32013,1240,911,688,177,31273,32051,20835,22808,25304,42835,2170,189,7197,8707,13524,20695,65535,65535
154,152,155,152,156,153,157,159,165,162,162,164,160,165,161,163,342,344,341,369,343,342,341,342,2890,2887,2883,2898,2890,2891,2901,2900,787,784,33471,28420,9091,10310,925,800,872,869,17322,15271,24045,32086,1243,917,691,180,31265,32073,20844,22836,25309,42868,2177,190,7196,8709,13527,20715,65535,65535
153,154,154,152,154,152,158,157,162,163,165,162,166,161,163,163,347,343,338,370,341,340,345,343,2888,2887,2887,2901,2891,2894,2904,2907,789,786,33562,28569,9115,10363,928,801,874,870,17351,15317,24085,32199,1247,915,688,179,31267,32109,20859,22869,25328,42920,2168,192,7197,8717,13535,20746,65535,65535
153,153,153,154,157,157,154,158,165,162,159,159,161,163,165,162,342,343,338,371,343,342,342,343,2893,2893,2892,2903,2897,2898,2906,2906,791,789,33655,28702,9138,10408,933,805,877,873,17387,15371,24119,32305,1249,920,693,179,31287,32154,20877,22913,25342,42970,2180,189,7202,8729,13547,20780,65535,65535
153,154,154,154,156,157,155,155,162,163,159,161,159,161,161,165,343,345,340,369,346,343,343,343,2897,2895,2894,2907,2901,2902,2910,2912,795,792,33748,28852,9163,10453,935,807,879,875,17426,15423,24162,32422,1254,921,693,177,31300,32199,20896,22954,25360,43035,2171,188,7207,8739,13555,20817,65535,65535
154,152,156,154,153,154,154,155,164,163,160,163,163,165,165,163,342,343,339,370,345,345,346,342,2900,2901,2898,2918,2908,2909,2918,2918,799,795,33863,29018,9188,10494,941,811,883,879,17467,15479,24201,32530,1255,923,692,175,31330,32261,20922,23000,25383,43081,2184,190,7211,8750,13570,20855,65535,65535
148,154,154,152,155,153,158,155,162,162,158,163,160,166,168,166,343,344,339,369,340,341,343,342,2902,2901,2898,2909,2902,2902,2913,2911,801,798,33721,28665,9118,10323,928,800,882,878,17457,15433,24167,32350,1252,917,691,178,31435,32291,20904,22915,25356,42916,2175,189,7217,8747,13555,20773,65535,65535
152,153,154,166,153,155,155,157,162,163,158,162,160,163,161,162,343,347,337,369,345,342,343,342,2898,2897,2893,2911,2900,2901,2912,2914,787,784,33355,28182,9051,10214,923,797,878,873,17352,15275,24057,32027,1238,913,693,179,31382,32165,20850,22833,25322,42852,2185,189,7208,8721,13523,20696,65535,65535
152,154,156,152,154,153,154,157,161,162,159,161,166,164,165,167,341,343,343,370,337,341,344,343,2900,2902,2900,2916,2908,2911,2922,2923,787,783,33311,28120,9043,10199,923,796,872,869,17283,15192,23999,31870,1241,911,688,178,31350,32125,20833,22797,25308,42813,2168,194,7203,8712,13516,20667,65535,65535
148,153,156,154,156,154,157,155,165,162,159,159,159,165,162,167,343,349,338,373,342,342,342,343,2908,2910,2905,2921,2915,2914,2923,2923,782,782,33297,28113,9045,10219,921,799,873,868,17262,15165,23977,31835,1238,911,690,179,31314,32088,20825,22797,25304,42813,2176,190,7200,8708,13514,20666,65535,65535
155,154,154,155,153,158,156,155,165,163,155,161,163,159,162,166,341,348,338,369,343,343,342,342,2911,2909,2905,2924,2913,2916,2923,2924,785,783,33345,28184,9055,10236,922,796,874,869,17268,15179,23980,31847,1239,911,690,178,31314,32106,20824,22799,25298,42808,2165,190,7197,8709,13511,20665,65535,65535
153,156,157,154,157,154,155,156,162,161,159,161,162,161,159,163,343,342,338,369,340,344,338,346,2911,2913,2910,2924,2913,2916,2927,2923,787,783,33356,28207,9060,10262,923,798,873,869,17270,15185,23975,31861,1237,911,693,179,31299,32088,20829,22794,25293,42814,2177,188,7197,8711,13511,20672,65535,65535
157,157,157,153,153,153,156,155,167,166,157,163,163,163,166,180,343,343,339,370,339,341,342,342,2911,2911,2907,2920,2911,2913,2922,2923,786,783,33428,28332,9087,10315,926,799,874,870,17289,15209,24006,31938,1241,912,689,180,31284,32109,20830,22826,25300,42857,2166,191,7200,8712,13515,20693,65535,65535
147,156,155,153,154,153,158,155,163,162,156,166,162,165,161,161,342,342,337,370,343,342,343,341,2910,2911,2908,2923,2914,2917,2925,2925,789,786,33532,28483,9106,10365,928,799,875,871,17323,15265,24040,32053,1246,915,692,178,31294,32143,20844,22859,25315,42895,2177,190,7199,8713,13525,20718,65535,65535
163,157,155,157,153,153,157,155,166,166,158,158,163,162,153,164,349,344,336,370,346,343,344,342,2914,2914,2909,2925,2913,2915,2925,2926,790,788,33615,28625,9133,10406,931,802,878,875,17365,15323,24077,32173,1249,917,690,181,31303,32179,20858,22893,25332,42943,2167,189,7203,8725,13534,20751,65535,65535
154,155,156,155,155,157,155,158,159,165,159,161,162,162,165,163,342,342,338,370,344,346,342,342,2911,2910,2909,2924,2915,2917,2927,2929,793,791,33709,28762,9149,10446,936,807,878,877,17401,15377,24119,32284,1251,921,691,179,31318,32223,20881,22941,25347,43003,2177,192,7207,8737,13544,20788,65535,65535
154,152,154,153,154,154,154,156,163,162,157,162,167,163,163,163,345,343,339,369,343,340,345,345,2914,2915,2914,2930,2921,2923,2935,2939,797,797,33795,28912,9173,10490,941,810,879,878,17440,15427,24159,32404,1257,925,691,179,31343,32281,20906,22985,25371,43062,2170,190,7211,8747,13564,20829,65535,65535
155,154,157,155,157,154,153,155,158,163,159,162,163,160,162,162,343,341,337,369,343,345,343,344,2927,2920,2915,2927,2915,2916,2928,2925,796,795,33821,28835,9143,10393,932,801,882,880,17462,15441,24163,32350,1252,921,694,179,31413,32349,20907,22949,25361,42939,2182,190,7218,8753,13558,20790,65535,65535
153,157,153,154,154,155,154,154,159,166,159,161,162,165,163,160,344,340,337,369,344,341,343,342,2913,2913,2907,2924,2911,2914,2922,2925,788,784,33352,28153,9047,10217,920,796,879,873,17355,15269,24048,31978,1241,912,690,182,31408,32212,20844,22829,25317,42845,2173,190,7213,8723,13518,20681,65535,65535
155,155,154,153,154,156,155,155,161,165,159,165,161,162,161,167,343,343,339,371,341,341,346,344,2914,2914,2915,2931,2925,2927,2941,2937,783,783,33263,28029,9025,10195,918,794,871,869,17263,15148,23970,31753,1235,908,690,178,31359,32136,20821,22786,25297,42799,2177,191,7205,8708,13501,20633,65535,65535
157,153,153,155,154,154,155,157,165,169,158,161,164,160,165,162,343,343,339,373,344,344,343,345,2929,2931,2927,2941,2933,2935,2945,2950,780,780,33212,27959,9024,10194,918,793,870,866,17216,15087,23931,31655,1233,906,689,180,31318,32079,20805,22760,25287,42774,2163,190,7201,8701,13492,20612,65535,65535
155,157,154,153,154,156,158,155,163,159,159,164,158,162,161,163,343,344,339,371,345,344,343,344,2933,2932,2928,2945,2930,2931,2941,2942,781,780,33274,28051,9037,10227,918,795,871,864,17217,15092,23935,31676,1233,906,691,178,31293,32075,20810,22767,25289,42771,2171,189,7200,8702,13494,20617,65535,65535
155,154,151,155,157,153,155,156,163,159,161,160,161,162,161,164,344,347,338,371,349,343,347,345,2928,2928,2923,2939,2928,2927,2937,2938,782,779,33282,28062,9041,10234,921,791,867,865,17216,15092,23931,31679,1234,906,687,178,31285,32060,20805,22764,25283,42765,2159,190,7198,8701,13485,20609,65535,65535
153,153,157,153,157,152,154,157,162,166,158,165,163,166,165,163,346,343,340,372,347,349,345,345,2925,2922,2921,2932,2925,2920,2930,2929,781,780,33329,28139,9049,10264,920,793,867,866,17222,15108,23945,31738,1233,906,693,174,31270,32055,20815,22784,25285,42798,2167,189,7198,8699,13487,20617,65535,65535
154,153,154,154,155,156,157,157,162,162,160,162,165,162,159,161,345,345,342,375,346,347,347,351,2915,2914,2913,2927,2918,2921,2934,2934,783,781,33436,28292,9068,10312,922,796,868,865,17247,15153,23989,31855,1237,909,687,179,31264,32082,20836,22824,25303,42836,2159,192,7198,8703,13493,20646,65535,65535
156,154,155,154,156,154,155,155,169,165,156,163,163,163,160,162,346,346,344,377,343,357,348,349,2918,2918,2913,2927,2919,2920,2929,2930,786,784,33526,28433,9090,10349,925,798,869,868,17282,15205,24029,31975,1239,911,690,180,31287,32123,20858,22863,25318,42885,2169,193,7197,8708,13501,20671,65535,65535
156,156,153,155,156,153,155,153,165,164,155,162,162,166,166,163,347,348,347,374,348,346,346,349,2918,2917,2915,2929,2918,2919,2928,2930,786,784,33620,28575,9111,10394,926,802,872,869,17313,15262,24066,32092,1244,914,690,178,31303,32175,20881,22907,25342,42942,2162,190,7202,8718,13509,20705,65535,65535
154,151,155,155,154,153,155,153,162,163,155,161,162,165,165,166,349,349,343,380,351,346,348,347,2917,2919,2915,2931,2921,2925,2933,2934,789,787,33715,28719,9127,10435,932,804,873,871,17350,15317,24107,32215,1247,915,693,179,31336,32234,20901,22956,25355,43010,2171,190,7204,8729,13526,20739,65535,65535
154,152,154,155,153,155,155,155,157,164,164,160,163,163,161,167,350,347,342,378,347,348,352,347,2922,2922,2920,2933,2924,2923,2931,2927,793,791,33817,28876,9153,10471,933,802,877,877,17393,15372,24141,32317,1251,916,693,178,31360,32294,20934,23000,25377,43026,2165,189,7207,8739,13532,20767,65535,65535
153,156,155,153,154,156,158,154,162,159,162,162,162,162,161,166,346,346,342,375,341,346,345,346,2913,2910,2905,2923,2912,2913,2921,2922,791,788,33583,28369,9062,10263,918,795,876,872,17365,15302,24093,32065,1241,909,694,178,31481,32297,20901,22888,25341,42868,2180,191,7215,8726,13509,20667,65535,65535
154,154,156,153,158,154,158,159,162,163,159,165,159,166,157,161,346,346,339,373,346,346,346,346,2907,2903,2899,2913,2904,2905,2915,2917,784,781,33286,28006,9015,10190,915,789,868,865,17243,15124,23980,31735,1231,904,687,178,31417,32179,20857,22816,25318,42805,2162,189,7199,8700,13480,20595,65535,65535
154,157,154,158,154,153,157,158,161,165,159,161,166,166,162,163,347,345,341,373,346,346,346,345,2900,2900,2897,2914,2903,2905,2915,2914,777,777,33234,27913,9011,10178,913,788,863,859,17187,15039,23925,31576,1227,903,692,178,31390,32128,20833,22774,25294,42747,2167,190,7194,8687,13468,20555,65535,65535
155,152,155,153,154,156,152,157,165,162,157,161,166,161,163,163,345,346,341,375,346,345,345,347,2900,2899,2896,2910,2903,2903,2911,2909,777,773,33217,27911,9017,10197,912,789,863,855,17165,15010,23894,31541,1226,902,690,178,31352,32081,20829,22766,25281,42743,2155,190,7189,8675,13461,20550,65535,65535
154,158,158,152,155,154,155,157,163,162,160,165,158,161,159,164,345,344,341,374,346,345,347,345,2894,2894,2890,2901,2891,2892,2902,2902,776,777,33263,27956,9022,10203,911,787,861,859,17174,15020,23906,31553,1224,902,689,178,31351,32089,20823,22757,25279,42727,2165,194,7187,8672,13460,20545,65535,65535
156,153,153,154,157,157,157,154,165,163,159,165,159,162,159,163,345,348,341,374,345,347,345,346,2892,2890,2885,2899,2891,2891,2898,2897,776,775,33254,27956,9025,10215,913,789,862,856,17167,15017,23903,31563,1224,900,689,178,31332,32063,20820,22755,25277,42727,2152,189,7180,8667,13453,20534,65535,65535
155,151,153,156,154,157,155,155,161,165,155,161,166,162,158,165,345,344,341,373,346,347,345,345,2883,2882,2876,2895,2881,2882,2891,2890,775,776,33323,28063,9039,10250,914,790,860,857,17184,15048,23930,31647,1226,901,687,178,31319,32069,20819,22776,25274,42754,2157,193,7180,8670,13457,20552,65535,65535
154,155,156,155,153,153,155,156,162,160,160,162,165,163,161,165,345,343,339,373,345,343,348,346,2878,2880,2875,2890,2880,2883,2893,2891,780,774,33401,28191,9058,10290,917,791,863,859,17214,15101,23968,31759,1233,904,687,178,31316,32094,20839,22801,25286,42791,2152,190,7179,8671,13463,20573,65535,65535
154,156,155,154,153,153,158,155,163,166,154,162,166,164,161,162,347,344,341,374,345,341,345,345,2881,2878,2875,2894,2880,2884,2895,2894,779,778,33488,28319,9079,10333,918,792,864,863,17257,15156,24005,31882,1235,906,692,178,31322,32129,20853,22835,25304,42834,2164,191,7178,8677,13468,20602,65535,65535
154,154,154,155,157,157,154,154,161,159,160,162,159,159,164,163,345,345,341,374,346,345,345,345,2881,2881,2879,2893,2885,2886,2894,2893,782,778,33561,28439,9096,10364,919,794,867,863,17290,15209,24041,31991,1237,907,689,179,31331,32163,20867,22867,25317,42885,2154,190,7183,8683,13476,20627,65535,65535
156,153,154,154,156,154,155,156,163,162,157,162,163,166,163,161,347,349,345,373,344,342,344,348,2881,2879,2876,2899,2885,2883,2893,2894,783,783,33638,28564,9116,10405,927,796,867,867,17328,15259,24080,32099,1240,909,688,179,31347,32199,20884,22906,25334,42939,2168,194,7187,8693,13487,20659,65535,65535
154,154,154,154,154,152,155,157,161,162,163,165,165,163,165,160,348,345,338,374,345,344,341,345,2887,2880,2877,2891,2884,2887,2898,2897,787,786,33740,28710,9139,10443,926,798,873,867,17366,15313,24120,32212,1244,911,689,177,31363,32251,20905,22954,25358,42986,2157,188,7190,8702,13502,20696,65535,65535
152,156,157,154,157,156,158,156,163,162,159,162,161,163,161,163,345,344,340,372,345,343,341,344,2882,2882,2876,2889,2880,2881,2887,2885,787,783,33658,28435,9083,10294,916,788,873,867,17370,15289,24093,32065,1239,908,694,179,31484,32306,20896,22877,25331,42843,2173,188,7192,8697,13486,20623,65535,65535
153,152,154,152,157,153,155,156,162,159,156,161,161,162,162,165,347,345,341,371,346,341,342,341,2871,2870,2866,2880,2872,2871,2881,2883,779,773,33270,27924,9020,10188,912,786,868,860,17251,15116,23982,31717,1227,900,688,178,31422,32155,20840,22784,25295,42771,2157,190,7182,8669,13453,20538,65535,65535
157,153,155,155,153,152,155,155,159,164,159,162,165,165,163,164,343,347,339,371,346,342,343,345,2872,2875,2873,2891,2882,2886,2897,2899,773,772,33233,27865,9014,10183,913,787,861,862,17187,15025,23927,31558,1223,899,690,179,31383,32103,20826,22748,25287,42725,2161,190,7178,8652,13443,20505,65535,65535
154,155,154,154,154,157,155,155,159,162,160,162,164,160,165,165,344,345,340,369,343,345,343,341,2883,2884,2879,2897,2889,2892,2896,2898,773,774,33213,27853,9020,10198,910,786,859,857,17166,14998,23909,31520,1223,899,687,179,31335,32041,20816,22738,25272,42719,2151,189,7170,8644,13439,20495,65535,65535
158,154,153,155,156,156,158,154,161,163,155,162,162,162,162,165,344,342,339,370,344,343,342,344,2886,2882,2879,2894,2889,2891,2899,2901,774,773,33267,27905,9022,10199,911,787,860,859,17178,15010,23911,31530,1225,899,690,179,31335,32035,20816,22735,25270,42697,2158,190,7169,8642,13436,20491,65535,65535
153,154,153,157,152,155,154,155,157,163,158,159,166,164,161,165,344,345,339,376,343,342,343,345,2891,2888,2885,2902,2888,2889,2897,2895,773,773,33259,27895,9020,10204,911,787,861,858,17176,15008,23905,31534,1225,901,687,178,31310,32011,20809,22724,25264,42692,2149,189,7167,8635,13435,20483,65535,65535
156,154,156,154,153,153,153,156,159,164,159,161,164,166,163,162,343,346,337,370,343,343,343,347,2882,2883,2878,2889,2880,2881,2889,2887,775,773,33326,27994,9036,10237,912,785,860,858,17187,15035,23930,31609,1226,902,689,179,31295,32010,20815,22746,25263,42719,2156,189,7164,8634,13431,20493,65535,65535
154,157,154,157,154,155,154,155,161,168,159,160,162,162,161,164,343,342,339,369,344,343,341,338,2875,2877,2873,2888,2878,2879,2889,2890,776,774,33399,28120,9058,10275,916,788,862,860,17220,15082,23964,31716,1230,902,685,182,31291,32029,20822,22772,25279,42759,2147,189,7166,8638,13438,20517,65535,65535
152,153,155,154,153,153,154,155,160,167,162,158,162,158,162,160,343,340,338,374,343,342,343,344,2877,2879,2874,2889,2882,2883,2893,2892,776,777,33486,28250,9070,10312,919,790,864,863,17262,15134,24003,31840,1232,908,692,178,31294,32054,20841,22802,25298,42806,2159,193,7166,8644,13451,20543,65535,65535
153,154,154,154,154,153,154,153,163,159,159,165,163,162,161,163,344,343,338,369,341,341,343,339,2881,2878,2877,2891,2884,2883,2895,2896,782,777,33564,28377,9091,10351,921,795,866,860,17290,15189,24037,31945,1237,908,691,179,31308,32088,20857,22834,25309,42858,2151,189,7169,8652,13457,20572,65535,65535
153,157,153,155,153,154,158,159,167,159,164,162,165,165,160,163,342,343,338,373,343,342,342,344,2886,2885,2882,2896,2888,2890,2901,2902,784,781,33657,28513,9110,10392,923,796,871,865,17327,15238,24077,32064,1240,910,691,179,31327,32138,20881,22880,25331,42918,2163,189,7174,8658,13468,20609,65535,65535
157,155,158,168,154,154,155,153,166,162,157,160,162,163,162,163,341,343,339,370,342,341,342,342,2887,2890,2887,2900,2887,2888,2898,2895,786,786,33765,28644,9127,10395,923,796,872,867,17363,15289,24101,32127,1242,911,691,178,31349,32183,20900,22899,25343,42899,2154,194,7178,8670,13477,20623,65535,65535
152,151,154,152,153,155,156,157,163,161,162,163,165,159,164,162,342,343,337,369,342,343,341,340,2883,2880,2877,2893,2881,2879,2889,2889,783,778,33422,28034,9029,10188,912,787,869,867,17316,15177,24027,31820,1230,903,693,182,31438,32145,20858,22777,25306,42761,2165,189,7178,8647,13443,20513,65535,65535
156,155,152,157,157,156,157,159,165,161,159,159,159,161,161,160,340,340,333,369,342,345,344,341,2875,2875,2870,2885,2878,2878,2888,2891,774,771,33242,27815,9004,10155,909,784,863,861,17207,15038,23940,31562,1223,897,688,179,31375,32050,20819,22724,25284,42711,2149,189,7166,8628,13423,20453,65535,65535
156,154,153,154,154,158,155,155,160,162,158,157,159,162,159,163,341,341,335,369,343,339,341,339,2883,2881,2879,2893,2885,2886,2893,2895,772,770,33215,27758,9002,10151,907,784,860,857,17168,14977,23897,31462,1221,897,690,182,31355,31998,20806,22694,25268,42679,2155,192,7157,8613,13413,20430,65535,65535
156,154,155,155,154,153,158,159,159,157,160,161,165,162,159,161,340,340,336,367,341,342,341,342,2881,2881,2878,2891,2880,2882,2893,2893,772,770,33247,27825,9013,10179,909,783,859,855,17169,14983,23890,31482,1222,899,693,177,31303,31965,20807,22699,25270,42677,2145,193,7155,8609,13415,20438,65535,65535
152,154,153,159,157,153,155,155,165,162,160,161,163,160,164,162,342,341,334,366,340,341,340,340,2879,2881,2879,2893,2886,2885,2896,2895,771,770,33266,27830,9015,10173,909,783,859,856,17177,14991,23896,31484,1222,902,690,181,31310,31958,20806,22684,25263,42663,2155,190,7155,8610,13413,20430,65535,65535
155,153,154,154,156,153,153,156,163,163,163,161,162,162,162,165,340,342,337,365,342,341,341,341,2883,2883,2880,2892,2883,2881,2891,2890,775,772,33272,27870,9020,10195,911,786,860,858,17182,15002,23903,31519,1225,898,686,177,31286,31937,20798,22686,25262,42678,2143,187,7151,8601,13408,20427,65535,65535
154,154,155,154,154,153,156,155,165,164,156,164,161,163,164,163,339,340,336,369,343,339,341,338,2876,2876,2871,2887,2876,2879,2891,2889,776,773,33366,28007,9041,10239,913,787,863,857,17209,15040,23940,31626,1226,903,688,178,31276,31947,20811,22716,25271,42719,2153,189,7150,8607,13417,20449,65535,65535
151,155,154,152,154,155,159,157,163,163,163,161,164,162,158,163,342,339,341,367,340,343,340,344,2879,2880,2877,2891,2883,2883,2895,2895,778,773,33446,28139,9065,10283,915,789,864,861,17247,15095,23979,31739,1231,907,687,178,31280,31979,20834,22747,25287,42760,2143,189,7151,8610,13425,20475,65535,65535
152,157,154,153,154,155,154,156,162,165,162,159,159,162,165,167,340,338,339,368,340,339,341,337,2882,2881,2878,2894,2885,2887,2897,2897,778,780,33537,28271,9085,10319,920,794,864,865,17287,15152,24021,31858,1234,907,695,180,31297,32016,20846,22782,25300,42811,2154,192,7157,8618,13437,20508,65535,65535
155,154,153,154,154,153,154,159,164,162,156,164,166,161,162,162,339,339,332,364,340,345,340,342,2883,2883,2881,2896,2888,2889,2901,2902,782,779,33619,28400,9104,10360,922,795,867,865,17323,15203,24050,31969,1241,909,689,179,31306,32053,20867,22824,25319,42869,2149,193,7159,8631,13445,20538,65535,65535
153,155,153,154,155,153,157,155,161,162,161,159,161,166,161,159,342,341,338,368,343,340,340,341,2892,2888,2887,2903,2895,2897,2908,2908,784,782,33727,28545,9127,10399,926,799,871,870,17364,15255,24095,32089,1242,912,694,180,31331,32102,20894,22867,25343,42926,2159,190,7166,8637,13465,20578,65535,65535
153,154,154,154,156,156,155,155,161,163,159,163,160,160,163,167,341,342,335,368,341,346,339,340,2896,2898,2896,2915,2907,2906,2911,2910,791,786,33840,28697,9151,10427,926,797,873,873,17401,15313,24137,32190,1245,911,689,178,31355,32151,20917,22904,25364,42948,2152,188,7169,8650,13473,20608,65535,65535
156,151,154,154,155,154,158,155,159,160,159,161,162,163,161,161,339,339,335,370,339,342,338,337,2899,2894,2887,2902,2892,2890,2898,2897,785,782,33595,28160,9058,10208,914,787,873,869,17373,15230,24074,31919,1236,909,691,178,31456,32131,20884,22783,25323,42779,2163,189,7173,8636,13445,20500,65535,65535
155,154,154,157,156,155,156,156,163,162,162,161,162,164,162,165,340,341,333,369,343,336,339,338,2885,2883,2879,2895,2886,2886,2898,2898,779,774,33283,27786,9006,10131,909,785,865,861,17252,15063,23964,31589,1227,900,686,179,31377,32002,20835,22708,25297,42714,2149,189,7160,8608,13422,20425,65535,65535
155,153,155,154,154,155,153,155,161,166,160,160,165,160,163,162,338,337,334,365,338,337,337,338,2886,2887,2885,2899,2891,2893,2903,2901,771,771,33228,27684,9000,10115,911,783,863,857,17188,14969,23906,31424,1221,901,689,188,31343,31931,20813,22655,25278,42652,2153,190,7154,8595,13409,20391,65535,65535
153,153,149,157,156,157,157,154,159,162,160,159,159,161,159,164,337,337,333,366,337,335,336,337,2886,2885,2885,2902,2893,2892,2900,2900,771,770,33209,27685,9005,10134,907,784,860,856,17167,14941,23881,31382,1220,898,687,178,31289,31871,20806,22645,25267,42644,2144,189,7147,8584,13404,20382,65535,65535
153,153,157,159,153,157,156,155,161,163,161,160,161,162,164,165,337,337,333,367,337,337,338,336,2889,2885,2883,2897,2889,2891,2901,2903,772,770,33255,27733,9011,10144,909,785,860,856,17179,14954,23882,31398,1220,899,689,178,31284,31855,20801,22639,25266,42628,2150,189,7148,8580,13407,20379,65535,65535
154,157,153,151,153,153,156,155,165,166,159,165,161,163,161,167,336,338,333,363,338,338,335,337,2892,2891,2889,2902,2892,2892,2903,2903,773,770,33259,27749,9019,10157,909,785,862,859,17180,14958,23889,31415,1223,900,685,182,31256,31826,20799,22633,25262,42631,2139,190,7146,8575,13405,20374,65535,65535
155,153,155,153,154,155,154,155,165,163,155,164,163,163,158,159,337,337,332,365,337,335,339,341,2889,2887,2887,2900,2891,2892,2897,2897,774,771,33335,27871,9036,10199,910,786,863,861,17199,14992,23915,31505,1223,901,688,181,31241,31827,20808,22658,25265,42660,2150,190,7144,8577,13406,20391,65535,65535
153,152,154,161,155,153,155,153,159,153,162,159,164,161,161,164,336,337,337,365,336,337,336,337,2886,2885,2881,2899,2890,2892,2899,2901,774,773,33418,28003,9057,10238,915,789,863,859,17233,15042,23954,31627,1230,905,686,178,31242,31848,20819,22681,25277,42697,2144,191,7145,8584,13412,20416,65535,65535
153,153,155,154,154,154,156,156,161,163,161,162,160,159,160,161,338,338,333,364,338,336,336,338,2889,2889,2885,2899,2893,2893,2900,2902,777,774,33506,28140,9078,10277,916,789,865,861,17274,15103,23997,31747,1235,905,691,179,31248,31879,20832,22709,25291,42745,2153,189,7147,8593,13422,20443,65535,65535
157,157,155,152,156,157,156,158,164,166,158,161,159,159,162,162,338,336,333,365,338,336,335,337,2889,2888,2881,2897,2891,2893,2899,2900,780,777,33594,28275,9100,10318,921,794,868,865,17309,15158,24035,31866,1236,908,689,181,31263,31918,20851,22748,25306,42799,2145,190,7153,8598,13433,20479,65535,65535
155,155,156,155,154,154,158,153,163,164,160,162,163,165,162,166,337,336,333,365,337,336,335,334,2887,2885,2881,2895,2887,2884,2893,2895,781,781,33681,28412,9119,10359,921,796,867,866,17350,15207,24070,31978,1239,907,691,178,31287,31966,20875,22789,25331,42859,2155,191,7154,8607,13447,20513,65535,65535
153,153,155,153,152,155,154,157,163,163,159,166,162,166,161,162,337,337,332,363,340,336,338,341,2881,2879,2879,2891,2883,2886,2894,2898,784,783,33786,28552,9149,10397,928,797,872,868,17386,15262,24123,32101,1244,912,689,179,31313,32027,20899,22838,25351,42923,2148,187,7161,8617,13466,20552,65535,65535
154,154,165,154,152,154,158,154,162,160,159,158,163,159,161,167,339,344,334,366,339,338,336,338,2887,2886,2881,2889,2879,2874,2883,2881,787,783,33884,28633,9151,10367,922,794,871,868,17419,15297,24143,32128,1242,907,694,171,31355,32090,20922,22841,25357,42859,2162,190,7163,8627,13469,20552,65535,65535
157,152,155,154,153,153,158,153,162,162,164,165,162,163,159,163,340,339,333,365,339,336,337,338,2866,2866,2861,2874,2864,2865,2874,2871,781,777,33439,27888,9038,10146,908,786,871,864,17338,15153,24038,31759,1229,900,689,177,31411,31988,20863,22709,25311,42725,2151,188,7160,8605,13433,20433,65535,65535
156,157,154,154,154,154,159,156,161,162,160,161,166,165,161,162,342,338,336,369,341,340,336,343,2863,2858,2858,2870,2863,2861,2876,2877,771,769,33283,27679,9011,10097,905,782,860,856,17227,15002,23953,31486,1222,897,690,179,31359,31883,20837,22645,25295,42649,2154,188,7151,8580,13414,20373,65535,65535
153,155,154,154,153,155,154,154,159,162,161,162,163,162,161,165,339,340,336,368,345,340,341,341,2865,2866,2865,2879,2869,2870,2879,2879,769,767,33207,27570,9006,10086,906,779,856,854,17172,14920,23899,31345,1219,895,685,177,31321,31812,20813,22596,25271,42593,2143,190,7144,8567,13405,20340,65535,65535
153,157,150,156,153,154,155,154,165,162,160,160,161,161,165,167,341,343,338,369,338,342,342,342,2869,2875,2864,2878,2867,2868,2875,2876,769,767,33235,27623,9016,10115,906,782,857,854,17158,14912,23893,31343,1217,895,690,177,31271,31765,20812,22595,25268,42591,2149,189,7139,8563,13404,20341,65535,65535
153,156,157,155,154,153,157,158,163,164,159,163,165,162,161,162,343,342,338,368,341,341,344,345,2861,2863,2856,2871,2863,2864,2873,2873,770,767,33259,27642,9022,10122,904,780,860,855,17159,14909,23884,31341,1219,898,685,180,31268,31744,20810,22583,25259,42567,2139,190,7140,8557,13404,20335,65535,65535
157,154,167,156,157,153,155,156,159,163,162,161,162,159,159,163,341,341,337,369,341,341,338,344,2861,2859,2853,2867,2862,2857,2866,2865,771,769,33268,27675,9029,10144,906,781,855,854,17163,14920,23899,31377,1218,894,687,179,31248,31721,20807,22587,25257,42580,2147,189,7139,8553,13399,20335,65535,65535
147,155,159,154,153,155,154,156,161,162,158,161,165,166,161,163,341,341,339,369,341,340,342,341,2852,2850,2845,2861,2852,2851,2858,2863,769,770,33355,27807,9051,10190,910,783,856,853,17186,14958,23934,31479,1222,898,685,178,31238,31730,20825,22613,25263,42608,2138,192,7139,8558,13405,20353,65535,65535
158,156,149,156,156,157,156,157,161,163,156,161,162,162,161,159,342,345,339,369,339,341,339,343,2851,2850,2843,2860,2851,2852,2863,2861,772,770,33442,27937,9071,10231,910,785,858,855,17223,15014,23979,31603,1223,898,691,186,31244,31757,20836,22642,25275,42650,2147,189,7139,8564,13411,20383,65535,65535
154,155,157,154,155,155,155,154,162,165,159,162,165,165,164,163,341,342,339,370,344,340,341,343,2849,2851,2846,2861,2853,2857,2867,2867,777,771,33524,28067,9094,10269,915,787,861,860,17256,15068,24015,31725,1228,903,687,179,31255,31783,20857,22676,25291,42697,2139,190,7143,8570,13423,20413,65535,65535
153,152,153,153,154,158,159,155,154,162,159,158,159,163,161,162,344,343,337,371,342,341,339,345,2856,2855,2853,2863,2853,2853,2862,2859,775,775,33611,28197,9111,10306,915,789,862,860,17295,15121,24055,31841,1231,902,691,178,31275,31832,20872,22710,25311,42751,2153,188,7145,8580,13433,20445,65535,65535
153,153,153,153,157,151,156,155,159,162,159,162,159,162,161,167,341,340,334,370,344,341,346,342,2848,2845,2843,2853,2843,2840,2850,2845,777,776,33691,28325,9134,10343,916,788,863,861,17327,15171,24091,31949,1235,902,689,179,31299,31883,20894,22753,25329,42805,2143,190,7147,8587,13444,20475,65535,65535
156,152,155,154,157,152,154,155,166,163,158,164,162,165,161,163,341,342,337,370,341,342,337,346,2831,2829,2824,2836,2827,2826,2831,2832,779,776,33795,28465,9158,10386,918,791,865,861,17369,15223,24141,32070,1234,903,690,180,31331,31944,20920,22802,25351,42875,2157,190,7154,8601,13465,20517,65535,65535
155,157,155,155,152,157,158,155,161,164,161,161,162,160,161,163,339,341,338,369,341,343,344,341,2822,2821,2816,2830,2819,2817,2825,2823,779,778,33899,28570,9171,10373,916,788,865,863,17403,15265,24161,32124,1233,903,689,181,31364,32004,20947,22817,25359,42828,2149,190,7158,8610,13472,20529,65535,65535
153,158,153,155,153,153,154,155,162,160,155,160,163,158,162,165,341,342,336,371,342,342,338,342,2811,2811,2808,2822,2815,2815,2827,2826,773,771,33505,27874,9062,10153,906,781,862,858,17332,15140,24077,31784,1222,895,693,179,31444,31927,20899,22689,25321,42695,2159,189,7157,8586,13436,20413,65535,65535
153,152,153,154,154,154,155,154,163,162,157,163,161,167,162,164,342,344,338,369,341,341,342,341,2819,2819,2819,2837,2830,2834,2848,2851,768,767,33339,27673,9035,10109,904,781,857,853,17231,14999,23985,31529,1219,896,689,177,31379,31839,20877,22645,25306,42643,2143,188,7151,8576,13425,20368,65535,65535
157,157,152,154,157,155,157,155,161,161,162,160,162,161,162,164,344,341,341,373,342,349,346,347,2845,2847,2845,2864,2856,2858,2871,2874,767,766,33301,27598,9028,10097,904,780,856,853,17191,14937,23956,31422,1220,895,691,178,31342,31753,20856,22608,25295,42610,2151,189,7148,8560,13422,20351,65535,65535
153,155,155,154,155,153,155,156,161,163,159,165,162,162,166,163,345,339,339,370,344,342,348,345,2865,2864,2857,2871,2858,2856,2862,2863,769,768,33340,27671,9045,10135,905,783,857,854,17186,14939,23951,31434,1219,895,687,178,31303,31729,20862,22615,25293,42611,2137,189,7145,8561,13422,20356,65535,65535
154,154,153,155,155,157,155,157,162,163,163,158,163,162,165,162,343,344,339,375,344,345,343,343,2850,2846,2839,2849,2833,2826,2830,2827,769,768,33369,27688,9043,10135,904,777,857,856,17196,14941,23943,31431,1215,891,687,182,31319,31725,20859,22602,25293,42591,2149,190,7148,8560,13419,20349,65535,65535
154,154,154,155,153,153,156,155,161,161,163,164,162,162,162,166,342,341,338,370,341,341,342,342,2804,2798,2793,2801,2788,2784,2789,2779,766,764,33386,27724,9047,10151,901,775,851,849,17195,14943,23944,31457,1214,887,686,178,31311,31720,20862,22619,25291,42612,2140,193,7142,8555,13417,20354,65535,65535
154,150,157,152,156,154,159,156,162,165,159,164,161,162,160,163,342,341,341,370,340,343,341,340,2762,2755,2747,2759,2747,2738,2745,2741,763,763,33483,27867,9067,10197,898,775,847,846,17207,14978,23977,31549,1209,885,687,178,31315,31746,20887,22652,25307,42653,2149,193,7147,8561,13423,20379,65535,65535
155,153,156,154,154,154,152,156,160,162,159,165,163,162,161,162,341,344,337,368,341,343,346,346,2723,2713,2703,2716,2699,2698,2705,2705,760,759,33591,28014,9089,10237,896,770,844,841,17225,15017,24014,31665,1208,880,687,177,31327,31773,20918,22694,25330,42710,2143,189,7147,8569,13433,20404,65535,65535
156,162,154,155,153,153,155,155,162,159,156,161,159,160,164,161,341,340,338,370,343,342,341,341,2692,2693,2690,2705,2695,2698,2708,2711,763,758,33709,28155,9106,10265,899,772,843,839,17256,15066,24049,31776,1207,884,690,177,31354,31802,20959,22746,25359,42778,2153,189,7147,8575,13446,20435,65535,65535
153,153,157,153,153,154,156,155,162,161,158,161,161,161,161,167,342,341,337,372,343,341,354,344,2707,2711,2715,2736,2734,2740,2757,2762,761,760,33802,28291,9124,10297,907,781,844,844,17289,15116,24093,31888,1218,891,687,178,31377,31842,21007,22810,25390,42843,2146,194,7151,8583,13453,20460,65535,65535
154,150,153,155,154,152,158,156,166,165,157,161,162,165,162,164,345,343,341,373,349,343,345,348,2752,2759,2760,2782,2776,2781,2791,2791,773,771,33916,28447,9149,10350,916,789,853,853,17329,15171,24130,32005,1230,901,691,179,31419,31921,21050,22871,25422,42913,2156,194,7153,8596,13464,20497,65535,65535
153,157,156,154,153,157,156,155,161,166,159,165,163,160,160,167,346,348,343,377,346,346,347,350,2780,2779,2769,2779,2766,2761,2760,2752,779,777,34043,28625,9183,10400,918,789,861,860,17365,15228,24169,32121,1231,900,690,180,31475,32007,21086,22931,25444,42965,2150,190,7155,8608,13476,20535,65535,65535
155,153,153,157,155,154,155,155,162,162,158,162,161,159,162,165,345,348,341,373,348,344,346,347,2731,2724,2713,2722,2708,2703,2710,2705,780,773,33974,28338,9118,10239,905,776,860,856,17359,15193,24142,31953,1220,890,693,179,31601,32048,21092,22863,25425,42828,2160,190,7164,8605,13461,20460,65535,65535
153,152,154,153,154,154,155,157,162,161,160,165,163,162,164,159,344,343,341,379,343,343,342,344,2686,2681,2677,2686,2675,2671,2680,2680,765,760,33574,27809,9050,10120,898,770,852,845,17241,15017,24033,31601,1208,882,688,177,31562,31931,21063,22786,25406,42771,2146,190,7154,8581,13441,20381,65535,65535
157,155,157,153,156,153,157,158,161,157,158,158,162,161,160,163,345,343,339,374,344,347,344,343,2664,2661,2658,2673,2665,2667,2679,2681,758,756,33528,27731,9040,10102,891,769,842,843,17170,14922,23973,31442,1203,881,691,178,31547,31875,21057,22759,25398,42727,2152,193,7150,8566,13427,20356,65535,65535
156,154,153,156,156,156,155,154,160,162,160,160,160,161,162,164,343,345,340,377,345,345,346,346,2670,2668,2664,2682,2675,2675,2684,2683,756,757,33501,27717,9049,10123,893,769,841,837,17143,14887,23947,31399,1205,881,688,178,31529,31851,21053,22753,25395,42732,2141,193,7147,8560,13423,20343,65535,65535
153,155,153,154,157,156,157,154,164,162,162,161,162,160,160,167,345,345,342,373,345,345,345,345,2671,2672,2670,2689,2682,2686,2700,2703,758,755,33578,27803,9062,10147,894,770,844,839,17166,14909,23955,31427,1206,883,690,178,31542,31859,21063,22763,25395,42726,2148,190,7149,8561,13428,20350,65535,65535
153,156,153,154,157,153,154,155,161,163,157,161,161,161,161,163,343,344,339,374,346,345,345,346,2695,2700,2700,2719,2718,2720,2738,2743,758,757,33581,27810,9071,10159,898,776,846,844,17166,14919,23963,31447,1215,890,687,181,31535,31842,21069,22764,25404,42739,2141,189,7143,8555,13427,20349,65535,65535
155,155,154,155,154,154,155,155,160,163,160,164,160,162,159,163,345,346,342,377,348,342,348,346,2737,2739,2742,2762,2756,2761,2771,2773,762,763,33645,27918,9095,10211,905,780,851,851,17196,14954,24005,31539,1222,900,690,177,31535,31864,21084,22793,25412,42774,2148,194,7145,8556,13433,20370,65535,65535
152,152,153,153,152,153,154,155,159,162,160,162,162,162,161,165,347,346,345,375,346,347,347,346,2758,2756,2748,2761,2753,2756,2769,2771,769,767,33761,28084,9131,10263,911,785,859,858,17227,15011,24047,31665,1230,903,689,179,31542,31883,21107,22832,25425,42819,2142,189,7150,8567,13442,20404,65535,65535
156,153,154,153,154,152,158,153,162,166,159,160,162,166,162,165,347,346,342,375,349,346,345,347,2761,2759,2755,2764,2755,2754,2761,2764,772,773,33856,28228,9153,10310,912,790,865,863,17269,15074,24087,31789,1234,906,690,178,31568,31933,21127,22869,25443,42872,2150,191,7149,8577,13454,20435,65535,65535
154,155,154,157,154,153,155,155,162,160,158,157,162,162,160,166,346,346,342,376,347,348,348,351,2751,2753,2750,2771,2761,2758,2768,2767,776,773,33947,28366,9180,10355,919,790,867,865,17316,15131,24137,31924,1240,908,689,178,31602,31997,21159,22917,25466,42933,2145,188,7155,8585,13471,20472,65535,65535
151,156,154,154,153,154,153,155,162,160,162,158,164,164,159,159,346,347,344,377,348,349,347,349,2754,2755,2750,2762,2756,2752,2761,2757,779,777,34058,28509,9207,10394,922,791,871,866,17358,15188,24187,32044,1240,911,694,179,31623,32045,21193,22972,25495,43001,2156,189,7161,8595,13488,20513,65535,65535
158,158,154,154,153,156,158,153,166,164,160,165,165,159,158,163,347,345,343,376,346,347,345,341,2742,2738,2733,2743,2730,2729,2735,2732,779,778,34179,28667,9235,10435,920,793,873,867,17393,15237,24228,32168,1241,910,694,181,31683,32129,21225,23019,25518,43075,2150,190,7164,8610,13503,20554,65535,65535
156,149,156,153,156,154,155,154,160,166,159,166,163,165,158,160,346,346,342,376,346,346,345,346,2722,2718,2714,2724,2718,2715,2726,2725,779,779,34295,28771,9242,10415,916,787,868,866,17427,15276,24250,32205,1238,905,694,179,31715,32185,21254,23042,25529,43023,2161,192,7177,8620,13511,20563,65535,65535
155,155,157,154,153,153,154,155,164,166,163,162,165,162,162,162,343,346,340,372,345,344,346,346,2713,2714,2711,2723,2716,2715,2726,2722,772,770,33884,28046,9128,10189,903,778,864,860,17353,15142,24166,31862,1227,899,693,179,31796,32111,21206,22911,25497,42891,2153,188,7172,8599,13483,20443,65535,65535
154,155,152,156,153,157,158,154,161,166,161,161,162,163,161,165,345,344,339,374,345,344,344,345,2709,2702,2694,2709,2695,2695,2703,2705,764,764,33719,27832,9100,10133,898,776,857,854,17245,14993,24063,31583,1219,890,692,179,31754,32023,21171,22857,25466,42835,2156,193,7168,8584,13463,20396,65535,65535
153,154,154,156,157,154,155,157,159,163,163,160,159,161,163,162,344,350,340,375,343,343,343,342,2691,2692,2692,2710,2703,2708,2717,2720,760,760,33647,27727,9093,10114,895,771,851,850,17191,14920,24020,31455,1212,889,689,178,31723,31955,21157,22815,25454,42793,2145,188,7162,8576,13455,20369,65535,65535
154,154,154,157,157,157,156,158,162,164,154,161,162,162,160,163,345,343,339,372,343,343,345,344,2710,2713,2711,2725,2720,2719,2727,2730,761,758,33675,27789,9105,10152,897,771,850,850,17189,14916,24008,31461,1213,891,692,179,31687,31921,21147,22818,25447,42791,2153,191,7159,8573,13456,20379,65535,65535
157,155,153,153,153,153,155,155,165,162,159,162,165,162,164,163,343,345,339,373,343,346,344,342,2720,2723,2723,2741,2734,2739,2751,2751,759,759,33701,27812,9113,10167,899,774,852,844,17199,14929,24015,31471,1215,891,689,179,31676,31910,21148,22800,25447,42766,2141,193,7162,8574,13457,20366,65535,65535
157,160,155,156,157,154,155,156,160,162,159,162,163,161,162,163,344,345,342,374,343,344,345,344,2741,2743,2735,2748,2740,2742,2748,2749,761,759,33719,27851,9124,10191,900,774,852,849,17207,14937,24024,31509,1217,893,691,178,31668,31894,21144,22804,25442,42780,2149,189,7160,8569,13457,20375,65535,65535
156,155,154,153,157,157,154,152,162,163,162,162,161,163,161,162,344,347,339,375,348,348,346,347,2736,2735,2733,2742,2738,2738,2745,2747,762,762,33811,28001,9153,10247,906,779,854,854,17233,14977,24063,31615,1219,894,690,178,31657,31904,21155,22830,25451,42821,2141,189,7161,8575,13461,20398,65535,65535
156,152,155,150,156,155,154,155,160,162,157,164,162,163,159,159,346,346,343,375,345,345,348,347,2733,2731,2725,2742,2731,2727,2733,2733,769,764,33910,28139,9180,10298,904,777,854,855,17263,15029,24100,31734,1218,893,691,182,31680,31947,21176,22871,25463,42860,2150,191,7163,8580,13473,20429,65535,65535
154,154,154,157,157,154,155,156,161,163,159,160,161,161,163,167,348,345,340,377,347,345,345,345,2721,2720,2721,2741,2739,2739,2753,2758,769,764,33994,28283,9205,10337,910,780,856,851,17301,15092,24146,31855,1227,898,689,177,31693,31989,21196,22908,25478,42923,2142,190,7168,8590,13480,20461,65535,65535
154,154,152,154,154,152,154,155,161,162,161,162,163,164,165,160,345,347,344,374,344,345,345,349,2748,2749,2747,2764,2760,2768,2783,2789,771,767,34093,28418,9229,10378,915,787,862,857,17343,15141,24187,31973,1232,903,693,178,31709,32020,21222,22950,25503,42979,2157,188,7170,8597,13492,20492,65535,65535
154,161,155,157,153,153,156,158,161,162,155,157,161,165,163,160,346,347,343,377,348,347,348,347,2780,2783,2785,2807,2797,2800,2810,2815,775,773,34196,28555,9260,10423,923,791,865,862,17384,15203,24240,32103,1241,910,691,179,31748,32093,21252,22999,25525,43037,2148,189,7172,8608,13508,20535,65535,65535
156,149,154,156,157,154,156,155,161,163,157,160,162,159,159,167,347,348,342,376,347,348,351,347,2802,2800,2798,2813,2801,2797,2806,2808,781,779,34335,28725,9286,10457,922,793,869,872,17419,15257,24271,32198,1243,910,694,178,31789,32148,21281,23033,25545,43053,2159,190,7180,8626,13525,20567,65535,65535
157,157,153,153,153,157,158,155,165,158,159,161,163,159,159,167,346,348,341,377,346,346,346,345,2798,2800,2793,2807,2799,2799,2810,2809,779,777,34084,28200,9195,10245,911,782,872,868,17394,15183,24222,31945,1235,905,693,180,31889,32134,21241,22915,25501,42889,2154,189,7186,8613,13499,20465,65535,65535
153,155,154,157,155,155,154,159,162,163,163,161,163,162,159,163,345,347,342,375,346,346,347,345,2796,2794,2791,2804,2797,2793,2803,2803,771,767,33776,27818,9144,10158,906,779,867,860,17278,15015,24116,31627,1226,901,693,177,31812,31993,21189,22835,25477,42822,2158,190,7179,8588,13478,20395,65535,65535
154,152,153,153,156,154,157,155,163,161,159,162,159,166,160,167,345,345,340,371,347,345,348,346,2791,2791,2788,2802,2797,2796,2807,2803,768,766,33722,27731,9130,10136,904,780,861,858,17221,14937,24060,31479,1223,899,688,178,31766,31922,21172,22794,25455,42763,2144,190,7173,8579,13469,20369,65535,65535
154,153,155,153,154,154,155,154,165,165,159,157,162,160,161,166,349,347,342,374,344,348,345,345,2793,2790,2789,2803,2795,2794,2804,2804,767,766,33707,27733,9134,10149,904,780,861,858,17209,14918,24042,31451,1223,900,690,172,31729,31865,21157,22777,25445,42765,2149,193,7169,8570,13468,20364,65535,65535
155,157,154,154,157,154,155,155,162,167,159,161,159,166,162,164,343,345,341,373,345,344,344,343,2790,2791,2792,2811,2807,2809,2821,2821,768,766,33753,27780,9139,10162,906,783,860,858,17228,14933,24054,31476,1227,903,688,181,31709,31844,21159,22771,25447,42751,2140,189,7172,8569,13470,20361,65535,65535
153,155,157,153,156,155,155,156,163,161,159,160,162,159,162,164,344,344,339,375,346,347,349,349,2804,2796,2787,2794,2775,2777,2787,2792,772,767,33729,27764,9139,10169,905,780,865,860,17254,14951,24111,31531,1224,899,691,178,31683,31801,21138,22748,25445,42754,2150,190,7167,8569,13487,20378,65535,65535
153,154,153,155,155,154,158,153,160,163,158,165,162,162,160,162,348,349,345,376,349,346,346,347,2779,2782,2774,2778,2761,2748,2747,2741,769,769,33805,27897,9169,10222,897,772,860,855,17239,14961,24086,31573,1211,886,688,178,31722,31878,21139,22762,25428,42755,2139,192,7167,8571,13473,20378,65535,65535
155,154,157,154,154,155,155,157,165,163,158,162,163,161,165,163,344,343,339,375,343,344,347,346,2723,2723,2722,2742,2746,2753,2771,2784,757,756,33921,28035,9167,10241,898,773,845,839,17293,15007,24150,31699,1207,884,690,178,31639,31787,21161,22791,25461,42825,2148,191,7181,8577,13489,20406,65535,65535
157,152,158,153,152,154,159,155,166,162,159,162,162,165,157,164,349,347,345,380,351,350,352,351,2781,2791,2796,2819,2818,2824,2837,2834,762,760,34012,28186,9198,10297,907,781,846,843,17337,15077,24164,31810,1219,893,689,179,31677,31867,21180,22833,25475,42865,2138,189,7174,8579,13485,20425,65535,65535
156,154,152,153,157,155,155,155,159,163,158,169,161,165,162,163,351,356,351,384,354,355,353,353,2816,2814,2806,2821,2812,2814,2826,2827,772,766,34124,28353,9219,10332,909,782,852,848,17367,15125,24183,31894,1222,891,691,183,31687,31893,21185,22852,25475,42896,2150,190,7187,8597,13493,20451,65535,65535
153,156,154,153,157,158,158,154,159,164,160,161,160,158,158,163,352,351,348,383,353,352,353,351,2811,2811,2809,2822,2819,2825,2841,2845,770,768,34250,28499,9236,10363,912,784,852,848,17401,15171,24231,32016,1224,894,689,179,31662,31876,21219,22899,25509,42983,2145,189,7194,8610,13515,20493,65535,65535
156,156,154,154,154,154,153,158,161,162,158,158,166,159,161,162,353,351,351,381,353,352,353,354,2843,2841,2837,2854,2843,2844,2855,2857,770,771,34352,28651,9261,10400,917,786,855,851,17441,15229,24286,32145,1226,899,693,177,31711,31943,21256,22949,25543,43039,2155,190,7191,8615,13533,20537,65535,65535
155,155,155,153,154,157,155,158,173,171,159,164,166,157,164,160,353,354,350,385,355,355,355,355,2849,2853,2853,2873,2864,2865,2870,2863,777,774,34216,28283,9199,10234,911,782,859,855,17433,15188,24249,31963,1228,896,693,179,31839,31999,21246,22867,25511,42871,2149,189,7200,8613,13514,20451,65535,65535
154,157,155,155,152,153,156,155,162,159,155,162,164,165,160,164,355,354,352,385,356,354,358,355,2844,2837,2828,2845,2834,2836,2845,2854,771,766,33845,27793,9125,10107,905,782,859,850,17316,15017,24150,31621,1213,889,693,176,31757,31829,21186,22765,25485,42804,2156,188,7198,8591,13494,20370,65535,65535
153,157,154,154,153,153,157,155,162,162,156,161,162,166,160,163,354,355,353,386,357,356,359,357,2844,2849,2848,2863,2857,2860,2874,2874,767,765,33778,27685,9111,10079,905,783,849,850,17251,14923,24087,31439,1214,891,688,179,31711,31747,21172,22719,25463,42739,2141,190,7189,8571,13482,20331,65535,65535
153,156,153,152,154,153,153,156,161,160,156,164,165,165,159,162,359,359,355,390,361,360,359,362,2869,2871,2871,2890,2885,2896,2912,2922,770,769,33751,27658,9111,10095,908,786,852,850,17213,14874,24049,31362,1217,894,690,178,31695,31718,21147,22686,25440,42716,2145,190,7193,8569,13472,20310,65535,65535
154,154,153,155,157,154,155,155,163,163,156,162,162,165,161,163,359,358,357,392,361,357,355,356,2921,2927,2933,2953,2947,2949,2958,2957,779,771,33815,27745,9133,10135,910,784,860,854,17213,14891,24046,31384,1218,893,688,173,31665,31699,21144,22683,25447,42699,2135,191,7186,8564,13467,20317,65535,65535
158,154,145,157,155,157,153,159,159,162,156,162,163,162,162,163,356,356,349,385,355,353,352,351,2940,2935,2928,2941,2926,2923,2934,2935,770,766,33777,27708,9121,10118,902,777,853,849,17235,14890,24045,31361,1210,890,690,180,31645,31630,21121,22645,25431,42676,2142,189,7171,8549,13465,20302,65535,65535
156,155,152,152,154,155,155,157,164,162,160,163,165,163,162,164,352,351,347,382,354,355,352,354,2925,2924,2923,2940,2936,2943,2955,2963,768,764,33839,27815,9132,10148,910,781,851,846,17239,14906,24043,31417,1217,895,689,174,31603,31619,21135,22667,25433,42703,2132,193,7177,8554,13462,20307,65535,65535
154,154,146,153,155,155,155,155,166,159,159,164,163,162,160,162,353,353,347,381,351,351,354,353,2954,2963,2963,2986,2983,2992,3005,3012,772,770,33937,27967,9160,10203,912,785,856,851,17275,14956,24078,31523,1221,898,689,182,31593,31624,21142,22693,25451,42748,2143,189,7183,8561,13473,20334,65535,65535
156,154,154,156,157,153,155,155,167,162,163,159,160,163,162,163,352,352,347,381,352,349,350,350,3005,3006,3005,3019,3010,3006,3010,3005,777,774,34004,28085,9182,10241,916,787,862,857,17305,15013,24119,31637,1225,898,690,182,31604,31663,21142,22705,25450,42773,2134,193,7175,8564,13479,20359,65535,65535
154,155,154,155,154,155,155,159,163,162,160,159,165,162,159,163,349,353,345,381,350,349,349,349,2987,2981,2971,2983,2969,2969,2975,2974,775,777,34079,28204,9191,10266,913,787,862,856,17335,15059,24138,31722,1225,901,690,178,31605,31685,21151,22727,25457,42812,2147,199,7181,8569,13482,20385,65535,65535
154,154,155,157,156,158,156,155,162,163,163,159,162,159,160,163,349,347,343,385,351,348,350,348,2957,2951,2947,2962,2950,2951,2960,2959,774,773,34173,28346,9213,10303,915,786,859,856,17366,15106,24167,31827,1227,899,688,187,31624,31735,21167,22771,25474,42871,2140,191,7178,8577,13491,20415,65535,65535
153,155,157,154,157,155,155,157,166,162,159,164,161,163,158,163,347,347,342,376,346,350,349,345,2943,2943,2938,2948,2938,2935,2943,2940,777,773,34171,28216,9179,10198,907,780,861,857,17379,15104,24157,31747,1222,897,691,179,31709,31780,21165,22715,25457,42738,2150,190,7180,8570,13493,20365,65535,65535
152,156,155,157,152,153,158,154,160,163,163,159,162,164,157,163,346,343,342,374,345,344,345,345,2924,2917,2909,2919,2901,2899,2904,2897,764,765,33735,27632,9099,10057,898,775,855,852,17274,14941,24055,31407,1210,887,687,183,31680,31648,21102,22602,25419,42631,2139,189,7167,8548,13454,20271,65535,65535
153,154,154,153,154,157,154,157,166,162,163,159,158,162,162,163,343,348,340,373,345,344,344,343,2880,2877,2871,2884,2875,2875,2887,2890,764,759,33671,27531,9084,10036,896,772,849,842,17202,14838,23991,31223,1204,885,688,178,31635,31564,21078,22553,25394,42572,2140,193,7167,8531,13442,20231,65535,65535
153,152,155,155,155,156,156,156,160,163,158,161,161,158,163,163,344,344,342,373,344,343,343,347,2876,2875,2870,2886,2879,2883,2890,2891,759,761,33617,27474,9087,10043,897,771,846,841,17170,14796,23959,31152,1205,885,686,179,31591,31499,21052,22517,25380,42553,2129,190,7158,8516,13432,20208,65535,65535
151,155,150,153,155,155,154,157,163,162,159,160,162,159,164,163,343,343,337,373,343,345,342,343,2877,2872,2869,2879,2871,2869,2877,2878,761,758,33681,27558,9098,10063,898,771,846,843,17179,14812,23961,31170,1203,884,690,176,31581,31495,21055,22511,25371,42534,2135,188,7152,8510,13429,20209,65535,65535
154,154,153,155,154,153,155,158,163,162,162,165,167,165,162,162,343,343,338,371,343,342,342,346,2866,2866,2863,2878,2870,2871,2878,2879,758,758,33671,27543,9094,10060,898,771,848,843,17179,14804,23955,31158,1206,884,684,176,31558,31460,21041,22492,25362,42520,2127,191,7149,8505,13424,20195,65535,65535
153,154,154,153,153,153,156,159,166,159,156,162,165,161,159,163,342,343,337,374,343,343,346,342,2865,2864,2858,2870,2860,2861,2869,2871,762,758,33715,27633,9109,10093,896,773,846,843,17194,14825,23975,31222,1205,887,686,179,31543,31455,21041,22499,25364,42541,2134,189,7147,8503,13423,20199,65535,65535
156,151,154,154,154,154,152,157,165,162,166,162,162,163,161,161,342,341,338,369,343,341,342,342,2861,2858,2857,2870,2862,2863,2872,2871,757,759,33811,27771,9135,10135,899,774,847,843,17219,14869,24008,31325,1211,887,685,184,31538,31469,21056,22525,25369,42587,2125,189,7147,8505,13426,20220,65535,65535
155,151,152,154,155,154,153,158,163,161,162,164,162,161,161,162,343,342,337,371,341,340,341,341,2860,2857,2851,2868,2862,2860,2871,2871,762,762,33893,27895,9151,10172,900,776,848,845,17256,14923,24048,31432,1211,890,688,179,31548,31499,21074,22555,25388,42624,2135,189,7150,8511,13436,20250,65535,65535
156,155,153,157,156,154,159,158,162,162,160,158,162,162,159,161,341,342,337,369,341,340,341,342,2860,2858,2857,2873,2862,2865,2874,2878,764,766,33973,28011,9167,10205,905,778,851,847,17292,14972,24081,31539,1217,891,687,178,31561,31537,21088,22588,25404,42675,2127,190,7154,8519,13445,20277,65535,65535
154,154,158,152,156,149,155,159,162,164,159,165,162,164,159,163,341,340,341,371,342,341,342,341,2864,2862,2863,2877,2869,2870,2879,2879,767,770,34067,28149,9190,10245,907,781,853,851,17331,15025,24124,31655,1219,895,689,179,31586,31583,21108,22627,25422,42734,2140,191,7155,8527,13452,20307,65535,65535
150,153,154,155,150,153,154,153,163,161,160,163,163,161,162,163,344,342,336,370,341,342,341,342,2868,2870,2869,2882,2873,2869,2881,2879,772,769,34172,28272,9202,10240,908,780,858,852,17370,15066,24147,31705,1223,893,687,178,31616,31630,21132,22645,25435,42702,2133,191,7161,8536,13464,20315,65535,65535
154,155,155,155,157,156,154,155,165,165,159,161,162,163,164,163,340,341,332,368,339,340,340,340,2865,2861,2864,2877,2868,2867,2878,2878,769,764,33799,27611,9093,10025,898,773,854,849,17305,14944,24070,31364,1209,884,691,178,31693,31558,21079,22507,25387,42553,2142,194,7160,8514,13433,20198,65535,65535
156,155,154,152,157,154,155,156,162,162,163,161,166,162,162,163,340,341,335,370,341,340,339,342,2865,2864,2859,2873,2867,2868,2880,2883,759,757,33609,27377,9065,9976,890,768,847,842,17190,14782,23969,31082,1203,884,685,179,31621,31447,21044,22435,25367,42479,2126,193,7148,8488,13411,20137,65535,65535
154,151,157,157,156,154,156,155,162,166,158,160,162,161,163,166,340,341,336,372,341,341,343,343,2871,2870,2873,2887,2881,2883,2892,2891,756,757,33542,27259,9055,9955,891,768,845,842,17141,14707,23921,30934,1198,881,688,178,31593,31366,21018,22379,25340,42415,2131,187,7142,8471,13394,20093,65535,65535
159,153,155,152,146,156,156,155,160,162,164,162,163,162,162,163,341,343,336,370,341,344,346,342,2878,2878,2877,2893,2885,2888,2901,2901,757,754,33543,27293,9067,9977,891,769,842,841,17125,14684,23901,30908,1200,883,685,178,31542,31319,21006,22367,25335,42412,2122,192,7137,8463,13385,20084,65535,65535
153,155,152,153,154,152,155,155,166,162,162,167,163,165,161,161,341,346,340,372,345,342,343,343,2891,2897,2896,2918,2910,2915,2927,2927,759,755,33581,27319,9069,9981,891,769,845,842,17132,14687,23900,30903,1201,883,685,178,31542,31311,21003,22358,25327,42393,2128,189,7138,8458,13384,20073,65535,65535
156,155,156,154,147,155,156,154,162,162,159,165,167,162,160,164,343,343,339,370,341,346,345,343,2916,2917,2915,2930,2920,2920,2930,2929,758,755,33591,27341,9071,9994,893,772,845,842,17130,14687,23906,30924,1202,883,683,179,31524,31286,21008,22353,25326,42407,2117,189,7130,8452,13379,20068,65535,65535
153,157,158,154,155,153,152,158,165,160,159,159,161,167,163,163,337,342,338,373,345,342,343,342,2917,2918,2914,2926,2917,2921,2929,2929,759,757,33680,27468,9090,10034,897,773,846,843,17153,14725,23944,31019,1203,888,685,177,31511,31295,21017,22385,25339,42445,2126,188,7130,8457,13381,20087,65535,65535
157,158,153,154,154,154,158,154,167,159,158,164,163,163,159,165,343,343,339,373,343,342,343,343,2923,2919,2917,2928,2919,2919,2929,2928,761,760,33769,27605,9117,10075,900,775,850,847,17190,14778,23984,31139,1208,887,687,178,31523,31329,21040,22416,25349,42492,2117,190,7130,8457,13387,20117,65535,65535
157,155,153,151,154,152,151,155,160,162,162,158,161,165,165,163,344,345,339,374,343,343,345,343,2914,2916,2910,2926,2917,2919,2926,2926,762,763,33861,27733,9135,10114,902,776,851,847,17225,14834,24027,31257,1211,892,686,178,31546,31369,21058,22452,25369,42545,2128,188,7136,8470,13399,20141,65535,65535
157,146,153,153,153,155,158,158,163,163,159,164,163,161,163,161,343,344,341,374,343,343,344,345,2912,2909,2906,2919,2911,2911,2921,2921,766,763,33945,27861,9157,10148,905,778,853,848,17261,14887,24062,31371,1214,891,687,177,31575,31424,21087,22499,25390,42610,2121,190,7140,8476,13407,20175,65535,65535
154,154,157,156,155,155,157,155,162,165,159,161,159,159,162,162,348,344,341,371,346,346,345,349,2908,2906,2905,2917,2907,2907,2918,2915,767,768,34062,28016,9178,10191,907,781,855,852,17301,14945,24107,31493,1218,893,688,178,31611,31489,21119,22555,25421,42683,2132,193,7143,8487,13426,20212,65535,65535
155,153,157,153,153,156,155,154,162,161,159,160,162,162,162,163,345,343,341,375,343,348,344,343,2900,2897,2893,2904,2890,2890,2901,2899,771,767,34100,27958,9158,10104,902,776,854,853,17324,14957,24101,31441,1214,890,687,177,31683,31550,21142,22528,25416,42577,2127,190,7151,8491,13422,20183,65535,65535
157,153,156,158,153,158,158,155,161,162,160,161,161,162,161,163,345,346,341,372,345,347,344,344,2885,2886,2878,2891,2882,2881,2887,2887,763,758,33650,27320,9067,9946,891,766,850,845,17211,14778,23999,31049,1202,885,687,177,31693,31422,21085,22414,25381,42485,2132,190,7143,8462,13392,20079,65535,65535
153,154,153,154,153,153,154,157,162,163,161,161,161,164,161,162,344,345,340,374,345,343,345,348,2869,2871,2865,2881,2871,2872,2880,2881,757,754,33542,27167,9052,9914,889,765,841,842,17127,14651,23924,30839,1197,878,683,178,31655,31347,21069,22366,25367,42423,2121,188,7135,8447,13373,20030,65535,65535
154,151,157,153,153,157,165,155,161,155,159,161,162,162,162,166,343,347,340,376,344,345,345,346,2868,2868,2864,2879,2870,2869,2878,2883,753,751,33477,27061,9045,9903,885,767,840,836,17092,14585,23891,30728,1193,877,686,178,31627,31281,21051,22326,25353,42394,2124,190,7131,8430,13366,20002,65535,65535
155,153,154,151,152,156,155,157,162,160,158,161,166,162,164,163,345,344,340,375,344,347,344,349,2871,2869,2869,2881,2871,2873,2881,2883,752,751,33518,27140,9061,9927,887,764,841,835,17095,14593,23882,30742,1194,878,684,177,31598,31265,21062,22333,25351,42399,2113,189,7128,8425,13367,20005,65535,65535
156,153,156,152,154,157,155,155,161,160,160,159,165,163,161,162,343,351,341,376,347,345,345,347,2871,2869,2870,2881,2872,2871,2883,2881,753,751,33533,27140,9065,9927,889,765,843,837,17100,14595,23890,30750,1192,878,685,178,31613,31263,21059,22327,25355,42398,2122,188,7127,8426,13362,20002,65535,65535
153,154,154,153,154,157,157,156,159,165,163,161,165,162,159,163,345,345,341,375,344,347,344,345,2869,2868,2864,2876,2866,2863,2870,2870,752,752,33567,27208,9077,9955,886,766,839,838,17109,14615,23909,30804,1195,881,682,178,31599,31265,21069,22345,25363,42424,2113,188,7125,8424,13369,20011,65535,65535
155,151,154,152,155,153,152,157,163,162,157,165,162,161,164,163,348,348,342,375,345,347,344,345,2856,2854,2848,2867,2858,2855,2866,2868,752,752,33663,27349,9099,10000,890,767,839,837,17141,14660,23951,30914,1195,883,685,177,31615,31295,21091,22379,25377,42472,2123,191,7129,8430,13376,20039,65535,65535
152,157,153,155,154,155,153,157,161,166,160,161,163,162,161,159,345,347,341,375,345,345,345,346,2855,2852,2850,2865,2854,2855,2863,2868,759,754,33755,27485,9126,10040,893,768,843,841,17173,14717,23992,31043,1203,883,683,180,31635,31346,21109,22418,25393,42531,2117,189,7128,8441,13385,20071,65535,65535
155,156,152,154,155,155,154,153,162,162,158,158,165,160,161,167,345,344,340,376,348,347,346,345,2854,2849,2847,2858,2850,2854,2858,2858,758,756,33851,27615,9141,10076,894,773,841,842,17215,14779,24033,31163,1204,885,686,177,31667,31393,21131,22457,25412,42580,2127,190,7133,8447,13393,20105,65535,65535
156,159,153,155,155,154,155,156,165,160,158,165,164,165,165,165,346,344,340,376,344,345,344,344,2845,2840,2837,2848,2840,2841,2849,2847,761,757,33934,27744,9163,10115,895,773,846,843,17251,14833,24071,31282,1207,884,688,180,31703,31451,21162,22506,25433,42651,2120,188,7138,8455,13413,20142,65535,65535
158,156,157,152,155,151,158,155,160,160,162,163,162,165,165,161,343,346,342,375,345,346,346,347,2836,2836,2832,2847,2837,2837,2847,2850,762,761,34055,27903,9189,10161,901,776,847,845,17298,14894,24121,31415,1211,887,688,177,31755,31530,21190,22557,25467,42723,2132,188,7145,8467,13429,20183,65535,65535
153,154,155,154,153,154,155,156,159,164,159,165,166,165,162,163,343,346,342,375,343,344,343,346,2835,2831,2823,2836,2825,2825,2833,2833,763,763,34099,27843,9171,10072,895,769,850,848,17319,14911,24124,31373,1208,885,687,178,31825,31588,21208,22531,25460,42622,2130,188,7153,8475,13433,20155,65535,65535
152,153,154,154,154,154,156,155,163,162,160,157,159,161,162,162,347,343,341,375,346,343,343,344,2819,2816,2808,2820,2812,2810,2821,2817,756,752,33656,27218,9082,9917,885,763,843,841,17213,14738,24020,30986,1195,875,689,184,31839,31471,21157,22426,25428,42538,2134,189,7149,8448,13402,20063,65535,65535
154,153,156,155,153,155,157,155,161,162,159,162,162,165,159,167,344,347,340,373,343,344,344,343,2803,2802,2797,2812,2803,2806,2820,2818,751,749,33577,27099,9072,9897,885,761,837,833,17134,14624,23958,30806,1190,874,684,177,31806,31407,21145,22391,25420,42493,2122,189,7143,8433,13390,20022,65535,65535
154,154,157,154,154,147,156,154,161,163,159,160,164,164,162,166,345,343,341,377,346,343,343,344,2807,2809,2808,2818,2809,2808,2820,2825,749,750,33530,27036,9069,9900,883,764,835,835,17108,14572,23933,30720,1190,873,687,179,31781,31353,21130,22366,25411,42490,2127,190,7135,8425,13385,20007,65535,65535
154,153,151,153,154,153,155,156,163,162,159,157,163,161,163,163,344,348,340,374,345,345,343,342,2814,2809,2805,2819,2809,2808,2819,2821,749,749,33595,27126,9089,9925,884,763,838,832,17118,14588,23935,30749,1189,873,685,177,31767,31361,21149,22381,25418,42491,2118,189,7133,8428,13390,20019,65535,65535
154,154,155,156,155,157,155,154,162,162,160,162,161,162,161,159,343,345,339,372,344,342,346,345,2807,2809,2805,2819,2816,2813,2824,2821,751,748,33609,27122,9087,9919,884,761,836,833,17123,14593,23939,30751,1190,875,685,181,31777,31349,21152,22381,25418,42499,2127,189,7140,8427,13391,20019,65535,65535
155,154,153,159,153,153,155,155,160,159,157,159,164,162,161,166,343,343,339,373,344,342,343,342,2810,2805,2802,2814,2804,2804,2814,2815,750,749,33649,27188,9099,9948,886,764,837,833,17134,14608,23961,30815,1193,875,686,178,31779,31365,21163,22401,25430,42533,2118,189,7136,8429,13395,20036,65535,65535
153,156,153,155,154,152,155,155,161,161,163,160,166,162,162,166,343,342,338,377,343,343,344,343,2805,2804,2802,2815,2808,2808,2820,2819,753,751,33756,27342,9123,9992,889,767,838,835,17167,14663,24004,30941,1195,878,691,177,31806,31406,21188,22441,25449,42589,2128,188,7143,8432,13407,20066,65535,65535
157,157,152,153,154,154,154,154,163,166,159,162,165,161,160,161,343,343,338,373,341,342,344,343,2808,2805,2801,2818,2809,2809,2820,2820,754,753,33851,27479,9146,10032,890,769,843,839,17212,14725,24048,31062,1201,882,688,179,31840,31464,21213,22481,25468,42644,2121,188,7143,8445,13422,20099,65535,65535
155,157,153,155,154,157,155,158,161,162,159,160,161,161,162,162,344,343,338,373,343,344,346,342,2809,2807,2803,2819,2810,2813,2823,2825,757,754,33951,27607,9166,10065,896,770,843,839,17252,14788,24089,31184,1203,886,688,177,31880,31519,21236,22522,25491,42703,2133,189,7150,8452,13435,20133,65535,65535
153,153,155,157,154,154,155,156,159,160,163,158,166,162,161,162,341,343,339,373,342,342,343,345,2812,2812,2812,2825,2818,2819,2829,2831,758,756,34047,27753,9190,10109,900,774,846,842,17297,14847,24133,31316,1210,889,687,179,31921,31591,21267,22571,25515,42771,2127,189,7155,8465,13454,20175,65535,65535
154,154,153,153,156,162,155,157,162,162,159,165,163,162,159,162,346,343,337,373,344,343,346,342,2818,2821,2816,2831,2819,2819,2825,2825,765,760,34182,27909,9211,10127,901,773,847,846,17343,14909,24170,31409,1209,887,691,178,31963,31652,21299,22613,25537,42776,2137,189,7161,8473,13468,20207,65535,65535
153,153,157,157,157,153,157,156,163,163,159,159,158,162,160,165,342,343,338,371,341,342,341,342,2811,2810,2803,2820,2811,2809,2817,2814,762,756,33892,27371,9122,9935,888,765,847,843,17295,14812,24109,31119,1200,878,688,177,32043,31618,21267,22499,25507,42651,2130,190,7166,8462,13441,20107,65535,65535
152,153,154,154,154,153,156,157,162,161,165,158,159,159,163,163,343,343,345,373,342,343,342,342,2804,2802,2795,2810,2799,2800,2812,2811,751,750,33681,27115,9086,9880,886,763,840,837,17195,14663,24023,30863,1191,878,690,178,31987,31523,21238,22455,25495,42615,2134,190,7160,8445,13430,20063,65535,65535
154,153,153,153,152,156,155,153,160,157,160,161,161,161,162,163,340,339,337,371,341,343,343,343,2801,2801,2797,2810,2803,2806,2812,2809,751,747,33635,27046,9086,9871,885,762,838,833,17155,14602,23990,30759,1191,875,687,180,31973,31483,21232,22430,25485,42588,2124,189,7155,8434,13422,20047,65535,65535
157,155,152,153,154,158,155,154,159,162,157,158,160,163,159,163,341,341,337,373,343,343,342,342,2799,2800,2797,2810,2801,2800,2808,2809,749,747,33667,27106,9098,9899,883,763,836,831,17153,14600,23981,30771,1188,877,688,177,31956,31465,21235,22441,25491,42614,2132,190,7153,8436,13429,20057,65535,65535
156,157,158,156,157,154,159,155,162,166,158,158,158,165,159,162,340,341,338,377,342,340,341,345,2799,2800,2795,2813,2805,2803,2817,2815,750,749,33709,27139,9103,9901,883,762,837,834,17163,14613,23988,30786,1191,876,687,179,31965,31475,21251,22447,25496,42610,2125,188,7155,8440,13431,20059,65535,65535
154,153,154,153,148,154,158,157,162,166,159,159,164,165,161,162,340,340,337,373,341,341,338,340,2804,2802,2803,2816,2806,2806,2817,2815,751,749,33729,27174,9107,9923,885,763,837,835,17175,14625,23999,30826,1196,877,688,180,31963,31465,21260,22463,25503,42642,2133,190,7153,8434,13435,20069,65535,65535
153,155,154,157,156,157,156,157,161,165,162,157,162,161,161,163,339,339,335,370,341,344,342,340,2797,2795,2790,2806,2793,2793,2802,2800,751,749,33824,27320,9133,9962,888,766,838,835,17198,14671,24050,30942,1197,880,685,179,31972,31489,21283,22499,25522,42687,2127,189,7153,8441,13445,20099,65535,65535
156,159,155,156,153,155,155,155,160,164,159,161,160,161,160,167,342,340,338,370,343,341,345,341,2784,2781,2775,2787,2772,2767,2771,2767,753,757,33939,27469,9159,10014,889,769,840,839,17233,14730,24085,31064,1197,879,689,181,32037,31579,21301,22535,25539,42742,2135,190,7161,8457,13458,20129,65535,65535
154,152,155,153,157,152,159,156,162,160,159,160,159,162,157,163,341,342,337,373,340,340,340,339,2749,2745,2736,2749,2735,2728,2732,2722,753,750,34051,27615,9181,10052,887,763,839,835,17270,14784,24115,31179,1195,875,687,180,32058,31623,21327,22573,25548,42794,2129,190,7170,8466,13468,20164,65535,65535
152,154,155,155,155,156,155,155,162,166,160,160,161,161,158,160,338,337,333,367,340,337,340,338,2705,2695,2688,2697,2686,2683,2687,2679,750,750,34139,27740,9200,10085,881,760,834,831,17311,14838,24162,31310,1192,871,691,180,32101,31689,21351,22629,25579,42862,2139,191,7173,8475,13490,20206,65535,65535
154,152,157,156,155,152,156,154,162,162,156,165,159,165,159,161,340,338,334,366,338,335,335,335,2664,2658,2654,2663,2655,2652,2658,2655,751,746,34255,27881,9225,10119,882,757,832,827,17343,14889,24203,31426,1193,868,689,183,32174,31781,21383,22675,25607,42913,2133,189,7177,8485,13502,20241,65535,65535
153,156,158,155,159,155,157,155,162,160,157,159,164,161,161,159,336,335,333,367,336,340,336,336,2640,2635,2627,2638,2624,2624,2635,2636,744,742,34298,27805,9196,10022,875,749,829,826,17379,14907,24213,31378,1187,865,695,179,32199,31790,21407,22652,25607,42829,2146,189,7179,8487,13510,20219,65535,65535
153,156,153,161,154,161,151,154,162,167,158,158,163,161,162,162,336,335,331,367,336,337,336,339,2624,2623,2618,2633,2620,2624,2633,2635,738,734,33842,27173,9111,9867,870,746,825,823,17254,14724,24101,30987,1182,863,689,175,32237,31700,21357,22551,25575,42740,2134,189,7177,8468,13474,20119,65535,65535
153,153,161,152,159,152,157,159,167,162,159,158,161,164,161,162,336,339,331,367,339,337,335,336,2623,2626,2623,2637,2630,2633,2642,2642,737,734,33751,27038,9094,9835,867,746,825,820,17177,14612,24034,30794,1180,865,689,177,32205,31637,21338,22507,25557,42681,2139,190,7170,8448,13462,20077,65535,65535
154,156,152,154,156,154,157,155,161,165,159,159,158,162,157,164,336,337,333,367,338,337,338,338,2626,2627,2620,2637,2623,2619,2629,2629,738,732,33686,26941,9090,9834,867,751,824,822,17141,14557,24009,30709,1178,865,687,177,32183,31587,21334,22483,25550,42669,2130,189,7161,8437,13457,20058,65535,65535
156,154,153,154,149,156,159,155,157,162,156,163,165,161,161,163,337,338,334,367,337,337,335,341,2616,2612,2606,2618,2607,2607,2615,2617,734,733,33747,27035,9111,9869,865,747,825,823,17146,14567,24011,30740,1182,866,689,181,32184,31588,21353,22507,25551,42670,2135,190,7159,8437,13459,20072,65535,65535
156,152,155,155,155,154,165,152,166,160,158,160,160,162,161,165,337,337,333,368,339,336,338,340,2607,2606,2603,2617,2609,2603,2610,2608,735,734,33763,27055,9123,9890,871,748,831,826,17154,14579,24026,30765,1189,870,690,176,32196,31599,21373,22514,25559,42679,2127,189,7155,8434,13461,20069,65535,65535
157,152,151,154,154,154,155,158,158,162,156,165,163,162,162,163,338,339,335,368,337,338,339,339,2592,2594,2591,2607,2601,2597,2607,2604,737,735,33811,27130,9146,9926,878,753,831,830,17183,14605,24063,30843,1190,876,690,178,32191,31599,21396,22547,25573,42720,2135,190,7161,8435,13466,20087,65535,65535
155,153,152,155,156,156,153,158,161,162,163,160,159,159,160,160,338,339,334,367,338,337,338,337,2586,2580,2574,2583,2573,2573,2580,2583,742,739,33909,27278,9181,9988,881,755,838,833,17201,14655,24106,30968,1196,875,690,175,32254,31674,21415,22587,25579,42752,2128,190,7159,8442,13475,20114,65535,65535
155,155,156,155,151,153,155,156,165,162,158,163,165,165,160,164,336,337,333,368,337,338,339,339,2571,2573,2568,2585,2577,2579,2585,2585,743,742,34018,27429,9211,10033,879,758,840,834,17247,14722,24153,31104,1196,877,691,178,32277,31711,21449,22635,25599,42808,2142,180,7162,8447,13488,20145,65535,65535
154,152,154,152,154,159,155,156,161,159,162,161,160,158,160,163,337,338,333,368,338,339,341,340,2575,2576,2575,2595,2590,2599,2612,2615,743,743,34124,27569,9237,10076,887,762,840,836,17289,14786,24203,31249,1202,881,689,184,32299,31761,21483,22685,25627,42867,2133,189,7170,8461,13503,20186,65535,65535
154,154,162,157,154,157,155,155,162,162,159,160,161,161,165,166,342,338,338,371,345,343,344,346,2609,2615,2620,2643,2639,2649,2662,2667,750,750,34233,27699,9265,10110,890,765,843,843,17337,14848,24256,31374,1205,883,692,181,32347,31808,21510,22719,25643,42921,2143,190,7177,8475,13520,20221,65535,65535
155,158,153,157,153,153,154,154,164,166,160,159,162,166,163,165,345,344,340,373,343,342,341,341,2661,2663,2658,2678,2672,2679,2697,2707,751,753,34405,27889,9298,10149,897,770,847,845,17401,14913,24319,31523,1215,891,691,174,32364,31853,21558,22784,25678,42999,2136,189,7205,8502,13549,20274,65535,65535
152,155,153,154,154,153,154,155,161,165,161,161,165,165,161,166,342,340,341,371,342,341,341,342,2705,2711,2711,2732,2721,2728,2740,2741,760,762,34479,27883,9282,10078,895,770,853,852,17436,14943,24329,31489,1217,891,693,179,32414,31891,21566,22753,25674,42905,2148,197,7218,8517,13554,20248,65535,65535
154,157,156,153,151,151,155,157,162,166,155,161,162,161,161,161,341,343,341,373,343,341,344,344,2729,2733,2730,2744,2735,2734,2744,2745,755,753,34006,27205,9169,9885,886,763,851,850,17334,14772,24217,31095,1205,883,690,177,32387,31726,21483,22610,25628,42792,2140,187,7219,8492,13527,20147,65535,65535
154,158,152,153,154,154,157,153,164,159,163,160,163,161,161,165,340,342,337,372,343,345,342,342,2729,2729,2726,2739,2731,2732,2741,2743,755,749,33900,27045,9138,9840,882,760,848,842,17253,14647,24139,30877,1200,879,693,178,32327,31618,21457,22555,25610,42725,2145,190,7217,8479,13516,20111,65535,65535
154,153,155,144,155,158,154,153,166,162,156,161,158,162,164,162,342,344,340,374,343,343,342,343,2727,2727,2723,2735,2728,2726,2732,2733,748,750,33819,26939,9127,9825,879,758,843,838,17213,14583,24094,30767,1194,879,688,178,32287,31555,21423,22505,25587,42688,2131,189,7211,8466,13509,20086,65535,65535
153,156,155,156,156,157,159,154,165,160,174,162,162,162,160,160,343,343,338,371,341,342,341,343,2722,2722,2718,2733,2722,2724,2729,2733,749,745,33858,27026,9139,9857,879,758,842,837,17217,14597,24104,30802,1197,879,691,177,32251,31525,21419,22508,25577,42687,2139,183,7209,8466,13519,20104,65535,65535
