 ECG Channel 
-2958.298082
-2976.000664
-2976.961789
-2972.49144
-2971.709129
-2983.421443
-2988.629399
-2972.379681
-2955.437059
-2950.854951
-2942.405992
-2925.709239
-2917.997887
-2924.256375
-2927.475027
-2914.376904
-2905.257393
-2914.734532
-2924.636355
-2914.935698
-2902.172852
-2910.599459
-2921.149483
-2916.36621
-2903.826881
-2905.078579
-2918.713143
-2917.774369
-2911.493529
-2934.448771
-3002.956868
-3061.317272
-3092.453252
-3102.511537
-3089.838098
-3047.772115
-2898.618924
-2759.747536
-2721.280184
-2734.087734
-2777.919504
-2731.561986
-2725.83994
-2740.368574
-2774.253818
-2835.207025
-2897.546041
-2952.844257
-2981.096861
-2995.290219
-3021.039429
-3046.118086
-3039.524321
-3012.232842
-3005.236746
-3015.764417
-3016.479673
-3004.208565
-3002.59924
-3017.194929
-3023.118141
-3014.333905
-3011.204661
-3022.827568
-3034.048144
-3029.242519
-3024.816874
-3036.283319
-3048.174447
-3045.447534
-3039.658432
-3052.622444
-3069.87799
-3073.543677
-3069.699177
-3080.919752
-3103.785587
-3114.156796
-3111.631049
-3122.806921
-3149.405497
-3168.113907
-3169.343253
-3175.892314
-3196.59003
-3208.50351
-3202.848518
-3198.624039
-3210.604574
-3219.187643
-3205.463672
-3190.420948
-3192.74553
-3194.354855
-3177.233419
-3152.713555
-3141.180055
-3135.905044
-3112.458064
-3080.830345
-3062.770136
-3058.992691
-3043.972319
-3017.843129
-3006.06376
-3007.583679
-3000.229955
-2980.202792
-2970.18921
-2976.626513
-2977.23001
-2961.695547
-2950.58673
-2957.605178
-2964.444812
-2954.29712
-2941.288405
-2945.311719
-2954.766507
-2949.200922
-2939.164989
-2945.267015
-2960.667367
0
-3365.72568
-3364.295168
-3347.754878
-3346.771401
-3355.309767
-3352.962834
-3338.613014
-3345.60911
-3355.488581
-3353.8122
-3350.794715
-3353.745145
-3366.887971
-3361.635311
-3354.32629
-3359.400136
-3373.526439
-3379.896686
-3367.714985
-3357.880218
-3370.106622
-3384.545849
-3371.604189
-3350.437087
-3336.355488
-3341.652851
-3332.913319
-3312.059142
-3312.617935
-3323.883214
-3317.602374
-3300.771511
-3302.917278
-3316.238918
-3313.132025
-3298.268115
-3298.58104
-3312.528528
-3320.508101
-3308.080531
-3299.944496
-3313.06497
-3319.748142
-3308.661676
-3309.980429
-3351.24175
-3411.233832
-3443.018012
-3448.293024
-3445.879036
-3454.193885
-3421.962669
-3301.285601
-3222.316888
-3183.469556
-3157.720346
-3169.253846
-3129.71361
-3096.320104
-3075.465927
-3151.75243
-3261.052461
-3334.433238
-3353.320462
-3352.918131
-3364.630445
-3389.954971
-3405.712951
-3401.019085
-3381.729529
-3378.28736
-3385.19405
-3374.599323
-3358.617825
-3366.418584
-3377.661512
-3377.437994
-3371.626541
-3381.282494
-3402.986038
-3407.948125
-3398.985076
-3399.342704
-3409.15512
-3417.380562
-3416.486492
-3418.453445
-3436.603062
-3453.322167
-3452.003414
-3451.981062
-3470.53301
-3487.945019
-3489.576696
-3494.069397
-3512.084903
-3537.454133
-3551.043993
-3549.546426
-3563.091584
-3584.303389
-3590.494822
-3578.536639
-3578.871915
-3592.595886
-3588.505517
-3567.91956
-3558.665938
-3560.968168
-3549.680537
-3523.238423
-3498.405635
-3489.934324
-3479.741929
-3454.238588
-3430.255166
-3417.268803
-3418.453445
-3409.244527
-3390.916096
-3392.748939
-3400.348532
-3403.1425
-3417.805245
-3437.47478
-3448.516542
-3440.648727
-3415.167739
-3408.126939
-3414.139559
-3404.394198
-3383.607076
-3375.649855
-3384.81407
-3384.81407
-3366.418584
-3355.60034
-3358.751936
-3363.043471
-3349.9677
-3343.977433
-3368.899628
-3379.829631
-3364.384575
-3354.013366
-3364.518686
-3377.706215
-3373.705253
-3362.194104
-3368.989035
-3385.439919
-3383.271799
-3372.587666
-3376.342759
-3393.933582
-3397.465157
-3383.02593
-3376.275703
-3388.010369
-3397.822785
-3387.362169
-3377.594456
-3385.506974
-3395.364093
-3386.959837
-3379.472003
-3383.78589
-3389.530288
-3383.070634
-3368.899628
-3369.43607
-3380.522535
-3375.091061
-3357.835514
-3356.62852
-3366.552695
-3368.072613
-3356.047375
-3348.783058
-3351.487619
-3352.180523
-3353.700442
-3360.048337
-3366.709157
-3371.693596
-3366.329177
-3360.584779
-3372.922942
-3372.3865
-3368.452593
-3369.145497
-3378.28736
-3390.9608
-3383.741186
-3369.57018
-3383.629427
-3403.835404
-3390.916096
-3360.271854
-3346.659642
-3349.095982
-3350.638253
-3332.108656
-3325.693706
-3333.427409
-3334.120313
-3319.099941
-3317.200043
-3325.783113
-3326.073685
-3308.19229
-3300.033903
-3318.250575
-3331.661622
-3321.893909
-3312.349714
-3317.781188
-3326.677183
-3328.44297
-3348.023098
-3398.001599
-3446.102553
-3480.010149
-3480.14426
-3468.521353
-3452.71867
-3345.60911
-3224.440303
-3183.804832
-3164.269407
-3211.699809
-3169.611474
-3132.686392
-3133.334593
-3207.74355
-3300.659752
-3357.723756
-3388.770329
-3408.126939
-3425.18132
-3428.914062
-3439.933472
-3456.764335
-3444.493228
-3420.733323
-3417.8723
-3425.04721
-3415.413608
-3393.01716
-3399.745035
-3422.320297
-3425.717762
-3415.458311
-3415.346553
-3430.076352
-3439.732306
-3429.964594
-3427.260033
-3440.872245
-3454.819733
-3449.589425
-3448.583597
-3461.212332
-3471.315321
-3468.320187
-3473.595199
-3492.57183
-3513.180138
-3522.232595
-3520.3774
-3529.653374
-3556.76604
-3574.714491
-3579.386005
-3586.829136
-3599.457872
-3602.520061
-3590.271305
-3584.236334
-3595.45691
-3594.316971
-3570.199438
-3557.324834
-3562.331624
-3542.304461
-3509.715618
-3492.996513
-3492.728292
-3479.808984
-3449.969405
-3425.851873
-3414.653649
-3412.686695
-3398.40393
-3379.94139
-3376.342759
-3383.271799
-3371.961817
-3356.382651
-3354.32629
-3365.859791
-3364.518686
-3344.647985
-3339.417677
-3355.198008
-3359.623654
-3346.1232
-3341.183465
-3355.577988
-3362.104697
-3349.051279
-3336.154322
-3345.340889
-3357.366128
-3353.991014
-3340.781133
-3344.156247
-3356.159133
-3354.594511
-3348.894817
-3355.913264
-3373.817012
-3384.098814
-3379.002616
-3376.834497
-3392.748939
-3400.460291
-3384.054111
-3382.221267
-3393.263029
-3395.408797
-3384.389387
-3383.763538
-3397.867489
-3409.691561
-3396.124053
-3382.020102
-3390.759634
-3403.90246
-3389.999675
-3372.095927
-3380.947218
-3394.693541
-3389.329122
-3375.918076
-3373.884067
-3384.769366
-3384.81407
-3366.977378
-3367.335006
-3375.515744
-3368.944331
-3356.673224
-3352.336985
-3364.943369
-3373.682901
-3360.182447
-3352.895779
-3376.812145
-3387.831555
-3379.382596
-3363.781078
-3373.749956
-3391.47489
-3384.031759
-3374.487564
-3393.061864
-3408.90925
-3399.990904
-3390.558468
-3389.127957
-3390.737282
-3370.955988
-3347.263139
-3335.416715
-3340.289395
-3340.155284
-3326.498369
-3323.302069
-3340.110581
-3346.480828
-3330.834607
-3321.201005
-3329.560558
-3337.495427
-3328.934709
-3317.714133
-3318.988182
-3325.157264
-3328.040639
-3321.223357
-3331.751029
-3356.360299
-3388.211535
-3428.198806
-3473.952827
-3515.460016
-3498.137414
-3462.84401
-3388.882087
-3263.198228
-3195.763015
-3153.16059
-3186.062358
-3198.892259
-3157.563884
-3136.106209
-3146.902102
-3250.971824
-3330.544034
-3365.300997
-3379.337892
-3408.976306
-3439.240568
-3442.414515
-3435.396068
-3433.987908
-3438.078277
-3433.093838
-3416.441788
-3414.430131
-3426.745942
-3424.935451
-3412.641992
-3414.072503
-3429.4058
-3432.579748
-3418.632259
-3420.621564
-3442.682736
-3449.52237
-3436.491303
-3427.461198
-3443.599158
-3463.112231
-3463.559266
-3460.318263
-3475.115117
-3491.431891
-3489.397882
-3490.023731
-3504.440606
-3526.300612
-3543.891435
-3548.920578
-3566.086717
-3589.086662
-3594.026398
-3587.678503
-3588.03613
-3603.414131
-3611.013724
-3589.220773
-3583.945761
-3596.775663
-3596.48509
-3573.239276
-3551.267511
-3539.778714
-3527.261737
-3497.086882
-3470.510658
-3461.368795
-3450.818771
-3425.829521
-3403.634239
-3402.62841
-3406.47291
-3391.117262
-3369.391366
-3359.601302
-3362.328215
-3366.351529
-3356.919093
-3357.321424
-3365.099831
-3365.59157
-3350.414735
-3343.262177
-3352.046412
-3354.952139
-3346.994918
-3344.178598
-3349.095982
-3351.353508
-3340.378802
-3328.644136
-3338.165979
-3351.621729
-3342.345755
-3332.488636
-3357.567293
-3375.001654
-3369.681939
-3357.6567
-3359.735413
-3376.298055
-3378.220305
-3364.31752
-3362.842305
-3380.410776
-3384.702311
-3371.179506
-3369.011387
-3385.015236
-3387.138651
-3372.230038
-3369.458421
-3381.975398
-3394.000637
-3385.641084
-3371.224209
-3379.382596
-3391.854869
-3380.45548
-3367.871448
-3376.09689
-3387.138651
-3381.506012
-3368.318482
-3371.291264
-3382.087157
-3378.600285
-3359.087212
-3351.286453
-3360.651834
-3369.994863
-3365.72568
-3360.629482
-3366.731509
-3362.171753
-3353.789849
-3350.660604
-3361.143572
-3374.912247
-3366.217418
-3353.745145
-3363.602264
-3380.388424
-3373.571142
-3360.204799
-3359.511895
-3376.722738
-3386.557506
-3373.951122
-3378.443823
-3393.151271
-3394.8053
-3389.329122
-3392.12309
-3400.728512
-3387.228058
-3358.617825
-3344.647985
-3345.340889
-3347.307843
-3335.573177
-3327.012459
-3331.728677
-3332.53334
-3314.674296
-3301.419711
-3311.545052
-3325.917223
-3316.0154
-3299.586868
-3301.419711
-3308.035828
-3299.363351
-3282.286618
-3280.766699
-3296.256458
-3303.45372
-3325.805464
-3384.389387
-3434.65846
-3460.430021
-3429.517559
-3385.84225
-3281.861935
-3133.088724
-3042.698269
-3017.418446
-3085.457156
-3083.445499
-3044.508761
-3041.42422
-3077.477584
-3156.781573
-3216.818359
-3259.577246
-3301.509118
-3338.121276
-3361.300035
-3369.659587
-3375.694558
-3373.481735
-3373.593494
-3367.424413
-3369.57018
-3378.53323
-3389.127957
-3383.78589
-3379.650817
-3392.771291
-3402.606058
-3397.666323
-3393.419491
-3407.054056
-3424.399009
-3421.068599
-3408.104588
-3419.347515
-3446.281367
-3448.181265
-3440.648727
-3448.695355
-3463.603969
-3466.509696
-3472.499963
-3490.157841
-3517.717542
-3531.9109
-3529.720429
-3538.415258
-3563.739784
-3584.370444
-3583.431671
-3585.868011
-3605.58225
-3617.339267
-3614.142968
-3608.935011
-3613.450064
-3612.734808
-3602.698875
-3585.130404
-3575.47445
-3570.534715
-3547.490066
-3521.673801
-3504.954696
-3496.282219
-3480.613647
-3454.350347
-3436.178379
-3434.65846
-3423.594346
-3397.107529
-3387.920962
-3393.374788
-3386.892782
-3369.838401
-3362.238808
-3373.973474
-3383.070634
-3366.575046
-3354.594511
-3361.121221
-3374.845192
-3370.330139
-3354.929788
-3358.103735
-3369.234904
-3364.116354
-3354.974491
-3361.523552
-3377.594456
-3376.588628
-3360.718889
-3355.73445
-3372.721776
-3375.135764
-3360.830648
-3355.712099
-3363.579913
-3379.807279
-3378.644988
-3376.543924
-3385.216401
-3393.218326
-3387.608038
-3378.220305
-3384.635256
-3395.386445
-3390.178489
-3371.894762
-3376.163945
-3395.185279
-3389.105605
-3378.488526
-3381.86364
-3393.687712
-3389.284419
-3375.091061
-3373.012349
-3380.678997
-3383.54002
-3371.425375
-3368.653759
-3380.678997
-3383.964704
-3368.363186
-3361.300035
-3368.184372
-3374.68873
-3364.853962
-3352.672261
-3362.194104
-3373.347625
-3364.138706
-3359.377785
-3365.546866
-3375.225171
-3366.396232
-3348.246616
-3349.878293
-3360.629482
-3359.981282
-3347.956043
-3345.586758
-3355.488581
-3360.115392
-3350.682956
-3346.749049
-3363.177581
-3376.923904
-3360.98711
-3350.012404
-3364.429279
-3376.767442
-3367.603227
-3356.963796
-3368.452593
-3395.520555
-3406.182338
-3397.576916
-3406.539965
-3416.59825
-3407.590497
-3389.373826
-3377.035663
-3374.241695
-3361.970587
-3340.512912
-3339.685898
-3346.056145
-3343.843322
-3327.437142
-3320.731618
-3332.28747
-3334.701459
-3321.156302
-3299.586868
-3309.041656
-3343.128066
-3337.696593
-3325.805464
-3327.839473
-3334.679107
-3322.944441
-3318.496444
-3336.713116
-3381.215439
-3434.971384
-3470.689472
-3508.150996
-3526.501778
-3507.726313
-3431.529216
-3288.433348
-3206.827129
-3177.546344
-3187.448166
-3208.25764
-3167.935093
-3161.676605
-3152.154762
-3200.680399
-3276.363406
-3354.460401
-3395.364093
-3404.796529
-3438.681774
-3462.866361
-3462.866361
-3441.363983
-3429.562262
-3439.195864
-3437.944166
-3420.643916
-3415.480663
-3425.650707
-3430.098704
-3417.604079
-3414.050152
-3429.383448
-3437.0948
-3425.002506
-3424.287251
-3441.743963
-3450.371736
-3442.548626
-3433.429114
-3437.631242
-3457.345481
-3468.409594
-3466.464992
-3477.126774
-3493.868231
-3505.424083
-3501.221955
-3511.66022
-3539.197569
-3554.083831
-3555.246121
-3564.343281
-3588.058482
-3598.250878
-3595.121633
-3600.620163
-3615.215852
-3618.099227
-3601.178956
-3587.410282
-3590.472471
-3590.85245
-3579.788337
-3556.319005
-3545.903092
-3540.941005
-3516.801121
-3483.60878
-3467.224952
-3464.676853
-3457.345481
-3428.243509
-3415.100684
-3419.526329
-3408.529271
-3388.569163
-3378.197953
-3383.987055
-3382.847116
-3365.435107
-3355.846209
-3358.93075
-3372.699424
-3371.514782
-3365.412756
-3370.84423
-3373.258218
-3360.718889
-3349.07363
-3355.913264
-3365.099831
-3357.969625
-3355.980319
-3360.227151
-3370.799526
-3369.011387
-3363.512857
-3373.146459
-3388.122128
-3391.899573
-3377.885029
-3376.052186
-3391.609
-3399.901497
-3390.893744
-3384.098814
-3397.554564
-3403.030742
-3395.989942
-3398.180413
-3400.952029
-3403.075445
-3400.504994
-3390.916096
-3401.957858
-3418.162873
-3408.059884
-3388.79268
-3393.464195
-3410.965611
-3411.770274
-3398.538041
-3397.711026
-3405.936468
-3402.918983
-3385.46227
-3378.734395
-3389.351474
-3389.060901
-3377.281532
-3372.855887
-3386.088119
-3384.858773
-3377.214477
-3371.537134
-3375.918076
-3386.669265
-3380.343721
-3369.659587
-3375.918076
-3386.22223
-3383.875297
-3372.00652
-3371.805355
-3390.737282
-3398.26982
-3388.390349
-3381.729529
-3391.005503
-3403.298963
-3394.648837
-3398.26982
-3418.073466
-3420.755675
-3403.611887
-3397.487509
-3414.720704
-3417.939355
-3393.643009
-3370.263084
-3370.84423
-3370.911285
-3361.36709
-3357.254369
-3357.835514
-3364.004596
-3354.70627
-3330.566386
-3334.053258
-3347.553712
-3356.807334
-3350.638253
-3344.223302
-3351.957005
-3351.398212
-3334.835569
-3336.422543
-3354.348642
-3366.128011
-3389.016198
-3435.03844
-3482.714711
-3506.944002
-3499.120891
-3487.162708
-3455.445582
-3353.566331
-3267.534467
-3205.8213
-3206.894184
-3251.396507
-3216.147806
-3170.594951
-3158.167381
-3258.794935
-3356.069726
-3397.107529
-3413.51371
-3441.788666
-3458.351309
-3458.23955
-3468.923684
-3481.373606
-3468.521353
-3442.325108
-3431.640974
-3442.436867
-3442.906254
-3427.841178
-3419.325163
-3430.121056
-3445.320242
-3448.516542
-3441.900425
-3449.589425
-3461.882885
-3456.853742
-3448.225969
-3454.596216
-3474.735138
-3482.670007
-3468.677815
-3473.729309
-3505.51349
-3516.5329
-3511.28024
-3517.158749
-3538.370554
-3552.675671
-3548.875874
-3556.453116
-3590.450119
-3608.376218
-3604.17409
-3601.022494
-3621.451988
-3641.032117
-3631.040887
-3611.505462
-3613.360657
-3613.070084
-3599.547279
-3576.256761
-3571.160563
-3569.797107
-3549.658185
-3521.874967
-3499.545574
-3490.493118
-3472.83524
-3443.532103
-3424.354306
-3428.824655
-3425.315431
-3403.813053
-3386.266933
-3389.954971
-3396.548736
-3386.088119
-3374.040529
-3377.460346
-3382.400081
-3373.995826
-3358.17079
-3362.663491
-3377.929733
-3378.197953
-3363.557561
-3364.339872
-3372.185334
-3367.536171
-3347.933691
-3350.325328
-3371.917113
-3376.09689
-3363.579913
-3358.975453
-3371.537134
-3382.601247
-3377.035663
-3376.298055
-3392.458366
-3404.729474
-3398.158061
-3389.440881
-3394.447672
-3413.51371
-3409.333934
-3394.917058
-3404.796529
-3427.394143
-3425.918928
-3411.524404
-3413.759579
-3426.500073
-3421.649745
-3405.06475
-3400.281477
-3410.339762
-3415.503015
-3408.506919
-3407.344628
-3416.151216
-3412.776102
-3396.86166
-3391.184317
-3393.978285
-3397.867489
-3387.652741
-3377.013311
-3383.54002
-3392.815994
-3384.590552
-3374.711081
-3375.582799
-3389.843212
-3383.54002
-3369.458421
-3370.777174
-3381.237791
-3377.303884
-3360.383613
-3355.376822
-3371.246561
-3381.170735
-3370.330139
-3362.484677
-3372.364148
-3384.411738
-3381.550715
-3371.134802
-3375.694558
-3390.916096
-3390.06673
-3374.353453
-3376.09689
-3392.927753
-3400.370884
-3387.1163
-3395.095872
-3417.291155
-3419.861605
-3410.026838
-3410.898556
-3416.307678
-3396.772253
-3364.161058
-3355.577988
-3362.238808
-3361.612959
-3340.714078
-3330.141703
-3340.267043
-3345.631462
-3337.562482
-3330.208758
-3337.093095
-3342.345755
-3331.795732
-3324.442008
-3337.696593
-3348.268968
-3332.823912
-3325.514892
-3335.908453
-3351.286453
-3362.976416
-3395.609962
-3444.716745
-3490.381359
-3509.782673
-3492.035388
-3466.330882
-3393.464195
-3265.053423
-3194.108986
-3148.600834
-3196.72414
-3213.599707
-3168.069204
-3149.114925
-3174.953541
-3281.392548
-3344.916206
-3369.726642
-3395.140576
-3431.909195
-3447.73423
-3447.443658
-3454.685623
-3459.960635
-3443.777972
-3425.606003
-3424.555471
-3434.993736
-3433.138541
-3417.201748
-3413.156082
-3427.505902
-3435.910158
-3430.009297
-3425.449541
-3437.050097
-3444.716745
-3443.353289
-3441.989832
-3451.802248
-3470.01892
-3470.287141
-3458.083088
-3467.403766
-3485.642789
-3493.488251
-3487.855612
-3501.199603
-3525.048915
-3535.308365
-3534.570758
-3545.634871
-3577.083776
-3596.641552
-3589.466642
-3594.205212
-3610.83491
-3616.713419
-3604.531718
-3596.865069
-3600.418997
-3609.225584
-3593.802881
-3575.541505
-3573.239276
-3564.410337
-3537.252967
-3502.071321
-3487.609743
-3487.609743
-3467.359062
-3432.646803
-3415.145387
-3421.158006
-3417.805245
-3401.510823
-3390.692579
-3391.810166
-3384.29998
-3371.246561
-3365.658625
-3376.879201
-3384.165869
-3376.074538
-3367.044433
-3375.135764
-3378.376767
-3364.31752
-3353.074593
-3359.556599
-3365.882142
-3364.205761
-3354.393346
-3359.333081
-3370.553657
-3366.262122
-3354.460401
-3363.42345
-3380.857811
-3382.243619
-3372.699424
-3373.973474
-3387.295113
-3392.614829
-3388.882087
-3386.624561
-3400.281477
-3408.059884
-3396.593439
-3391.877221
-3403.567183
-3414.251317
-3407.635201
-3395.520555
-3402.62841
-3423.348477
-3423.25907
-3404.863585
-3408.328105
-3417.291155
-3411.07737
-3396.72755
-3399.968553
-3413.379599
-3407.031704
-3391.98898
-3393.307733
-3406.607021
-3401.019085
-3389.753805
-3389.798509
-3396.369922
-3397.733378
-3384.143518
-3374.621674
-3388.189183
-3392.927753
-3376.298055
-3365.815087
-3376.767442
-3393.151271
-3390.379654
-3374.554619
-3375.649855
-3385.551677
-3378.086195
-3362.238808
-3362.149401
-3372.364148
-3366.262122
-3360.651834
-3369.301959
-3379.963741
-3381.126032
-3366.977378
-3357.187314
-3365.926846
-3375.247523
-3381.438956
-3379.650817
-3385.372863
-3396.168756
-3394.917058
-3384.545849
-3391.139614
-3406.204689
-3409.915079
-3403.1425
-3415.05598
-3437.273614
-3429.852835
-3412.396123
-3414.251317
-3418.744018
-3403.589535
-3374.800488
-3360.495372
-3372.095927
-3377.594456
-3362.976416
-3349.051279
-3354.236883
-3362.819953
-3353.231055
-3342.502218
-3349.386555
-3354.885084
-3342.815142
-3334.120313
-3343.17277
-3354.19218
-3344.133895
-3333.785037
-3342.390459
-3360.182447
-3375.627503
-3408.685733
-3469.281312
-3532.112066
-3549.948758
-3510.721446
-3459.781821
-3341.608148
-3212.683286
-3148.734945
-3149.092573
-3220.931079
-3197.23823
-3166.929265
-3161.296625
-3198.624039
-3284.588848
-3334.053258
-3359.333081
-3400.527346
-3441.989832
-3456.518466
-3453.500981
-3463.514562
-3463.87219
-3450.684661
-3435.530178
-3435.150198
-3444.917911
-3448.740059
-3435.418419
-3431.260995
-3445.320242
-3449.477667
-3440.469914
-3437.541835
-3445.610815
-3453.500981
-3450.192922
-3448.293024
-3457.568998
-3471.762356
-3474.288103
-3469.460126
-3481.507716
-3497.913897
-3498.740911
-3500.082016
-3514.364781
-3537.297671
-3542.684441
-3545.187836
-3558.487124
-3585.130404
-3599.994314
-3602.184785
-3606.498671
-3621.921375
-3626.727
-3614.344134
-3614.768817
-3627.710477
-3628.559843
-3612.824215
-3600.821328
-3599.748445
-3591.008912
-3564.410337
-3534.056668
-3521.584394
-3513.470711
-3492.750644
-3466.554399
-3455.065603
-3453.702146
-3438.413553
-3413.848986
-3403.477776
-3413.916041
-3407.769311
-3385.886954
-3380.522535
-3388.949143
-3389.753805
-3379.337892
-3372.073576
-3381.416605
-3392.570125
-3382.198916
-3370.263084
-3372.230038
-3379.449651
-3374.599323
-3363.132878
-3367.759689
-3383.048282
-3380.880163
-3368.944331
-3372.878238
-3386.781023
-3385.752843
-3377.572105
-3379.628465
-3391.676055
-3395.4535
-3385.685788
-3382.981227
-3393.553602
-3409.222175
-3400.393236
-3392.614829
-3402.539003
-3407.076407
-3395.140576
-3383.987055
-3399.968553
-3417.201748
-3407.322277
-3392.458366
-3398.940372
-3409.736265
-3403.388369
-3391.296076
-3397.956896
-3404.774178
-3398.582744
-3386.199878
-3386.378692
-3399.789739
-3397.822785
-3382.556544
-3382.489488
-3392.190146
-3393.598305
-3378.957913
-3370.576009
-3377.840326
-3380.678997
-3368.16202
-3359.981282
-3373.548791
-3385.261105
-3379.114375
-3365.479811
-3368.743166
-3379.226134
-3376.119241
-3360.562427
-3361.948235
-3374.934599
-3370.397195
-3356.136782
-3349.543017
-3363.468154
-3373.548791
-3361.054165
-3357.164962
-3366.306825
-3367.670282
-3359.914227
-3354.57216
-3361.5012
-3372.475907
-3369.838401
-3365.189238
-3371.693596
-3373.481735
-3375.091061
-3375.247523
-3382.690654
-3391.296076
-3394.470023
-3388.591515
-3394.8053
-3415.301849
-3417.447617
-3398.962724
-3395.006465
-3413.625468
-3408.484567
-3376.655683
-3355.935616
-3364.138706
-3368.005558
-3353.745145
-3336.646061
-3340.579968
-3348.04545
-3336.087267
-3324.866691
-3336.646061
-3350.72766
-3341.697555
-3326.878348
-3330.119351
-3342.681032
-3334.634404
-3317.80354
-3321.893909
-3340.848189
-3357.544942
-3378.086195
-3432.423286
-3491.566001
-3531.955604
-3517.471673
-3485.441623
-3422.543814
-3280.856106
-3187.694035
-3156.021614
-3198.780501
-3230.072943
-3172.606608
-3158.010919
-3169.007977
-3256.805629
-3322.407999
-3350.772363
-3380.343721
-3420.129826
-3442.548626
-3445.230835
-3455.110306
-3465.302702
-3451.914007
-3427.885881
-3425.158969
-3437.072448
-3437.698297
-3426.321259
-3418.475797
-3420.845082
-3431.663326
-3437.139504
-3433.093838
-3444.761448
-3459.155972
-3457.814867
-3444.806152
-3458.172495
-3471.605894
-3470.868286
-3465.302702
-3471.628245
-3485.240458
-3493.957638
-3497.243344
-3509.939135
-3532.760266
-3542.952662
-3542.438572
-3546.819514
-3570.758232
-3591.210078
-3589.556049
-3588.661979
-3605.872823
-3621.072009
-3616.109921
-3606.699837
-3615.349962
-3630.5715
-3616.132273
-3592.148851
-3588.349055
-3594.205212
-3571.76406
-3533.631984
-3516.823473
-3514.99063
-3500.841975
-3469.482478
-3448.941225
-3449.455315
-3442.772143
-3420.17453
-3410.496224
-3409.356285
-3405.869413
-3386.758672
-3376.432166
-3385.775195
-3388.524459
-3376.476869
-3367.938503
-3373.548791
-3379.472003
-3369.883105
-3352.806372
-3352.672261
-3368.67611
-3368.854924
-3354.840381
-3356.047375
-3371.559485
-3374.152288
-3360.629482
-3365.256293
-3375.269875
-3374.219343
-3370.46425
-3372.408852
-3386.199878
-3392.480718
-3390.491413
-3387.518631
-3395.989942
-3407.23287
-3398.582744
-3389.776157
-3398.180413
-3403.477776
-3394.112396
-3389.68675
-3400.169718
-3413.379599
-3412.440826
-3401.488471
-3400.996733
-3414.0278
-3409.043361
-3394.872355
-3395.654666
-3403.410721
-3396.593439
-3378.801451
-3372.00652
-3393.039512
-3403.097797
-3388.323294
-3376.275703
-3387.228058
-3391.452538
-3378.220305
-3367.804392
-3375.269875
-3385.037587
-3373.884067
-3355.645043
-3361.635311
-3375.024006
-3372.095927
-3360.584779
-3361.836477
-3373.638198
-3369.771346
-3353.8122
-3350.213569
-3363.28934
-3367.871448
-3364.921017
-3368.452593
-3379.986093
-3388.747977
-3382.064805
-3370.106622
-3383.987055
-3400.214422
-3392.413663
-3387.38452
-3401.60023
-3422.521463
-3414.474835
-3397.062826
-3396.794605
-3395.766425
-3381.170735
-3358.841343
-3351.666433
-3360.160096
-3357.410831
-3335.304956
-3327.235976
-3345.340889
-3351.912302
-3337.696593
-3327.437142
-3335.930805
-3342.323404
-3333.717982
-3329.359392
-3341.608148
-3351.666433
-3336.601357
-3324.620822
-3331.952194
-3354.147476
-3365.815087
-3389.284419
-3437.161855
-3490.291952
-3510.453225
-3491.387187
-3482.535897
-3435.753695
-3312.215604
-3242.612272
-3187.671684
-3219.969954
-3244.668632
-3190.979742
-3150.07605
-3157.832105
-3279.425595
-3364.809259
-3397.398102
-3418.721666
-3435.530178
-3444.336765
-3451.243454
-3470.465955
-3480.300722
-3456.160838
-3431.775085
-3432.803265
-3443.330937
-3438.63707
-3425.404838
-3426.835349
-3437.452428
-3437.631242
-3425.069562
-3425.002506
-3443.554454
-3453.836257
-3444.895559
-3442.72744
-3462.665196
-3480.032501
-3475.830373
-3465.570923
-3479.496059
-3497.243344
-3494.382321
-3493.331789
-3515.839996
-3538.638775
-3546.595996
-3544.85256
-3560.23056
-3583.968113
-3596.172165
-3597.803843
-3601.536584
-3614.187671
-3613.204195
-3603.995276
-3605.381084
-3614.634706
-3613.539471
-3598.429692
-3578.603694
-3572.568723
-3564.410337
-3540.538673
-3514.789464
-3504.686475
-3492.504775
-3467.560228
-3439.240568
-3430.679849
-3427.170626
-3405.087102
-3384.478794
-3390.178489
-3401.667285
-3391.430186
-3369.972512
-3362.015291
-3376.275703
-3383.249448
-3372.565314
-3364.31752
-3370.777174
-3372.587666
-3361.009462
-3350.370032
-3357.880218
-3358.327253
-3344.536226
-3344.71504
-3361.411793
-3376.253352
-3371.783003
-3359.690709
-3365.815087
-3381.729529
-3380.343721
-3373.79466
-3382.601247
-3397.554564
-3399.834442
-3389.373826
-3386.535154
-3401.063788
-3407.948125
-3397.867489
-3394.179451
-3411.479701
-3415.078332
-3405.44473
-3404.148329
-3416.84412
-3421.537986
-3413.580765
-3404.55066
-3414.810111
-3423.527291
-3411.703218
-3397.152233
-3395.96759
-3406.785835
-3406.182338
-3393.508898
-3392.145442
-3397.24164
-3392.480718
-3385.238753
-3383.428262
-3394.090044
-3388.055073
-3373.124107
-3372.699424
-3386.535154
-3390.334951
-3376.09689
-3370.687767
-3377.929733
-3381.014273
-3366.329177
-3357.991976
-3368.609055
-3380.187259
-3369.614884
-3362.059994
-3379.673169
-3396.839308
-3388.479756
-3374.845192
-3373.012349
-3389.932619
-3396.705198
-3384.031759
-3381.371901
-3400.639105
-3406.942297
-3403.768349
-3409.848024
-3428.131751
-3428.399972
-3407.948125
-3395.252335
-3394.42532
-3394.604134
-3380.164907
-3357.030851
-3360.853
-3365.233942
-3353.722793
-3343.485694
-3349.498314
-3362.26116
-3356.606168
-3340.535264
-3337.718944
-3345.966738
-3350.504142
-3340.378802
-3335.349659
-3348.827761
-3354.415697
-3342.457514
-3341.094058
-3358.193142
-3389.105605
-3439.91112
-3488.772033
-3525.294784
-3535.040144
-3505.51349
-3451.578731
-3326.252499
-3226.161388
-3180.250905
-3157.608587
-3207.654143
-3190.845631
-3171.265503
-3152.892369
-3225.334373
-3329.001764
-3387.451576
-3399.230945
-3413.13373
-3451.712841
-3473.34933
-3465.235646
-3456.607873
-3455.445582
-3454.663271
-3439.620547
-3434.636108
-3446.370774
-3454.417402
-3446.795457
-3438.659422
-3449.924701
-3455.177361
-3447.711879
-3447.778934
-3459.245379
-3473.729309
-3474.466917
-3462.419327
-3465.056832
-3476.29976
-3478.467879
-3479.093728
-3485.01694
-3507.43574
-3524.534824
-3520.444455
-3520.355048
-3541.343336
-3558.442421
-3560.319967
-3573.485145
-3599.144947
-3618.099227
-3615.774645
-3605.939878
-3614.947631
-3628.224567
-3623.485997
-3609.583212
-3609.963192
-3611.304296
-3594.629895
-3580.86122
-3572.769889
-3572.278151
-3556.050784
-3526.457074
-3506.720484
-3495.276391
-3482.133565
-3454.953844
-3437.139504
-3437.072448
-3436.58071
-3417.984059
-3403.030742
-3403.410721
-3404.193032
-3393.553602
-3379.673169
-3383.316503
-3399.856794
-3391.184317
-3375.605151
-3374.018177
-3389.664398
-3388.300942
-3374.465212
-3373.906419
-3389.709102
-3387.429224
-3373.459384
-3368.318482
-3383.02593
-3392.480718
-3384.188221
-3378.488526
-3395.028817
-3403.410721
-3392.860698
-3392.033683
-3397.778082
-3414.385428
-3409.959782
-3403.097797
-3415.346553
-3432.490341
-3428.221158
-3414.273669
-3414.743056
-3425.874224
-3423.594346
-3412.038495
-3411.256184
-3418.609907
-3420.845082
-3413.871338
-3410.071541
-3416.374733
-3414.854814
-3412.686695
-3411.502053
-3422.253242
-3425.829521
-3407.545794
-3392.905401
-3401.376712
-3412.016143
-3404.215384
-3391.676055
-3392.748939
-3399.298
-3390.111433
-3380.477831
-3388.502108
-3400.795567
-3396.995771
-3382.981227
-3385.395215
-3410.339762
-3417.179396
-3405.891765
-3393.91123
-3399.298
-3411.569108
-3414.832463
-3414.497186
-3431.372754
-3447.577768
-3436.491303
-3419.325163
-3425.18132
-3429.137579
-3403.835404
-3378.421471
-3372.565314
-3378.689692
-3379.650817
-3366.664453
-3370.59836
-3374.241695
-3369.43607
-3355.376822
-3352.113468
-3367.893799
-3366.977378
-3353.29811
-3347.330194
-3357.276721
-3360.294206
-3343.910377
-3338.501255
-3353.454572
-3376.052186
-3391.698407
-3434.367887
-3488.324998
-3535.464827
-3544.249063
-3511.41435
-3461.681719
-3328.420619
-3192.410254
-3127.724305
-3129.378334
-3190.488004
-3160.111983
-3139.950709
-3144.644576
-3216.348972
-3296.859955
-3340.065877
-3375.515744
-3417.604079
-3452.383393
-3459.625359
-3464.073356
-3476.94796
-3474.221048
-3453.500981
-3438.88294
-3441.542797
-3450.595254
-3449.678832
-3440.2911
-3441.699259
-3460.02769
-3463.939245
-3453.053946
-3455.28912
-3468.364891
-3472.723481
-3461.56996
-3466.621455
-3483.653484
-3487.609743
-3487.408577
-3492.080091
-3514.342429
-3523.126665
-3516.242327
-3521.159711
-3545.836037
-3565.170296
-3569.864162
-3576.994369
-3600.575459
-3621.675506
-3625.251785
-3619.619145
-3631.398515
-3648.184675
-3648.274082
-3642.127352
-3646.955329
-3656.432468
-3650.531608
-3626.481131
-3608.666791
-3613.360657
-3605.269325
-3575.586209
-3551.289863
-3544.964319
-3534.280185
-3508.46392
-3480.971274
-3471.807059
-3464.140411
-3442.146294
-3421.426227
-3419.168701
-3422.342649
-3406.942297
-3386.825727
-3393.285381
-3401.063788
-3393.933582
-3378.868506
-3380.187259
-3398.26982
-3403.120149
-3385.015236
-3377.706215
-3383.383558
-3385.752843
-3376.253352
-3373.526439
-3384.389387
-3394.626486
-3388.524459
-3385.641084
-3397.778082
-3408.596326
-3400.460291
-3385.998712
-3395.207631
-3416.665306
-3416.397085
-3400.125015
-3404.528308
-3428.109399
-3436.156027
-3422.208538
-3414.698352
-3424.309602
-3429.830483
-3418.565204
-3415.011277
-3429.562262
-3428.89171
-3414.005448
-3407.411683
-3418.162873
-3428.444675
-3415.704181
-3403.634239
-3407.121111
-3411.971439
-3399.298
-3391.363131
-3408.842195
-3425.717762
-3418.721666
-3398.225117
-3395.989942
-3403.813053
-3397.711026
-3385.238753
-3387.1163
-3397.062826
-3395.207631
-3388.926791
-3395.699369
-3408.886899
-3405.780006
-3393.710064
-3393.419491
-3403.477776
-3410.742093
-3399.67798
-3396.325218
-3417.402913
-3437.519483
-3439.352326
-3432.378582
-3434.211425
-3439.486437
-3424.756637
-3403.298963
-3394.335913
-3393.173622
-3385.663436
-3372.341796
-3366.150363
-3369.681939
-3362.887009
-3350.884122
-3346.369069
-3353.119296
-3364.295168
-3353.387517
-3348.067802
-3360.808296
-3363.714023
-3350.705308
-3339.238863
-3351.621729
-3368.206724
-3366.642102
-3372.00652
-3428.444675
-3495.455205
-3528.021697
-3533.967261
-3524.2219
-3508.709789
-3386.781023
-3232.21871
-3176.786384
-3168.27037
-3225.088504
-3190.867983
-3154.859323
-3163.934131
-3206.469501
-3280.811403
-3341.406982
-3396.392273
-3435.619585
-3454.26094
-3463.045175
-3481.17244
-3491.476594
-3473.215219
-3451.399917
-3450.528199
-3460.631187
-3458.440716
-3443.710916
-3444.604986
-3462.776955
-3455.6691
-3444.113248
-3450.617606
-3476.43387
-3478.467879
-3467.627283
-3470.220085
-3484.234629
-3491.901278
-3479.987798
-3482.44649
-3502.786577
-3520.220938
-3515.057685
-3510.877909
-3525.563005
-3539.868121
-3541.209226
-3551.669842
-3578.558991
-3606.319857
-3616.378142
-3607.437445
-3619.507387
-3640.965061
-3642.86496
-3635.265366
-3638.238148
-3650.911588
-3647.961157
-3630.124465
-3619.93207
-3622.770741
-3616.825177
-3597.222697
-3575.876781
-3569.283017
-3553.748554
-3515.750589
-3493.264734
-3487.542687
-3484.413443
-3467.135545
-3446.773105
-3436.826579
-3435.485475
-3426.902405
-3405.891765
-3401.510823
-3413.245489
-3407.568146
-3392.838346
-3385.283456
-3391.139614
-3395.162928
-3386.982189
-3382.176564
-3394.984114
-3396.548736
-3378.622637
-3363.80343
-3377.169773
-3397.867489
-3395.475852
-3389.574991
-3400.169718
-3410.540928
-3402.986038
-3394.358265
-3400.639105
-3417.000582
-3417.380562
-3411.256184
-3413.156082
-3426.611832
-3429.852835
-3414.497186
-3416.352381
-3430.970422
-3429.4058
-3416.710009
-3406.785835
-3423.929623
-3433.876149
-3425.315431
-3417.224099
-3422.588518
-3422.521463
-3413.692524
-3409.110416
-3411.144425
-3418.855777
-3417.626431
-3408.864547
-3403.701294
-3408.886899
-3406.495262
-3393.464195
-3392.905401
-3403.745997
-3403.924811
-3393.687712
-3392.726587
-3404.707122
-3402.851928
-3395.587611
-3402.851928
-3416.799416
-3417.291155
-3415.726532
-3413.044323
-3422.700277
-3430.590442
-3423.974326
-3416.46414
-3429.02582
-3447.22014
-3434.52435
-3402.606058
-3390.58082
-3390.558468
-3384.098814
-3365.971549
-3364.18341
-3375.672206
-3376.029834
-3360.696538
-3349.610072
-3359.377785
-3361.948235
-3349.140686
-3345.765572
-3362.618788
-3367.089136
-3350.191218
-3337.495427
-3353.611035
-3368.318482
-3367.558523
-3378.53323
-3430.009297
-3479.183135
-3507.256926
-3506.92165
-3501.825452
-3502.071321
-3422.476759
-3295.340037
-3253.028185
-3222.205129
-3259.912522
-3235.571472
-3183.693073
-3157.273311
-3203.943754
-3314.003743
-3391.47489
-3429.852835
-3448.404783
-3458.083088
-3466.844972
-3482.893525
-3490.13549
-3474.243399
-3448.583597
-3451.466972
-3465.593274
-3456.473763
-3442.481571
-3440.514617
-3453.545684
-3459.021861
-3449.90235
-3453.098649
-3467.962559
-3468.476649
-3456.920797
-3458.910103
-3481.820641
-3491.990685
-3484.748719
-3476.836202
-3493.532955
-3515.102388
-3513.627173
-3513.224842
-3526.188854
-3544.807857
-3550.328738
-3552.385098
-3574.468622
-3601.335418
-3608.286811
-3602.587116
-3614.701762
-3630.817369
-3630.795018
-3621.85432
-3619.283869
-3630.839721
-3626.481131
-3608.197404
-3599.323761
-3599.860203
-3590.964209
-3562.242217
-3534.86133
-3531.508569
-3519.639792
-3494.695246
-3470.912989
-3462.508734
-3460.184152
-3441.475742
-3423.929623
-3418.945184
-3423.706105
-3414.206614
-3395.699369
-3394.246506
-3403.924811
-3396.548736
-3379.382596
-3377.527401
-3388.390349
-3392.436015
-3380.857811
-3375.605151
-3384.076462
-3386.758672
-3374.956951
-3367.424413
-3378.734395
-3392.704236
-3396.973419
-3382.020102
-3390.178489
-3409.132768
-3403.455425
-3395.989942
-3406.584669
-3422.186187
-3418.967535
-3407.322277
-3410.898556
-3429.137579
-3430.523387
-3415.860643
-3411.792625
-3426.008335
-3434.323184
-3427.975288
-3424.331954
-3435.239605
-3438.972347
-3431.752733
-3431.84214
-3437.765352
-3439.061754
-3427.550605
-3410.429169
-3418.051114
-3429.942242
-3426.634184
-3411.993791
-3415.480663
-3427.237681
-3419.012239
-3399.946201
-3399.16389
-3414.832463
-3418.699314
-3401.108492
-3399.16389
-3418.855777
-3420.867434
-3408.618678
-3404.975343
-3421.426227
-3440.536969
-3429.852835
-3419.503977
-3443.308585
-3452.450449
-3443.040364
-3436.156027
-3439.955823
-3440.782838
-3418.140521
-3397.599268
-3395.587611
-3399.588573
-3392.860698
-3375.091061
-3377.460346
-3386.713968
-3389.217364
-3374.129936
-3367.200895
-3378.555581
-3382.757709
-3369.726642
-3366.329177
-3377.706215
-3382.802413
-3365.993901
-3355.622692
-3381.438956
-3423.817864
-3462.128754
-3489.263772
-3527.976993
-3547.959453
-3525.205377
-3498.85267
-3426.209501
-3333.807389
-3294.065987
-3233.783333
-3263.332339
-3268.763813
-3224.149731
-3172.271332
-3203.519071
-3346.614939
-3437.295966
-3454.104478
-3447.667175
-3473.908123
-3499.657333
-3500.64081
-3491.29778
-3492.460071
-3492.147147
-3472.07528
-3462.32992
-3469.191905
-3480.948923
-3480.099556
-3464.945074
-3472.07528
-3483.049987
-3480.099556
-3476.67974
-3485.218106
-3499.009132
-3501.043141
-3488.459109
-3492.05774
-3511.615516
-3519.528034
-3514.454188
-3512.934269
-3529.876891
-3546.886569
-3546.014851
-3551.826304
-3576.524982
-3600.039017
-3598.899078
-3593.087625
-3618.456855
-3643.423753
-3644.653099
-3637.567596
-3642.060297
-3658.354718
-3647.827047
-3631.800846
-3625.877634
-3634.080724
-3629.878596
-3606.319857
-3587.320875
-3581.710587
-3567.070194
-3530.838016
-3504.23944
-3497.623324
-3483.117042
-3463.671024
-3449.276501
-3448.583597
-3454.283292
-3436.156027
-3412.306716
-3412.262012
-3421.605041
-3420.062771
-3404.438901
-3401.332009
-3418.408742
-3418.833425
-3398.13571
-3393.285381
-3404.058922
-3407.456387
-3400.527346
-3395.945239
-3403.433073
-3410.630335
-3402.784872
-3394.112396
-3406.159986
-3422.365001
-3420.532157
-3412.306716
-3418.654611
-3427.952937
-3428.444675
-3425.42719
-3429.91989
-3439.933472
-3435.68664
-3421.292117
-3429.808131
-3446.460181
-3446.661347
-3436.401896
-3440.2911
-3450.796419
-3450.952882
-3442.481571
-3446.996623
-3460.54178
-3462.307568
-3447.73423
-3439.620547
-3447.957748
-3449.500018
-3437.206559
-3432.490341
-3437.363021
-3446.281367
-3432.333879
-3415.43596
-3417.559375
-3431.663326
-3426.187149
-3417.760541
-3424.488416
-3441.140466
-3440.916948
-3423.594346
-3415.480663
-3435.329012
-3444.068544
-3432.423286
-3419.41457
-3431.819788
-3453.925664
-3447.354251
-3432.847969
-3443.599158
-3455.6691
-3446.460181
-3441.140466
-3450.349385
-3466.219123
-3449.254149
-3428.534082
-3418.319335
-3420.398047
-3412.127902
-3396.816957
-3392.860698
-3402.829576
-3402.941335
-3387.272762
-3379.092023
-3388.010369
-3397.107529
-3383.964704
-3378.220305
-3388.390349
-3385.886954
-3368.385538
-3369.100793
-3392.212497
-3422.454408
-3447.667175
-3487.676798
-3535.733048
-3575.027415
-3564.119764
-3533.542577
-3484.100519
-3366.373881
-3281.727824
-3224.708524
-3227.681306
-3274.61997
-3230.184702
-3187.939905
-3178.775689
-3288.388644
-3393.486547
-3443.24153
-3452.875132
-3473.237571
-3501.199603
-3508.799196
-3511.056723
-3517.359914
-3509.246231
-3486.112176
-3467.180248
-3468.007263
-3484.525202
-3483.899353
-3463.156934
-3458.597178
-3476.724443
-3485.598086
-3482.06651
-3488.637923
-3505.938173
-3511.950792
-3498.159766
-3493.845879
-3512.733103
-3527.440551
-3519.34922
-3516.063513
-3536.716525
-3550.99929
-3551.625139
-3552.608615
-3568.366595
-3578.268418
-3581.487069
-3594.093453
-3621.049657
-3647.715288
-3651.425678
-3643.960195
-3650.196332
-3661.126335
-3653.705556
-3641.277986
-3642.127352
-3647.156495
-3644.496637
-3624.849454
-3607.325686
-3603.302372
-3588.103186
-3553.502685
-3525.965336
-3531.553272
-3536.940043
-3509.87208
-3484.704016
-3476.94796
-3475.562152
-3464.76626
-3441.811018
-3440.089934
-3449.924701
-3443.777972
-3430.009297
-3430.568091
-3441.855722
-3435.530178
-3419.772198
-3420.062771
-3431.082181
-3427.61766
-3412.306716
-3408.015181
-3428.355268
-3440.402858
-3427.885881
-3417.246451
-3424.711934
-3436.267786
-3427.662364
-3420.956841
-3432.892672
-3449.812943
-3444.873207
-3435.664288
-3445.499056
-3461.43585
-3461.614664
-3444.604986
-3444.493228
-3464.565094
-3468.163725
-3454.372699
-3457.680757
-3481.664179
-3487.341522
-3471.270617
-3467.470821
-3477.104423
-3478.423176
-3465.101536
-3453.657443
-3458.10544
-3464.453335
-3455.959672
-3445.521408
-3453.791553
-3464.542742
-3456.473763
-3442.258053
-3441.878073
-3440.536969
-3438.748829
-3435.708992
-3437.072448
-3453.769201
-3453.322167
-3437.675945
-3435.485475
-3445.476704
-3442.012184
-3423.527291
-3423.12496
-3442.660384
-3447.555417
-3439.91112
-3434.949033
-3446.840161
-3451.44462
-3432.199768
-3423.460236
-3448.673004
-3464.408632
-3465.436812
-3467.962559
-3475.182173
-3483.09469
-3480.591295
-3461.458202
-3450.818771
-3446.393126
-3432.982079
-3409.915079
-3405.645896
-3420.68862
-3425.270727
-3408.26105
-3398.672151
-3406.763483
-3404.193032
-3393.777119
-3393.575954
-3409.400989
-3418.00641
-3407.277573
-3388.971494
-3397.487509
-3416.195919
-3409.959782
-3394.760596
-3420.219233
-3490.224897
-3544.561987
-3574.848601
-3587.700854
-3574.96036
-3523.797217
-3377.214477
-3250.681251
-3209.308172
-3205.262507
-3238.700716
-3199.741626
-3202.133262
-3215.43255
-3251.776487
-3320.798674
-3394.134747
-3442.593329
-3459.580655
-3469.750699
-3500.037313
-3524.35601
-3516.219975
-3491.118966
-3486.112176
-3490.314304
-3483.631132
-3473.48344
-3480.300722
-3495.946943
-3492.19185
-3476.635036
-3471.225914
-3489.531993
-3498.740911
-3489.37553
-3490.582525
-3505.580545
-3510.676743
-3505.915821
-3508.665086
-3525.361839
-3537.722354
-3531.173293
-3526.14415
-3541.164522
-3559.895284
-3573.596904
-3572.166392
-3586.717378
-3611.796035
-3622.122541
-3621.183767
-3629.118637
-3654.286701
-3669.307073
-3660.880466
-3655.717213
-3661.70748
-3664.076765
-3652.319747
-3642.596739
-3648.497599
-3642.641442
-3614.724113
-3591.075968
-3581.218848
-3573.194572
-3551.200456
-3525.674763
-3511.012019
-3506.318153
-3486.29099
-3462.061699
-3455.780858
-3459.312434
-3457.233722
-3445.901387
-3440.335803
-3445.610815
-3442.190998
-3421.537986
-3416.799416
-3429.517559
-3435.55253
-3424.980155
-3415.905346
-3420.30864
-3429.517559
-3423.482588
-3418.676963
-3425.762466
-3432.758562
-3422.812035
-3411.055018
-3423.057905
-3444.359117
-3443.152123
-3437.385373
-3436.4466
-3447.510713
-3443.487399
-3434.926681
-3439.844065
-3448.315376
-3452.092821
-3444.828504
-3448.315376
-3463.156934
-3463.179286
-3443.867379
-3434.949033
-3454.327995
-3466.152068
-3456.294949
-3450.729364
-3457.59135
-3464.699205
-3456.719632
-3444.403821
-3448.516542
-3454.77503
-3447.913044
-3428.288213
-3425.5613
-3442.772143
-3448.11421
-3434.613756
-3427.99764
-3433.943204
-3431.529216
-3421.046248
-3420.330992
-3435.440771
-3437.564187
-3422.901442
-3417.000582
-3431.573919
-3437.698297
-3427.751771
-3414.050152
-3421.113303
-3430.791608
-3421.917966
-3406.942297
-3420.979192
-3441.900425
-3440.916948
-3418.609907
-3412.910213
-3439.106457
-3454.90914
-3447.063678
-3454.104478
-3470.689472
-3469.482478
-3458.552475
-3457.278425
-3460.005338
-3446.460181
-3422.968498
-3406.987
-3413.491358
-3414.988925
-3401.73434
-3391.407834
-3401.041436
-3408.082236
-3395.162928
-3374.889895
-3383.02593
-3401.354361
-3399.67798
-3383.808241
-3382.534192
-3401.488471
-3395.028817
-3381.975398
-3386.423395
-3404.215384
-3426.902405
-3472.812888
-3519.148054
-3571.562895
-3589.556049
-3552.496857
-3483.273504
-3347.844285
-3232.777504
-3174.886486
-3186.21882
-3240.824132
-3208.615268
-3196.992361
-3191.583239
-3243.528693
-3328.644136
-3377.214477
-3405.556489
-3441.073411
-3477.305588
-3496.125757
-3488.079129
-3480.434833
-3487.006245
-3491.16367
-3477.864382
-3469.884809
-3476.500926
-3479.63017
-3466.509696
-3464.989777
-3470.980045
-3478.914914
-3478.959617
-3476.769147
-3487.810908
-3497.06453
-3489.75551
-3480.054853
-3492.169498
-3513.358952
-3513.627173
-3503.770054
-3506.362856
-3536.738877
-3547.80299
-3541.38804
-3543.466752
-3568.008967
-3586.605619
-3582.381139
-3593.445253
-3627.598718
-3647.894102
-3656.208951
-3656.901855
-3665.753146
-3672.749242
-3673.308036
-3664.412041
-3666.557809
-3672.72689
-3654.53257
-3632.516102
-3632.449047
-3633.588986
-3608.555032
-3575.809726
-3558.643586
-3553.189761
-3539.197569
-3508.821548
-3488.481461
-3491.945981
-3483.497022
-3465.436812
-3452.316338
-3451.712841
-3454.327995
-3438.167684
-3428.712896
-3440.246396
-3438.972347
-3428.556434
-3421.761503
-3425.784817
-3432.579748
-3428.243509
-3413.625468
-3412.217309
-3424.890748
-3425.404838
-3412.083198
-3414.0278
-3428.668192
-3428.802303
-3416.531195
-3420.576861
-3436.044268
-3440.961652
-3432.266823
-3428.601137
-3438.324146
-3447.957748
-3448.807114
-3440.984004
-3447.823637
-3458.284254
-3446.460181
-3439.777009
-3447.443658
-3459.088917
-3454.931492
-3444.403821
-3446.750754
-3459.357138
-3461.078222
-3450.371736
-3448.203617
-3460.631187
-3460.206504
-3445.387297
-3437.117152
-3441.31928
-3448.047155
-3448.024803
-3444.873207
-3448.293024
-3451.31051
-3440.067582
-3426.880053
-3434.993736
-3445.767277
-3435.105495
-3425.04721
-3430.746905
-3441.296928
-3434.367887
-3420.710971
-3423.214367
-3438.257091
-3434.546701
-3417.000582
-3413.491358
-3430.568091
-3434.747867
-3416.486492
-3415.033628
-3431.171588
-3430.121056
-3420.755675
-3419.727495
-3438.860588
-3443.152123
-3427.796474
-3422.633221
-3445.789629
-3457.099611
-3450.952882
-3442.436867
-3451.176399
-3463.3581
-3462.776955
-3461.681719
-3467.247303
-3475.40569
-3480.256019
-3463.49221
-3445.879036
-3434.300832
-3427.125922
-3411.747922
-3409.736265
-3424.421361
-3426.120094
-3408.886899
-3398.26982
-3409.646858
-3414.519538
-3406.092931
-3398.158061
-3406.159986
-3408.998657
-3399.499166
-3389.127957
-3394.492375
-3406.607021
-3409.780968
-3409.780968
-3432.780913
-3491.007208
-3529.116932
-3550.462848
-3575.429747
-3585.018645
-3569.037148
-3479.786632
-3355.577988
-3318.474092
-3283.672426
-3304.906583
-3291.160261
-3257.565589
-3232.106952
-3244.51217
-3350.280625
-3440.715783
-3480.010149
-3480.390129
-3485.329865
-3513.046028
-3539.264624
-3538.974051
-3518.186929
-3504.373551
-3505.915821
-3509.805025
-3501.557231
-3493.331789
-3500.931382
-3506.385208
-3500.305533
-3500.327885
-3515.348257
-3521.897319
-3513.560118
-3507.078112
-3519.215109
-3531.955604
-3527.149979
-3517.628135
-3528.312269
-3550.61931
-3550.99929
-3539.890473
-3552.809781
-3581.129441
-3598.317933
-3597.535622
-3606.699837
-3629.722134
-3644.653099
-3641.747372
-3649.414021
-3666.96014
-3675.833783
-3668.860038
-3665.306111
-3678.225419
-3684.886239
-3666.557809
-3636.986451
-3636.561768
-3648.430544
-3637.768762
-3613.472416
-3599.882555
-3593.244087
-3573.529848
-3541.298633
-3532.916729
-3531.597976
-3514.118912
-3490.157841
-3480.926571
-3485.106347
-3478.803155
-3461.257036
-3455.490286
-3456.674928
-3453.635091
-3451.154047
-3451.288158
-3460.005338
-3458.127792
-3449.678832
-3439.732306
-3443.174475
-3451.243454
-3442.772143
-3429.763428
-3436.379544
-3451.377565
-3450.774068
-3437.072448
-3440.80519
-3458.910103
-3460.139449
-3444.873207
-3446.638995
-3472.254094
-3481.798289
-3469.594237
-3472.388205
-3490.13549
-3492.884754
-3485.39692
-3480.032501
-3491.878926
-3499.031484
-3491.16367
-3482.155917
-3489.442586
-3495.38815
-3490.090786
-3485.39692
-3494.851708
-3503.412426
-3496.058702
-3482.804118
-3487.520336
-3493.890583
-3494.203507
-3476.344463
-3471.717652
-3480.770109
-3479.697225
-3464.498039
-3455.244417
-3461.033518
-3463.201638
-3460.742946
-3458.328957
-3459.558303
-3461.257036
-3455.713803
-3448.673004
-3461.189981
-3464.430984
-3447.130733
-3434.479646
-3449.254149
-3472.119984
-3468.23078
-3447.108382
-3445.275539
-3472.991702
-3480.166612
-3462.531085
-3453.568036
-3467.984911
-3473.952827
-3473.215219
-3486.179231
-3507.100464
-3509.134473
-3491.051911
-3479.317245
-3482.021806
-3480.747757
-3455.423231
-3434.569053
-3440.894597
-3454.484457
-3444.001489
-3426.567128
-3427.505902
-3435.261957
-3425.5613
-3411.569108
-3421.694448
-3437.966518
-3434.166722
-3423.77316
-3426.678887
-3439.285271
-3435.217254
-3421.20271
-3425.024858
-3444.26971
-3485.642789
-3526.702944
-3559.515305
-3599.636686
-3606.47632
-3576.323816
-3527.418199
-3420.129826
-3338.81418
-3294.133043
-3264.226409
-3313.824929
-3294.848298
-3262.550028
-3233.381001
-3311.075665
-3431.104533
-3492.035388
-3496.326923
-3509.156824
-3544.561987
-3565.460869
-3557.816572
-3558.978863
-3563.113935
-3555.424935
-3535.286014
-3521.047952
-3525.741819
-3538.504665
-3530.212168
-3524.780694
-3537.945871
-3550.507551
-3544.539636
-3532.737915
-3546.864217
-3567.27136
-3569.640645
-3555.179066
-3555.939025
-3584.57161
-3587.477337
-3579.341302
-3588.103186
-3603.972924
-3609.069122
-3611.952497
-3622.971907
-3649.838704
-3664.255579
-3665.55198
-3671.072861
-3689.848326
-3706.969763
-3705.606306
-3705.069864
-3718.257394
-3732.04842
-3722.325411
-3701.493585
-3696.68796
-3702.879393
-3687.948428
-3666.82603
-3654.756088
-3645.882445
-3621.362581
-3589.913677
-3572.948703
-3572.635779
-3562.219866
-3533.989612
-3512.509586
-3510.006191
-3505.312324
-3485.709844
-3478.311417
-3484.167574
-3479.183135
-3468.476649
-3462.285216
-3476.188001
-3478.959617
-3461.882885
-3443.733268
-3455.713803
-3473.394033
-3471.874114
-3454.372699
-3449.947053
-3460.564132
-3461.927588
-3451.221103
-3454.618568
-3467.157896
-3466.621455
-3453.411574
-3454.998547
-3469.236609
-3482.178269
-3478.646693
-3467.157896
-3479.473708
-3490.470766
-3487.900315
-3486.894487
-3495.589315
-3502.518356
-3498.360932
-3491.588353
-3497.913897
-3509.246231
-3509.134473
-3497.645676
-3500.461996
-3507.346333
-3506.072284
-3497.735083
-3490.64958
-3496.058702
-3500.841975
-3489.934324
-3486.223934
-3502.518356
-3507.905127
-3490.738987
-3474.958655
-3484.458147
-3487.810908
-3474.824545
-3461.43585
-3472.701129
-3485.7769
-3475.383338
-3457.658405
-3460.228856
-3475.383338
-3466.576751
-3449.701184
-3449.030632
-3463.201638
-3470.063623
-3456.272597
-3450.751716
-3460.318263
-3468.566056
-3456.071431
-3447.935396
-3457.904274
-3461.480553
-3449.410611
-3442.995661
-3455.222065
-3471.538838
-3467.046138
-3450.371736
-3455.602045
-3477.596161
-3481.217144
-3468.007263
-3472.522315
-3494.941115
-3501.847804
-3496.103405
-3506.519318
-3524.288955
-3516.421141
-3494.047045
-3483.161745
-3485.01694
-3470.197734
-3450.259978
-3446.460181
-3454.059774
-3455.557341
-3439.307623
-3421.381524
-3423.504939
-3436.290137
-3434.367887
-3427.952937
-3435.217254
-3447.711879
-3436.491303
-3422.253242
-3425.42719
-3438.659422
-3434.949033
-3418.699314
-3422.365001
-3448.583597
-3501.221955
-3541.991537
-3578.044901
-3615.662887
-3603.905869
-3552.072174
-3436.245434
-3320.821025
-3276.341054
-3250.547141
-3292.031979
-3286.935781
-3261.410089
-3249.697775
-3266.260417
-3357.544942
-3425.851873
-3456.540818
-3466.68851
-3495.455205
-3538.169389
-3551.178104
-3538.549368
-3526.390019
-3531.888548
-3527.082923
-3507.703961
-3497.578621
-3511.213185
-3517.404618
-3507.480443
-3504.775882
-3517.04699
-3520.332696
-3513.940098
-3509.022714
-3521.27147
-3534.011964
-3527.529958
-3516.644659
-3530.100409
-3553.05565
-3555.067307
-3546.595996
-3552.452153
-3572.166392
-3577.888438
-3571.004101
-3587.566744
-3620.624974
-3636.561768
-3633.834855
-3639.221625
-3653.437335
-3667.027195
-3674.202105
-3674.425623
-3688.797794
-3691.256486
-3677.688977
-3671.117565
-3677.174887
-3677.286646
-3658.220608
-3634.840683
-3626.794055
-3621.563747
-3598.005008
-3564.812668
-3553.748554
-3552.474505
-3534.816627
-3504.798234
-3487.609743
-3491.431891
-3491.409539
-3466.062661
-3456.741984
-3468.633112
-3468.923684
-3452.4728
-3437.966518
-3440.2911
-3447.063678
-3442.414515
-3433.518521
-3438.301794
-3447.73423
-3443.24153
-3429.182283
-3425.985983
-3442.012184
-3443.710916
-3428.802303
-3435.03844
-3449.097687
-3447.443658
-3436.156027
-3439.061754
-3456.049079
-3460.519428
-3450.371736
-3448.784762
-3463.313396
-3468.633112
-3459.625359
-3456.674928
-3468.297835
-3469.348367
-3462.173457
-3461.637016
-3479.585466
-3493.398844
-3481.619475
-3468.901332
-3476.232705
-3483.318208
-3475.40569
-3464.051004
-3469.147202
-3480.077205
-3476.791498
-3463.223989
-3462.307568
-3474.086937
-3473.86342
-3458.954806
-3450.438792
-3461.413498
-3465.079184
-3453.948015
-3447.197789
-3456.451411
-3461.704071
-3449.947053
-3439.53114
-3444.001489
-3453.590388
-3446.013146
-3432.400934
-3435.977213
-3454.238588
-3456.898446
-3453.076297
-3456.674928
-3463.3581
-3455.80321
-3439.799361
-3441.140466
-3452.741021
-3453.344518
-3438.838236
-3428.399972
-3429.472855
-3432.132713
-3427.796474
-3426.857701
-3439.39703
-3445.655518
-3433.943204
-3430.143408
-3446.728402
-3454.39505
-3442.839198
-3431.417457
-3441.341632
-3449.589425
-3438.50296
-3438.12298
-3453.903312
-3469.705995
-3465.995606
-3451.154047
-3464.989777
-3483.251152
-3485.709844
-3461.860533
-3437.787704
-3434.367887
-3432.445637
-3416.307678
-3406.785835
-3409.915079
-3418.811073
-3406.718779
-3392.100739
-3399.275649
-3409.177471
-3398.381579
-3385.037587
-3392.927753
-3407.769311
-3399.409759
-3384.031759
-3383.495317
-3397.129881
-3407.612849
-3410.563279
-3452.159876
-3525.004211
-3565.48322
-3570.378252
-3548.585301
-3522.947851
-3412.954916
-3263.958188
-3195.338332
-3196.72414
-3254.704565
-3222.830978
-3196.657085
-3213.666763
-3249.809533
-3314.182557
-3352.314633
-3393.128919
-3433.384411
-3460.184152
-3477.529106
-3498.584449
-3509.402693
-3496.572792
-3477.305588
-3474.8916
-3484.480498
-3487.140356
-3470.801231
-3462.374623
-3473.326978
-3485.955714
-3478.020844
-3469.437774
-3481.641827
-3490.314304
-3488.906144
-3489.040254
-3497.3104
-3509.380342
-3504.10533
-3496.304571
-3506.988705
-3520.824435
-3517.315211
-3513.694228
-3534.190778
-3557.816572
-3568.835982
-3567.092546
-3577.083776
-3606.99041
-3623.173073
-3616.042866
-3624.916509
-3655.694861
-3673.531553
-3662.623902
-3655.158419
-3663.49562
-3668.122431
-3656.879503
-3646.888274
-3641.479151
-3636.807637
-3618.099227
-3592.797052
-3578.871915
-3570.847639
-3549.032336
-3524.668935
-3508.933307
-3504.172385
-3488.079129
-3454.64092
-3439.91112
-3450.282329
-3458.194847
-3436.737172
-3420.398047
-3420.912137
-3424.622527
-3417.849948
-3406.517614
-3406.696428
-3412.194957
-3400.236774
-3389.68675
-3399.745035
-3410.071541
-3405.020047
-3388.457404
-3390.044378
-3400.907326
-3395.721721
-3380.164907
-3373.369977
-3389.798509
-3405.757654
-3396.705198
-3389.865564
-3394.715893
-3399.610925
-3385.261105
-3378.689692
-3388.703273
-3399.856794
-3395.073521
-3387.228058
-3397.532212
-3400.125015
-3392.570125
-3378.354416
-3382.668302
-3399.409759
-3401.667285
-3388.613866
-3397.308695
-3421.381524
-3426.120094
-3424.935451
-3428.243509
-3443.75562
-3449.410611
-3438.838236
-3436.893634
-3454.439754
-3456.3173
-3435.060791
-3421.33682
-3432.110361
-3434.166722
-3422.253242
-3411.814977
-3417.715838
-3433.429114
-3426.902405
-3409.400989
-3411.256184
-3421.962669
-3416.061809
-3409.177471
-3407.635201
-3418.207576
-3416.33003
-3406.450558
-3403.611887
-3415.391256
-3418.296983
-3402.404893
-3395.788776
-3405.534137
-3414.273669
-3400.683808
-3390.267895
-3395.475852
-3404.304791
-3398.850965
-3386.73632
-3392.547773
-3406.629372
-3397.018122
-3383.651779
-3391.832518
-3407.50109
-3409.378637
-3403.813053
-3411.144425
-3417.425265
-3413.692524
-3409.110416
-3408.573974
-3415.793588
-3431.506864
-3428.019992
-3424.66723
-3445.230835
-3471.918818
-3470.041271
-3459.088917
-3445.990794
-3441.006355
-3422.141483
-3396.258163
-3389.060901
-3398.046303
-3396.660494
-3383.875297
-3379.159078
-3385.551677
-3378.890858
-3362.797602
-3360.562427
-3372.274741
-3365.502163
-3347.263139
-3357.187314
-3377.437994
-3377.549753
-3365.993901
-3363.334043
-3374.576971
-3383.472965
-3392.793643
-3436.938338
-3497.533917
-3537.02945
-3522.590223
-3497.869193
-3470.53301
-3370.285436
-3276.721034
-3227.34603
-3222.160425
-3270.194324
-3225.759056
-3179.915628
-3165.945788
-3255.106897
-3351.107639
-3397.107529
-3416.397085
-3434.613756
-3453.277463
-3459.290082
-3464.028652
-3476.277408
-3471.695301
-3445.029669
-3436.513655
-3446.57194
-3450.93053
-3437.452428
-3426.07539
-3439.91112
-3453.992719
-3448.516542
-3441.431039
-3450.528199
-3465.749737
-3473.259923
-3457.792515
-3463.939245
-3484.726368
-3489.822565
-3479.920743
-3484.994588
-3501.065493
-3514.454188
-3515.594127
-3523.439589
-3545.903092
-3561.348148
-3562.0187
-3565.460869
-3589.287828
-3612.198366
-3610.589041
-3607.728017
-3617.272212
-3639.847474
-3644.139009
-3631.309108
-3628.671602
-3638.506369
-3640.473323
-3626.481131
-3618.054523
-3617.674544
-3599.167299
-3567.606636
-3550.328738
-3537.320022
-3517.203452
-3490.381359
-3466.733213
-3454.417402
-3448.941225
-3436.401896
-3427.125922
-3420.912137
-3416.933527
-3416.33003
-3414.318373
-3420.330992
-3425.94128
-3412.038495
-3400.728512
-3406.47291
-3415.771236
-3411.971439
-3393.710064
-3376.834497
-3373.79466
-3376.856849
-3379.248485
-3380.299017
-3393.263029
-3391.139614
-3378.846154
-3378.488526
-3386.155175
-3396.302866
-3395.431148
-3395.520555
-3408.573974
-3418.699314
-3396.012294
-3385.261105
-3414.988925
-3433.76439
-3422.029724
-3408.439864
-3416.397085
-3428.243509
-3412.485529
-3399.298
-3413.51371
-3445.566111
-3456.250245
-3437.005393
-3410.339762
-3411.613811
-3431.015126
-3427.125922
-3413.64782
-3421.962669
-3431.998602
-3419.034591
-3409.982134
-3414.430131
-3409.065713
-3395.185279
-3390.402006
-3401.667285
-3420.085123
-3423.594346
-3407.121111
-3402.62841
-3419.191053
-3429.070524
-3412.351419
-3411.837329
-3427.751771
-3439.374678
-3436.759524
-3426.053038
-3429.137579
-3427.572957
-3408.752788
-3397.152233
-3409.132768
-3425.516596
-3421.493282
-3412.75375
-3422.387352
-3424.287251
-3410.384466
-3394.201803
-3412.083198
-3442.056887
-3434.613756
-3405.489433
-3408.573974
-3439.754658
-3442.928605
-3426.276556
-3426.902405
-3452.875132
-3442.72744
-3437.944166
-3453.478629
-3478.020844
-3479.607818
-3463.603969
-3449.812943
-3444.604986
-3437.050097
-3417.782893
-3399.767387
-3406.428207
-3406.85289
-3383.696483
-3376.61098
-3395.475852
-3415.659477
-3403.924811
-3380.388424
-3385.149346
-3395.811128
-3393.643009
-3371.157154
-3367.424413
-3382.601247
-3385.238753
-3378.15325
-3383.316503
-3411.524404
-3453.657443
-3485.285161
-3509.894432
-3554.575569
-3560.051746
-3534.973089
-3475.003359
-3352.806372
-3276.363406
-3233.559815
-3227.055457
-3262.617083
-3241.226463
-3220.931079
-3200.590992
-3295.027112
-3405.042399
-3452.98689
-3464.565094
-3491.767167
-3535.978918
-3548.965281
-3541.320985
-3540.426915
-3537.02945
-3528.848711
-3510.140301
-3504.23944
-3514.99063
-3510.050894
-3498.182118
-3496.952772
-3515.437664
-3523.216072
-3501.646638
-3478.713748
-3480.613647
-3499.299705
-3508.32981
-3495.52226
-3498.405635
-3514.431836
-3526.859406
-3523.014906
-3524.557176
-3540.158694
-3551.043993
-3549.546426
-3554.732031
-3598.273229
-3621.250823
-3615.305259
-3606.364561
-3614.701762
-3627.174035
-3633.052544
-3632.381991
-3647.558826
-3665.03789
-3652.073878
-3629.766837
-3635.69005
-3654.823143
-3641.188579
-3610.566689
-3599.234354
-3596.820366
-3567.316063
-3526.300612
-3512.397827
-3516.644659
-3506.02758
-3469.035443
-3437.072448
-3442.928605
-3452.4728
-3448.449486
-3440.693431
-3446.236664
-3447.644824
-3429.629317
-3410.742093
-3410.607983
-3429.226986
-3422.365001
-3410.563279
-3403.634239
-3414.899518
-3403.969515
-3386.065768
-3387.563334
-3402.539003
-3408.819843
-3401.376712
-3396.906364
-3410.540928
-3414.0278
-3403.254259
-3400.125015
-3420.956841
-3437.228911
-3428.914062
-3417.827596
-3422.253242
-3438.413553
-3434.591405
-3425.158969
-3437.899463
-3460.519428
-3456.384356
-3433.920852
-3434.52435
-3455.378527
-3445.320242
-3440.067582
-3451.131696
-3454.998547
-3451.288158
-3446.773105
-3438.860588
-3449.52237
-3456.160838
-3443.576806
-3427.885881
-3434.546701
-3437.787704
-3431.238643
-3426.053038
-3437.743001
-3453.031594
-3451.265806
-3443.085068
-3437.206559
-3443.75562
-3432.467989
-3411.233832
-3396.571087
-3421.20271
-3433.473818
-3417.49232
-3418.632259
-3436.603062
-3426.924756
-3420.018067
-3418.274631
-3417.827596
-3409.266878
-3393.732416
-3390.357302
-3411.524404
-3419.101646
-3406.830538
-3409.021009
-3430.81396
-3439.374678
-3429.003469
-3411.457349
-3412.932564
-3421.292117
-3430.255166
-3426.723591
-3431.931547
-3444.672041
-3430.121056
-3415.614774
-3421.068599
-3445.54376
-3449.790591
-3441.028707
-3466.353234
-3482.535897
-3472.07528
-3460.072393
-3445.119076
-3454.886789
-3444.761448
-3422.007373
-3402.762521
-3395.654666
-3398.627448
-3383.316503
-3371.671244
-3386.423395
-3403.366018
-3403.969515
-3389.954971
-3379.136727
-3387.988018
-3391.854869
-3395.83348
-3398.538041
-3386.423395
-3377.035663
-3360.741241
-3370.687767
-3403.52248
-3440.179341
-3475.964484
-3525.76417
-3580.838869
-3577.687273
-3536.023621
-3440.916948
-3310.427464
-3258.705528
-3235.213844
-3270.306083
-3270.77547
-3240.198283
-3217.3548
-3223.278013
-3303.8337
-3374.778137
-3415.994753
-3414.54189
-3430.210463
-3475.115117
-3499.702036
-3500.059664
-3477.506754
-3488.906144
-3494.62819
-3482.334731
-3468.811926
-3471.404728
-3482.535897
-3477.618513
-3469.907161
-3476.344463
-3484.458147
-3482.379434
-3486.894487
-3494.002342
-3488.973199
-3484.771071
-3492.035388
-3506.854595
-3516.890528
-3507.301629
-3503.099502
-3514.945926
-3533.989612
-3543.600862
-3546.864217
-3548.384136
-3569.104203
-3589.600753
-3596.708607
-3619.373276
-3641.367393
-3634.728925
-3635.377125
-3648.38584
-3654.890198
-3648.654061
-3654.331404
-3644.250768
-3642.976718
-3657.125373
-3635.891215
-3620.870843
-3615.059389
-3602.967096
-3583.431671
-3550.99929
-3536.358897
-3529.586319
-3525.093618
-3494.695246
-3484.36874
-3468.74487
-3462.32992
-3444.984966
-3438.793533
-3441.654556
-3430.366925
-3413.938393
-3411.256184
-3413.267841
-3419.28046
-3414.452483
-3407.121111
-3405.645896
-3416.821768
-3418.319335
-3389.30677
-3388.256238
-3413.446654
-3402.874279
-3381.930695
-3378.332064
-3398.470986
-3410.8315
-3401.108492
-3392.056035
-3395.185279
-3409.42334
-3413.469006
-3429.02582
-3430.322222
-3425.5613
-3425.985983
-3419.369867
-3430.121056
-3444.672041
-3440.514617
-3423.214367
-3440.559321
-3453.322167
-3451.690489
-3443.062716
-3455.646748
-3480.926571
-3468.409594
-3426.433018
-3405.332971
-3417.559375
-3434.054963
-3431.909195
-3426.343611
-3447.667175
-3453.121001
-3444.873207
-3426.45537
-3425.538948
-3427.61766
-3426.07539
-3424.041381
-3437.698297
-3448.225969
-3436.915986
-3424.108437
-3428.690544
-3423.974326
-3397.263992
-3383.428262
-3394.090044
-3421.158006
-3428.51173
-3403.366018
-3406.271745
-3425.494245
-3425.494245
-3409.043361
-3410.920907
-3434.211425
-3435.060791
-3413.156082
-3413.64782
-3431.685678
-3442.638033
-3436.670117
-3419.481625
-3422.119131
-3448.203617
-3449.343556
-3429.27169
-3436.513655
-3463.045175
-3469.63894
-3475.740966
-3479.920743
-3482.155917
-3472.723481
-3476.500926
-3469.415423
-3463.514562
-3458.038385
-3441.363983
-3426.209501
-3453.679795
-3455.602045
-3408.90925
-3374.532267
-3394.492375
-3443.688565
-3441.587501
-3386.937486
-3360.048337
-3372.90059
-3366.686805
-3362.26116
-3379.740224
-3396.436977
-3395.274686
-3385.305808
-3389.932619
-3427.058867
-3481.485365
-3510.117949
-3535.286014
-3565.013834
-3538.147037
-3511.257888
-3454.104478
-3350.124162
-3286.242877
-3226.630774
-3257.342071
-3274.575266
-3222.562757
-3197.886431
-3214.002039
-3313.109674
-3405.221213
-3449.678832
-3462.106402
-3480.859516
-3486.380397
-3492.013036
-3500.64081
-3509.290935
-3507.368685
-3486.000417
-3476.344463
-3476.232705
-3492.728292
-3486.000417
-3467.023786
-3457.390184
-3483.385263
-3515.080037
-3528.714601
-3521.986726
-3495.499908
-3502.294839
-3521.830263
-3520.578566
-3512.442531
-3509.760321
-3502.496004
-3501.825452
-3524.266604
-3556.162543
-3562.421031
-3545.858389
-3554.083831
-3577.083776
-3593.311142
-3597.759139
-3625.117674
-3661.70748
-3667.943617
-3639.579253
-3647.491771
-3682.360492
-3689.535402
-3669.329425
-3654.219646
-3668.077727
-3666.96014
-3641.881483
-3615.484073
-3603.481186
-3602.698875
-3587.656151
-3550.395793
-3536.515359
-3543.243235
-3521.830263
-3483.005283
-3485.128699
-3504.731179
-3479.898391
-3433.920852
-3422.543814
-3435.68664
-3446.236664
-3437.072448
-3428.89171
-3437.005393
-3443.75562
-3423.25907
-3411.59146
-3416.888823
-3416.732361
-3410.898556
-3402.449596
-3417.313506
-3436.938338
-3428.310565
-3415.860643
-3412.463178
-3419.816902
-3420.129826
-3415.324201
-3418.811073
-3431.216291
-3435.865454
-3431.797437
-3429.472855
-3442.146294
-3450.774068
-3440.984004
-3432.266823
-3444.850855
-3461.659367
-3456.518466
-3445.476704
-3462.531085
-3477.283237
-3462.128754
-3456.18319
-3467.694338
-3479.473708
-3474.846897
-3455.6691
-3452.98689
-3460.810001
-3461.860533
-3459.759469
-3463.425155
-3474.51162
-3483.944057
-3471.605894
-3459.066565
-3465.570923
-3467.761394
-3456.160838
-3456.049079
-3459.5136
-3456.674928
-3437.228911
-3419.459274
-3424.220195
-3445.409649
-3445.834332
-3418.788721
-3426.58948
-3446.57194
-3438.972347
-3423.884919
-3427.48355
-3437.184207
-3432.043306
-3417.626431
-3416.240623
-3430.210463
-3450.93053
-3443.710916
-3448.225969
-3465.995606
-3466.152068
-3444.1356
-3442.928605
-3456.272597
-3462.307568
-3453.143353
-3448.270672
-3465.325053
-3483.877001
-3484.704016
-3483.519373
-3478.35612
-3476.255056
-3470.063623
-3449.187094
-3434.501998
-3435.932509
-3427.707067
-3406.562317
-3403.634239
-3409.333934
-3408.641029
-3399.499166
-3406.003524
-3419.973364
-3404.461253
-3378.53323
-3379.896686
-3422.834387
-3450.729364
-3455.043251
-3436.267786
-3422.141483
-3386.781023
-3394.537079
-3449.790591
-3521.27147
-3580.034206
-3571.49584
-3550.99929
-3544.003194
-3546.707755
-3498.293876
-3338.367145
-3246.345013
-3242.07583
-3275.514039
-3305.979467
-3267.512115
-3263.466449
-3252.871722
-3300.279772
-3380.678997
-3464.542742
-3520.086827
-3519.99742
-3504.977048
-3508.821548
-3521.450284
-3495.812833
-3475.942132
-3495.634019
-3528.245214
-3540.784543
-3531.933252
-3521.942022
-3513.20249
-3507.636906
-3507.81572
-3502.875984
-3519.706848
-3530.793313
-3511.391999
-3511.906089
-3527.306441
-3544.070249
-3551.111049
-3542.885607
-3552.183932
-3568.366595
-3562.197514
-3554.709679
-3568.724223
-3592.573535
-3599.480224
-3605.738712
-3626.883462
-3654.666681
-3656.991262
-3652.632672
-3681.488774
-3707.729722
-3713.943507
-3710.926021
-3708.064998
-3720.246699
-3719.531443
-3698.967838
-3691.81528
-3705.561603
-3708.46733
-3682.71812
-3648.363489
-3638.171093
-3628.381029
-3600.888383
-3562.331624
-3543.690269
-3548.853522
-3533.83315
-3501.870156
-3490.381359
-3489.934324
-3476.635036
-3460.474725
-3464.833315
-3473.617551
-3467.269655
-3448.404783
-3449.969405
-3461.547609
-3462.598141
-3448.024803
-3439.151161
-3451.690489
-3457.993681
-3443.196826
-3433.384411
-3443.085068
-3448.918873
-3437.60889
-3428.064695
-3429.584614
-3441.922777
-3435.843102
-3429.629317
-3444.560283
-3460.452373
-3461.368795
-3452.271635
-3457.010204
-3467.023786
-3469.080146
-3464.90037
-3466.062661
-3477.484402
-3477.730272
-3467.560228
-3469.907161
-3483.184097
-3492.504775
-3481.641827
-3470.801231
-3478.579638
-3487.095652
-3478.177306
-3468.342539
-3476.098594
-3486.29099
-3478.423176
-3467.604931
-3474.668083
-3490.336655
-3489.666103
-3472.499963
-3470.823583
-3480.121908
-3476.791498
-3457.72546
-3450.751716
-3461.659367
-3462.709899
-3453.031594
-3455.110306
-3468.499001
-3469.795402
-3458.23955
-3457.658405
-3470.801231
-3475.338635
-3468.029614
-3464.945074
-3475.830373
-3488.816737
-3486.715673
-3476.210353
-3473.595199
-3486.402748
-3485.195754
-3461.547609
-3445.208483
-3449.298853
-3440.179341
-3424.555471
-3416.33003
-3423.728457
-3429.718724
-3416.240623
-3405.332971
-3416.262974
-3421.426227
-3411.926736
-3401.510823
-3405.377675
-3415.659477
-3407.545794
-3394.268858
-3402.807224
-3413.938393
-3416.374733
-3414.072503
-3448.136562
-3510.296763
-3551.446325
-3569.595941
-3570.311197
-3575.697967
-3552.318043
-3428.51173
-3334.388534
-3305.24186
-3286.15347
-3315.635421
-3282.063101
-3255.956263
-3237.113742
-3295.988237
-3398.202765
-3473.751661
-3494.404673
-3497.086882
-3505.915821
-3527.55231
-3549.188799
-3545.567816
-3523.350182
-3510.833205
-3515.392961
-3514.297725
-3500.953734
-3497.511565
-3509.760321
-3516.130569
-3508.933307
-3504.865289
-3520.667973
-3529.161636
-3520.779731
-3514.454188
-3529.161636
-3537.387077
-3531.195644
-3527.060572
-3542.55033
-3554.799086
-3553.793258
-3553.010947
-3568.701871
-3590.137194
-3595.613372
-3594.831061
-3608.376218
-3635.846512
-3654.241998
-3654.01848
-3660.902817
-3679.678283
-3692.552888
-3691.614114
-3688.730739
-3699.1243
-3698.677265
-3682.472251
-3670.022329
-3668.860038
-3663.406213
-3637.925224
-3611.304296
-3599.077892
-3587.499689
-3558.621235
-3527.127627
-3518.857481
-3515.415313
-3497.06453
-3472.477612
-3466.621455
-3468.968388
-3463.089879
-3445.879036
-3442.526274
-3452.830428
-3453.165704
-3440.313451
-3434.546701
-3446.795457
-3453.389222
-3438.793533
-3428.064695
-3438.301794
-3448.225969
-3434.166722
-3426.07539
-3432.020954
-3440.156989
-3430.456332
-3424.823692
-3436.06662
-3448.784762
-3448.225969
-3439.955823
-3443.643861
-3461.189981
-3463.894542
-3452.942187
-3453.679795
-3467.157896
-3472.701129
-3463.827486
-3460.094745
-3473.885771
-3481.418309
-3472.097632
-3466.800269
-3477.909086
-3489.084958
-3483.85465
-3472.924646
-3479.965446
-3492.214202
-3481.261847
-3467.917856
-3471.851763
-3481.910048
-3478.020844
-3465.503867
-3463.134582
-3474.399862
-3474.288103
-3458.731289
-3453.165704
-3463.425155
-3465.950902
-3450.908178
-3443.129771
-3452.204579
-3455.982024
-3441.565149
-3429.450504
-3435.03844
-3447.08603
-3438.301794
-3427.796474
-3440.961652
-3459.535952
-3444.895559
-3424.376658
-3436.759524
-3456.987853
-3449.187094
-3433.473818
-3439.866416
-3456.876094
-3461.681719
-3452.98689
-3458.10544
-3470.734176
-3469.437774
-3454.171533
-3437.854759
-3434.412591
-3425.449541
-3406.316448
-3394.42532
-3403.768349
-3408.529271
-3394.42532
-3382.198916
-3383.78589
-3397.062826
-3400.549698
-3392.011332
-3397.107529
-3409.333934
-3408.126939
-3397.263992
-3400.482643
-3410.138596
-3407.925774
-3401.08614
-3408.238698
-3448.047155
-3507.748664
-3547.467714
-3578.737805
-3592.752349
-3574.781546
-3498.830318
-3349.744183
-3264.62874
-3243.573397
-3251.083583
-3278.59858
-3244.936853
-3243.6181
-3235.593824
-3301.889098
-3393.508898
-3458.463068
-3480.300722
-3485.419272
-3513.515414
-3540.87395
-3547.780639
-3531.329755
-3514.342429
-3517.605784
-3522.16554
-3506.496967
-3496.997475
-3505.89347
-3513.649525
-3504.887641
-3496.505737
-3508.776845
-3519.282164
-3514.342429
-3507.100464
-3518.209281
-3534.838979
-3530.815665
-3520.578566
-3524.624231
-3545.009022
-3553.525037
-3547.713583
-3554.106182
-3576.994369
-3588.214944
-3580.503593
-3588.572572
-3618.859186
-3639.556901
-3640.406268
-3648.676413
-3669.217666
-3684.439204
-3680.617056
-3679.499469
-3692.418777
-3701.270068
-3691.681169
-3678.560695
-3679.924152
-3682.673416
-3664.635559
-3638.394611
-3622.927204
-3613.40536
-3590.897154
-3560.811706
-3541.90213
-3535.911862
-3525.920633
-3500.305533
-3484.726368
-3489.107309
-3483.519373
-3461.637016
-3450.729364
-3458.530123
-3463.469859
-3453.031594
-3440.984004
-3446.348422
-3456.607873
-3448.6283
-3434.546701
-3440.514617
-3453.500981
-3449.120039
-3435.977213
-3439.687602
-3447.175437
-3442.012184
-3431.126884
-3432.065658
-3444.716745
-3447.823637
-3438.771181
-3441.185169
-3456.227893
-3463.112231
-3454.886789
-3451.623434
-3465.950902
-3476.836202
-3467.448469
-3460.318263
-3473.394033
-3488.21324
-3482.111213
-3470.912989
-3476.210353
-3487.006245
-3485.7769
-3477.529106
-3480.077205
-3492.504775
-3489.956676
-3476.188001
-3477.618513
-3491.320132
-3493.823528
-3477.797327
-3469.795402
-3483.452318
-3490.180193
-3474.958655
-3468.186077
-3479.294894
-3483.318208
-3467.604931
-3458.753641
-3470.085975
-3478.937266
-3470.845934
-3458.641882
-3464.609798
-3475.249228
-3469.236609
-3453.679795
-3455.020899
-3470.130678
-3469.951864
-3458.887751
-3462.195809
-3479.741929
-3478.043196
-3464.319225
-3465.168591
-3480.770109
-3483.161745
-3472.522315
-3478.557286
-3497.220993
-3509.603859
-3505.960525
-3506.005228
-3507.972182
-3515.527071
-3506.02758
-3483.049987
-3471.203562
-3470.600065
-3457.501943
-3441.520446
-3443.576806
-3454.618568
-3446.840161
-3430.29987
-3429.02582
-3440.626376
-3443.979137
-3430.925719
-3425.337783
-3436.737172
-3440.112286
-3426.164797
-3421.090951
-3430.702201
-3437.98887
-3431.305698
-3433.943204
-3479.741929
-3550.507551
-3594.138157
-3612.868919
-3611.952497
-3592.662942
-3487.430929
-3321.938613
-3243.953376
-3230.967013
-3283.784185
-3285.505269
-3246.613234
-3260.761888
-3276.497516
-3329.784075
-3386.445747
-3443.822675
-3482.871173
-3499.858499
-3510.967316
-3534.436647
-3558.1742
-3547.266549
-3519.639792
-3519.773903
-3529.005173
-3520.310345
-3509.939135
-3516.66701
-3532.559101
-3529.318098
-3513.515414
-3514.834167
-3529.876891
-3533.274357
-3524.177197
-3524.803045
-3540.292804
-3546.998328
-3536.515359
-3531.061534
-3546.595996
-3558.196552
-3556.296653
-3557.078964
-3575.899133
-3597.557974
-3603.369427
-3604.55407
-3623.508349
-3651.224512
-3657.013614
-3659.517009
-3676.772556
-3700.353646
-3706.478024
-3698.230231
-3701.404178
-3716.513958
-3717.273917
-3702.655876
-3694.743358
-3700.130129
-3692.821108
-3664.724966
-3644.451933
-3634.393648
-3617.719247
-3582.850526
-3557.928331
-3558.934159
-3550.842828
-3534.190778
-3510.095598
-3502.496004
-3504.954696
-3491.54365
-3472.298798
-3469.370719
-3473.952827
-3467.157896
-3447.175437
-3444.426172
-3453.053946
-3457.457239
-3451.042289
-3450.215274
-3461.771126
-3464.162763
-3448.225969
-3444.247358
-3452.696318
-3456.920797
-3447.935396
-3442.973309
-3454.77503
-3461.547609
-3454.529161
-3444.336765
-3456.18319
-3471.784708
-3466.107364
-3456.786687
-3463.827486
-3474.355158
-3477.730272
-3468.029614
-3467.493173
-3480.703054
-3483.98876
-3469.63894
-3465.392109
-3476.143298
-3483.832298
-3476.523277
-3473.125812
-3482.312379
-3487.609743
-3476.232705
-3467.224952
-3473.259923
-3479.831336
-3468.811926
-3453.74685
-3458.284254
-3471.963521
-3465.325053
-3449.656481
-3447.242492
-3456.943149
-3454.283292
-3443.129771
-3443.845027
-3453.612739
-3452.33869
-3444.515579
-3437.407725
-3442.973309
-3449.209446
-3436.558358
-3426.45537
-3436.267786
-3442.146294
-3431.953899
-3421.85091
-3432.445637
-3439.732306
-3431.238643
-3424.309602
-3437.452428
-3444.493228
-3434.569053
-3433.76439
-3447.555417
-3455.691452
-3447.644824
-3442.436867
-3451.399917
-3470.510658
-3483.139394
-3473.550495
-3463.112231
-3475.02571
-3482.535897
-3461.05587
-3444.448524
-3441.766315
-3437.541835
-3421.403876
-3408.819843
-3411.010314
-3418.967535
-3413.044323
-3400.303829
-3404.684771
-3412.485529
-3402.248431
-3389.530288
-3396.369922
-3411.256184
-3408.685733
-3397.599268
-3397.845137
-3409.311582
-3409.579803
-3410.093893
-3442.414515
-3506.586374
-3554.352052
-3572.121688
-3563.292749
-3565.103241
-3519.99742
-3377.929733
-3293.015455
-3271.647188
-3296.457624
-3317.557671
-3260.672481
-3241.472333
-3243.707507
-3319.949307
-3395.475852
-3440.2911
-3464.878018
-3475.338635
-3482.692359
-3489.934324
-3504.150033
-3504.351199
-3478.914914
-3458.61953
-3465.459164
-3466.621455
-3452.4728
-3451.556379
-3467.33671
-3480.412481
-3471.740004
-3463.715728
-3472.097632
-3484.592257
-3482.938228
-3473.841068
-3484.905182
-3500.439644
-3502.786577
-3493.957638
-3504.887641
-3520.913842
-3529.720429
-3524.668935
-3528.356973
-3552.072174
-3570.490011
-3566.846677
-3575.697967
-3596.261572
-3615.595831
-3626.682297
-3634.907739
-3651.805657
-3663.897951
-3660.120506
-3652.766782
-3660.16521
-3670.245847
-3661.282797
-3644.831913
-3641.568558
-3638.841646
-3623.642459
-3592.573535
-3577.039072
-3574.982712
-3557.548351
-3523.774865
-3503.613592
-3503.099502
-3493.577658
-3465.548571
-3454.842085
-3462.888713
-3460.094745
-3441.475742
-3430.188111
-3435.351364
-3444.292062
-3431.238643
-3419.101646
-3426.321259
-3434.166722
-3423.035553
-3412.709047
-3414.854814
-3428.735248
-3424.443713
-3411.770274
-3415.704181
-3443.777972
-3453.657443
-3450.818771
-3447.9801
-3461.771126
-3464.788612
-3451.712841
-3442.906254
-3452.33869
-3465.459164
-3459.334786
-3454.663271
-3465.816792
-3472.723481
-3463.268693
-3455.892617
-3462.307568
-3469.12485
-3467.470821
-3460.698242
-3468.878981
-3485.039292
-3479.697225
-3463.939245
-3460.877056
-3471.337673
-3472.678777
-3456.987853
-3453.724498
-3466.643806
-3468.588408
-3447.287196
-3437.407725
-3452.919835
-3456.630225
-3446.840161
-3439.620547
-3439.419382
-3441.721611
-3435.261957
-3425.918928
-3430.81396
-3442.101591
-3437.161855
-3419.459274
-3419.191053
-3434.949033
-3437.720649
-3431.015126
-3429.383448
-3441.811018
-3444.627338
-3435.932509
-3436.915986
-3440.693431
-3438.525312
-3443.75562
-3445.722573
-3461.05587
-3475.964484
-3466.755565
-3457.07726
-3464.810963
-3471.740004
-3452.271635
-3427.818826
-3427.34944
-3430.366925
-3422.588518
-3405.936468
-3405.31062
-3414.206614
-3408.886899
-3393.598305
-3394.42532
-3410.295059
-3409.28923
-3393.263029
-3388.435052
-3393.754768
-3393.39714
-3393.888878
-3390.849041
-3403.164852
-3413.580765
-3422.588518
-3456.473763
-3515.460016
-3561.795182
-3564.365633
-3544.450229
-3536.872987
-3475.718615
-3348.93952
-3290.780281
-3250.41303
-3291.339075
-3293.686008
-3234.185664
-3204.122568
-3230.743495
-3351.979357
-3429.495207
-3462.709899
-3481.530068
-3496.483385
-3498.919725
-3499.545574
-3515.012981
-3517.538728
-3493.510603
-3472.678777
-3479.585466
-3485.218106
-3471.382376
-3452.919835
-3451.914007
-3458.306606
-3459.290082
-3448.695355
-3449.924701
-3468.811926
-3469.795402
-3456.026728
-3459.915931
-3484.905182
-3494.069397
-3485.955714
-3489.397882
-3506.787539
-3516.845824
-3514.074208
-3518.879833
-3544.182008
-3567.316063
-3567.181953
-3569.305369
-3596.10511
-3623.083666
-3626.995221
-3623.485997
-3635.220663
-3654.063184
-3650.397497
-3639.28868
-3644.250768
-3660.522838
-3653.817314
-3632.627861
-3622.144892
-3621.362581
-3605.045808
-3574.490973
-3550.351089
-3540.985708
-3525.294784
-3497.377455
-3473.617551
-3470.510658
-3468.789574
-3452.495152
-3433.719687
-3435.731344
-3440.80519
-3428.042344
-3414.787759
-3419.056942
-3427.908233
-3427.572957
-3420.554509
-3417.000582
-3429.137579
-3428.087047
-3410.563279
-3408.462215
-3418.162873
-3418.654611
-3400.393236
-3394.090044
-3408.953954
-3421.627393
-3414.094855
-3411.323239
-3421.627393
-3429.361097
-3424.220195
-3420.040419
-3425.002506
-3436.603062
-3439.91112
-3432.35623
-3437.295966
-3451.623434
-3456.294949
-3442.146294
-3443.420344
-3459.178324
-3462.195809
-3450.528199
-3448.293024
-3458.150143
-3464.542742
-3453.88096
-3455.6691
-3465.41446
-3466.30853
-3459.759469
-3453.344518
-3452.71867
-3457.233722
-3455.199713
-3448.270672
-3451.288158
-3461.413498
-3455.534989
-3450.617606
-3458.351309
-3486.313341
-3493.845879
-3473.841068
-3447.957748
-3422.320297
-3404.483605
-3384.478794
-3388.435052
-3409.579803
-3414.273669
-3399.745035
-3395.83348
-3425.762466
-3449.120039
-3428.623489
-3417.157044
-3433.607928
-3443.152123
-3434.546701
-3423.594346
-3439.307623
-3460.362966
-3463.313396
-3456.18319
-3457.770164
-3470.801231
-3473.48344
-3460.430021
-3450.483495
-3460.02769
-3450.483495
-3426.410666
-3412.038495
-3418.744018
-3416.777064
-3406.003524
-3407.299925
-3424.354306
-3433.429114
-3414.966573
-3396.21346
-3406.495262
-3429.249338
-3423.929623
-3410.339762
-3410.1833
-3416.218271
-3401.73434
-3385.059939
-3396.056997
-3447.443658
-3504.172385
-3542.505627
-3577.01672
-3605.939878
-3595.367503
-3528.513435
-3401.175547
-3308.974601
-3284.052406
-3263.019414
-3306.426502
-3292.56842
-3285.751138
-3263.198228
-3308.482863
-3405.131806
-3479.339597
-3508.307458
-3509.313286
-3533.229653
-3557.034261
-3558.353014
-3550.574607
-3541.678612
-3538.638775
-3530.413333
-3510.028542
-3509.469749
-3515.571775
-3515.303554
-3507.905127
-3506.005228
-3522.836092
-3531.933252
-3523.104313
-3517.851653
-3524.668935
-3530.033354
-3523.126665
-3527.976993
-3544.33847
-3560.051746
-3546.618348
-3542.595034
-3556.542522
-3566.354938
-3557.369537
-3556.520171
-3576.815555
-3604.777587
-3611.818387
-3617.205157
-3643.960195
-3662.199219
-3671.206972
-3657.170076
-3656.767745
-3681.242905
-3684.148632
-3676.57139
-3670.625826
-3676.325521
-3676.884315
-3645.211893
-3619.507387
-3609.694971
-3604.710532
-3582.917581
-3557.481296
-3539.08581
-3525.518301
-3506.92165
-3489.979028
-3487.632094
-3493.443548
-3469.63894
-3425.94128
-3404.885936
-3418.721666
-3419.459274
-3403.030742
-3401.421416
-3420.442751
-3433.049134
-3422.700277
-3410.563279
-3415.525367
-3421.917966
-3413.692524
-3414.385428
-3433.876149
-3441.609853
-3417.671134
-3406.271745
-3426.835349
-3444.202655
-3430.545739
-3409.222175
-3420.375695
-3427.707067
-3427.327088
-3432.177416
-3442.414515
-3461.301739
-3455.400879
-3440.738134
-3452.025765
-3477.84203
-3485.978065
-3483.899353
-3471.360024
-3467.068489
-3477.864382
-3478.445527
-3460.094745
-3471.538838
-3475.964484
-3463.671024
-3457.479591
-3468.431946
-3488.369702
-3495.90224
-3500.037313
-3490.761339
-3472.254094
-3465.101536
-3459.155972
-3475.338635
-3483.60878
-3482.558248
-3462.441678
-3437.117152
-3443.465047
-3458.686585
-3439.821713
-3427.237681
-3442.146294
-3454.730327
-3434.479646
-3432.87032
-3462.240513
-3479.808984
-3474.109289
-3475.092766
-3497.489214
-3514.61065
-3498.316228
-3484.324036
-3483.787594
-3481.641827
-3489.330827
-3487.587391
-3485.285161
-3491.029559
-3494.561135
-3499.277353
-3488.86144
-3481.954751
-3496.572792
-3497.355103
-3496.41633
-3521.830263
-3530.167464
-3501.937211
-3480.52424
-3487.788557
-3493.622362
-3472.07528
-3451.288158
-3459.580655
-3465.727385
-3438.145332
-3423.616698
-3435.776047
-3432.35623
-3423.415533
-3408.216346
-3401.354361
-3427.416495
-3446.907216
-3430.031649
-3391.631352
-3393.151271
-3404.483605
-3401.421416
-3404.505957
-3423.728457
-3437.877111
-3474.578676
-3523.573699
-3574.289808
-3605.112863
-3588.706683
-3553.457982
-3433.093838
-3301.933801
-3251.955301
-3232.062248
-3271.758946
-3258.034975
-3252.938778
-3243.707507
-3263.198228
-3340.401154
-3399.946201
-3419.816902
-3446.013146
-3489.911972
-3516.957583
-3524.400714
-3517.806949
-3526.52413
-3530.145112
-3515.50472
-3503.188908
-3518.745723
-3538.303499
-3522.366705
-3495.857536
-3498.495042
-3511.839034
-3517.136397
-3509.670914
-3511.593164
-3531.553272
-3522.43376
-3519.215109
-3532.693211
-3549.904054
-3561.035223
-3546.752458
-3550.038165
-3581.487069
-3591.053616
-3567.226656
-3561.012871
-3584.348093
-3614.67941
-3628.716305
-3636.427657
-3653.817314
-3677.666626
-3682.181678
-3686.763786
-3699.258411
-3720.783141
-3722.079542
-3703.102911
-3704.332257
-3722.303059
-3714.23408
-3683.545134
-3661.640425
-3646.061259
-3628.738657
-3624.715343
-3606.565727
-3587.119709
-3572.14404
-3547.534769
-3540.829246
-3544.003194
-3524.981859
-3493.354141
-3471.56119
-3477.774975
-3489.330827
-3474.489269
-3452.204579
-3450.282329
-3466.800269
-3471.024748
-3458.910103
-3451.8246
-3466.464992
-3454.596216
-3430.612794
-3444.761448
-3473.394033
-3484.815775
-3480.770109
-3474.601027
-3465.257998
-3446.951919
-3441.363983
-3441.31928
-3456.56317
-3477.350292
-3467.470821
-3456.898446
-3469.683644
-3489.777862
-3492.102443
-3474.533972
-3473.706958
-3495.00817
-3495.634019
-3468.543705
-3448.49419
-3446.013146
-3462.419327
-3460.139449
-3454.529161
-3470.756527
-3475.875077
-3467.806097
-3461.659367
-3467.739042
-3482.513545
-3477.685568
-3471.56119
-3477.752623
-3479.987798
-3476.635036
-3466.085013
-3454.327995
-3456.071431
-3444.873207
-3416.33003
-3425.5613
-3448.605949
-3453.836257
-3440.000527
-3429.115227
-3442.235701
-3442.392164
-3429.763428
-3431.126884
-3447.08603
-3450.148219
-3430.188111
-3418.90048
-3436.111323
-3456.004376
-3447.689527
-3439.195864
-3450.863475
-3463.268693
-3450.841123
-3419.951012
-3429.674021
-3462.46403
-3469.594237
-3463.134582
-3474.556324
-3481.887696
-3479.183135
-3477.618513
-3478.043196
-3474.042234
-3449.075335
-3418.565204
-3411.144425
-3425.762466
-3423.862567
-3417.179396
-3397.040474
-3395.274686
-3409.736265
-3411.256184
-3402.963686
-3404.237736
-3407.255221
-3401.309657
-3391.966628
-3397.867489
-3407.836367
-3401.08614
-3394.693541
-3409.400989
-3437.743001
-3480.993626
-3515.035333
-3550.932235
-3591.634761
-3580.86122
-3552.519208
-3463.246341
-3350.615901
-3312.953211
-3268.316778
-3305.308915
-3310.271002
-3278.240952
-3239.304213
-3248.759001
-3356.762631
-3434.390239
-3460.832353
-3457.792515
-3482.848821
-3517.851653
-3527.149979
-3516.242327
-3510.989667
-3518.723371
-3503.054798
-3483.877001
-3481.999455
-3493.175327
-3503.881813
-3489.196716
-3485.799251
-3496.528089
-3508.150996
-3495.566964
-3492.147147
-3507.413388
-3527.753476
-3522.612574
-3506.586374
-3508.486272
-3500.931382
-3506.184042
-3529.47456
-3561.392851
-3586.87384
-3591.523003
-3588.505517
-3607.705666
-3627.464608
-3623.016611
-3603.168261
-3616.08757
-3655.851323
-3668.971797
-3653.973777
-3652.029175
-3667.921265
-3668.904742
-3656.991262
-3668.010672
-3662.623902
-3638.618128
-3617.316916
-3626.637593
-3626.615241
-3626.414076
-3613.517119
-3581.151793
-3566.690214
-3554.083831
-3530.480388
-3503.881813
-3497.578621
-3494.1141
-3481.820641
-3468.051966
-3459.848876
-3470.287141
-3468.789574
-3451.019937
-3447.108382
-3458.865399
-3458.775992
-3446.236664
-3424.287251
-3425.874224
-3428.064695
-3429.338745
-3434.300832
-3449.969405
-3449.187094
-3432.915024
-3427.975288
-3440.447562
-3448.337728
-3447.756582
-3430.255166
-3420.17453
-3423.706105
-3431.19394
-3463.089879
-3483.564077
-3499.344408
-3507.927478
-3497.06453
-3479.473708
-3490.806042
-3498.606801
-3477.819679
-3467.806097
-3469.907161
-3475.673911
-3457.524295
-3436.156027
-3471.248266
-3496.013999
-3513.291897
-3526.188854
-3536.336546
-3531.553272
-3526.121798
-3510.095598
-3498.182118
-3495.634019
-3488.012074
-3461.43585
-3462.687548
-3478.691397
-3467.426117
-3460.184152
-3480.188963
-3504.798234
-3507.547499
-3498.785615
-3488.459109
-3490.001379
-3490.13549
-3479.160783
-3481.977103
-3498.182118
-3508.508624
-3503.792406
-3496.93042
-3499.634981
-3516.085865
-3523.461941
-3501.66899
-3473.885771
-3470.309492
-3471.315321
-3455.736155
-3447.287196
-3455.266768
-3451.489324
-3435.843102
-3426.880053
-3431.775085
-3441.386335
-3434.613756
-3429.450504
-3439.061754
-3449.857646
-3444.225007
-3435.329012
-3437.944166
-3443.420344
-3445.856684
-3446.326071
-3471.784708
-3531.821493
-3569.57359
-3589.734863
-3600.888383
-3600.731921
-3575.720319
-3463.87219
-3348.827761
-3324.687877
-3301.710284
-3335.282604
-3310.539223
-3283.493612
-3261.924179
-3290.087377
-3378.108547
-3465.526219
-3517.315211
-3524.110141
-3527.865234
-3543.645566
-3557.14602
-3548.406488
-3523.238423
-3515.460016
-3517.203452
-3514.23067
-3498.763263
-3501.557231
-3519.013944
-3523.551348
-3509.335638
-3513.291897
-3529.541615
-3531.553272
-3519.416275
-3518.276336
-3529.273394
-3538.884644
-3531.441513
-3527.574662
-3544.897264
-3557.79422
-3557.995386
-3553.837961
-3570.73588
-3593.199383
-3596.306276
-3595.300447
-3611.86309
-3634.885387
-3645.144838
-3645.591872
-3658.287663
-3680.997036
-3690.004789
-3679.119489
-3677.711329
-3688.753091
-3692.910515
-3676.549038
-3662.646253
-3666.31194
-3657.952387
-3636.181788
-3614.634706
-3605.962229
-3594.384026
-3564.052709
-3532.872025
-3519.99742
-3518.745723
-3504.462958
-3480.188963
-3470.801231
-3475.137469
-3467.604931
-3452.428097
-3448.561245
-3461.145277
-3459.446545
-3444.984966
-3439.464085
-3448.002451
-3451.399917
-3436.603062
-3428.556434
-3437.60889
-3442.995661
-3433.049134
-3422.141483
-3429.472855
-3440.671079
-3434.14437
-3420.129826
-3429.986945
-3447.331899
-3447.197789
-3435.261957
-3444.426172
-3460.653539
-3465.347405
-3457.010204
-3462.218161
-3478.870211
-3483.385263
-3475.495097
-3475.048062
-3489.152013
-3496.617496
-3488.481461
-3483.631132
-3496.304571
-3506.698132
-3496.885717
-3485.106347
-3491.878926
-3500.931382
-3494.002342
-3479.652522
-3485.329865
-3494.87406
-3486.402748
-3470.041271
-3468.543705
-3481.977103
-3482.737062
-3465.123888
-3460.362966
-3477.596161
-3485.39692
-3469.460126
-3458.910103
-3474.846897
-3485.888658
-3474.355158
-3461.413498
-3474.75749
-3500.216126
-3492.393016
-3480.256019
-3495.477557
-3507.860423
-3501.221955
-3495.298743
-3496.03635
-3496.41633
-3481.820641
-3454.752678
-3451.601082
-3464.229818
-3459.178324
-3443.599158
-3437.385373
-3444.560283
-3447.398954
-3432.535044
-3427.304736
-3438.793533
-3442.928605
-3429.629317
-3426.701239
-3438.63707
-3442.593329
-3431.305698
-3421.20271
-3433.183245
-3460.094745
-3499.411464
-3545.612519
-3595.300447
-3628.671602
-3608.130349
-3561.526962
-3455.847914
-3325.693706
-3265.187534
-3237.001984
-3282.756005
-3287.449871
-3259.644301
-3249.004871
-3271.758946
-3369.503125
-3437.385373
-3460.877056
-3479.339597
-3515.080037
-3545.098429
-3547.244197
-3538.102333
-3535.733048
-3532.179121
-3519.304516
-3506.206394
-3510.25206
-3520.422103
-3514.945926
-3501.713693
-3505.178214
-3521.78556
-3525.25008
-3511.771978
-3511.839034
-3528.424028
-3531.061534
-3520.265641
-3521.830263
-3540.203397
-3551.088697
-3546.595996
-3546.6407
-3562.622197
-3580.458889
-3581.62118
-3579.967151
-3596.909773
-3619.55209
-3627.486959
-3628.112808
-3649.861056
-3675.990245
-3683.679245
-3679.074786
-3685.400329
-3702.700579
-3704.779292
-3691.010617
-3684.148632
-3691.681169
-3688.060187
-3666.848381
-3650.241035
-3648.810524
-3636.315898
-3602.654171
-3574.513325
-3571.093508
-3565.99731
-3537.856464
-3510.050894
-3505.804063
-3508.307458
-3492.258905
-3472.432908
-3471.0471
-3478.914914
-3470.331844
-3454.39505
-3451.44462
-3461.748774
-3462.441678
-3448.717707
-3446.594292
-3459.312434
-3459.826524
-3446.638995
-3440.693431
-3451.355213
-3459.759469
-3449.075335
-3439.978175
-3449.745887
-3460.854704
-3454.372699
-3448.225969
-3456.160838
-3469.817754
-3470.242437
-3461.860533
-3463.313396
-3476.746795
-3482.379434
-3472.276446
-3475.718615
-3490.716635
-3491.476594
-3476.746795
-3472.991702
-3489.420234
-3494.650542
-3480.703054
-3474.310455
-3485.486327
-3490.895449
-3478.244362
-3470.220085
-3477.752623
-3482.871173
-3471.114155
-3459.535952
-3463.939245
-3475.606856
-3468.23078
-3454.663271
-3458.396013
-3473.48344
-3471.42708
-3452.316338
-3449.164742
-3467.001434
-3472.477612
-3458.552475
-3456.406707
-3477.685568
-3496.639847
-3487.475632
-3480.52424
-3493.197679
-3497.846842
-3491.498946
-3491.051911
-3495.276391
-3491.901278
-3468.499001
-3445.476704
-3445.521408
-3452.741021
-3445.633167
-3429.182283
-3430.881015
-3440.581672
-3436.915986
-3422.61087
-3421.247413
-3433.138541
-3433.786742
-3422.409704
-3420.30864
-3436.379544
-3438.480608
-3424.600175
-3420.062771
-3435.641937
-3463.559266
-3507.05576
-3555.246121
-3608.957363
-3635.354773
-3601.35777
-3543.176179
-3422.029724
-3307.521738
-3255.330414
-3250.480086
-3308.661676
-3284.298275
-3265.209885
-3255.866856
-3292.680179
-3378.466174
-3437.675945
-3464.073356
-3492.124795
-3531.955604
-3557.861275
-3555.290825
-3544.673746
-3545.634871
-3545.701926
-3530.681554
-3518.119874
-3526.054743
-3533.900205
-3526.591185
-3516.845824
-3525.026563
-3536.291842
-3532.29088
-3521.763208
-3525.63006
-3544.249063
-3549.635833
-3538.549368
-3540.829246
-3557.637758
-3563.404508
-3556.810743
-3563.471563
-3585.264514
-3600.083721
-3601.625991
-3607.057465
-3634.550111
-3668.703576
-3686.741434
-3703.594649
-3728.673307
-3752.567321
-3758.490534
-3751.092106
-3764.07847
-3776.461336
-3769.152316
-3752.880246
-3748.83458
-3753.975481
-3743.268996
-3717.18451
-3700.979495
-3695.548021
-3676.727852
-3644.943672
-3624.827102
-3620.58027
-3602.497709
-3572.613427
-3547.780639
-3543.712621
-3539.130514
-3519.99742
-3500.64081
-3500.149071
-3501.624286
-3485.687493
-3468.811926
-3477.372644
-3490.336655
-3481.820641
-3463.380452
-3465.637978
-3476.120946
-3470.376548
-3455.222065
-3453.389222
-3466.68851
-3470.041271
-3455.780858
-3450.93053
-3462.262864
-3471.538838
-3460.675891
-3453.053946
-3467.224952
-3481.820641
-3471.024748
-3460.988815
-3470.465955
-3485.352216
-3482.357083
-3474.221048
-3480.434833
-3490.895449
-3487.140356
-3475.383338
-3476.29976
-3487.922667
-3490.850746
-3482.670007
-3477.886734
-3485.732196
-3486.514507
-3469.594237
-3465.056832
-3474.399862
-3476.746795
-3464.051004
-3455.065603
-3462.46403
-3465.213295
-3453.478629
-3442.86155
-3450.796419
-3458.932454
-3450.684661
-3437.832408
-3445.54376
-3458.150143
-3453.031594
-3435.954861
-3437.899463
-3453.500981
-3459.357138
-3451.265806
-3449.924701
-3467.806097
-3475.226876
-3467.247303
-3456.56317
-3464.989777
-3481.217144
-3482.111213
-3477.640865
-3490.78369
-3506.02758
-3498.159766
-3487.252115
-3496.215164
-3498.025656
-3478.423176
-3454.506809
-3449.678832
-3458.753641
-3449.924701
-3431.32805
-3427.952937
-3437.497132
-3436.826579
-3426.790646
-3421.873262
-3430.523387
-3435.373716
-3423.929623
-3416.128864
-3429.78578
-3437.251262
-3423.236719
-3415.838291
-3429.182283
-3450.572902
-3489.286123
-3536.023621
-3585.264514
-3624.536529
-3616.936936
-3584.370444
-3504.9994
-3379.539058
-3311.723865
-3267.556818
-3309.756912
-3323.95027
-3279.269133
-3251.731783
-3261.588903
-3369.480773
-3447.756582
-3479.719577
-3489.554344
-3522.657278
-3550.10522
-3551.468677
-3545.74663
-3548.227674
-3544.830208
-3529.765133
-3514.007153
-3517.583432
-3526.904109
-3526.367667
-3512.219013
-3515.191795
-3530.88272
-3526.434723
-3517.963412
-3521.874967
-3538.839941
-3543.019717
-3531.173293
-3529.720429
-3547.646528
-3555.760211
-3548.428839
-3546.014851
-3565.818496
-3580.771813
-3577.955494
-3580.883572
-3603.928221
-3625.609413
-3634.036021
-3640.160399
-3664.501448
-3704.466367
-3719.822016
-3721.476045
-3730.26028
-3745.571225
-3742.509036
-3720.604327
-3715.128149
-3724.940565
-3717.966821
-3694.877469
-3679.991207
-3678.963027
-3664.814373
-3632.896082
-3605.761064
-3601.290715
-3588.706683
-3561.728127
-3535.7554
-3534.168426
-3532.670859
-3512.062551
-3494.62819
-3488.190888
-3496.170461
-3485.91101
-3468.476649
-3464.073356
-3474.958655
-3467.314359
-3452.293986
-3451.668138
-3462.486382
-3459.692414
-3444.627338
-3437.877111
-3446.951919
-3450.952882
-3445.16378
-3442.369812
-3453.478629
-3460.631187
-3459.334786
-3456.362004
-3469.63894
-3480.770109
-3475.517449
-3466.777917
-3477.685568
-3494.069397
-3494.829356
-3484.905182
-3492.616533
-3507.145167
-3506.966353
-3489.822565
-3491.208373
-3508.46392
-3515.057685
-3497.533917
-3497.220993
-3510.810853
-3511.391999
-3495.634019
-3490.426062
-3503.07715
-3506.295801
-3491.320132
-3477.059719
-3488.34735
-3503.144205
-3491.208373
-3471.94117
-3472.254094
-3489.800214
-3498.003304
-3488.906144
-3490.716635
-3512.062551
-3516.488196
-3503.032446
-3498.539746
-3515.951755
-3526.14415
-3516.868176
-3517.784598
-3525.361839
-3517.471673
-3488.749682
-3471.985873
-3476.188001
-3479.361949
-3466.956731
-3453.143353
-3455.356175
-3470.085975
-3459.312434
-3447.242492
-3449.477667
-3461.972292
-3457.680757
-3443.263882
-3442.883902
-3456.3173
-3454.529161
-3442.168646
-3445.722573
-3461.346443
-3477.19383
-3504.61942
-3547.825342
-3594.473433
-3618.501558
-3596.552145
-3580.883572
-3541.432743
-3443.129771
-3380.366073
-3327.079514
-3347.129029
-3376.320407
-3323.547938
-3276.139888
-3280.163202
-3402.427244
-3490.761339
-3525.942984
-3535.598938
-3557.66011
-3571.518191
-3569.551238
-3573.909828
-3579.877744
-3567.003139
-3541.991537
-3533.788447
-3541.499798
-3541.455095
-3527.529958
-3517.359914
-3529.139284
-3540.35986
-3530.860368
-3523.774865
-3535.509531
-3550.172275
-3544.182008
-3534.190778
-3545.590168
-3562.801011
-3565.639682
-3556.698985
-3563.829191
-3581.956456
-3591.277133
-3587.790261
-3594.69695
-3621.273174
-3639.780419
-3639.333384
-3645.480114
-3670.916399
-3688.529574
-3681.377015
-3674.64914
-3694.184565
-3710.188414
-3697.671437
-3686.406158
-3686.339103
-3689.066015
-3670.826992
-3647.894102
-3639.445143
-3635.086553
-3612.444235
-3578.983674
-3563.359805
-3559.135325
-3542.885607
-3515.772941
-3498.517394
-3499.500871
-3498.182118
-3479.876039
-3468.23078
-3476.858554
-3480.188963
-3468.946036
-3458.418364
-3467.135545
-3474.556324
-3463.671024
-3449.321204
-3455.6691
-3463.559266
-3455.959672
-3441.565149
-3448.963576
-3462.195809
-3461.100574
-3450.863475
-3456.339652
-3471.717652
-3472.276446
-3460.698242
-3466.353234
-3486.670969
-3493.801176
-3482.625304
-3481.731234
-3498.092711
-3510.229708
-3503.457129
-3495.477557
-3508.687438
-3519.326868
-3513.493063
-3505.401731
-3514.342429
-3526.65824
-3522.29965
-3508.910955
-3515.929403
-3527.306441
-3524.512473
-3511.548461
-3511.369647
-3518.656316
-3519.818606
-3504.798234
-3502.540708
-3519.86331
-3519.908013
-3501.981914
-3494.561135
-3505.625249
-3512.062551
-3501.959563
-3497.265696
-3501.534879
-3505.088807
-3504.217089
-3503.166557
-3509.961487
-3515.325906
-3511.347295
-3511.481406
-3518.097522
-3531.39681
-3536.358897
-3520.019772
-3521.651449
-3538.884644
-3538.661127
-3517.784598
-3507.346333
-3506.116987
-3506.094635
-3486.894487
-3473.282274
-3485.01694
-3491.16367
-3478.154955
-3465.012129
-3474.310455
-3482.424138
-3468.968388
-3456.160838
-3466.68851
-3479.317245
-3471.829411
-3460.497077
-3462.195809
-3474.332806
-3475.964484
-3482.468841
-3527.418199
-3591.187726
-3632.49375
-3636.226491
-3620.535567
-3611.48311
-3527.529958
-3391.139614
-3336.601357
-3307.588793
-3345.027965
-3331.25929
-3284.275923
-3275.961074
-3312.55088
-3409.400989
-3477.417347
-3523.976031
-3549.099392
-3564.812668
-3570.154735
-3580.101261
-3592.439424
-3584.638665
-3555.603749
-3543.846732
-3555.87197
-3562.801011
-3547.758287
-3541.320985
-3550.664014
-3557.302482
-3549.769944
-3544.405525
-3555.35788
-3565.796145
-3559.71647
-3553.100354
-3564.142116
-3578.313122
-3578.268418
-3570.512363
-3583.610485
-3600.061369
-3599.390817
-3592.707645
-3608.1527
-3639.109867
-3647.290605
-3645.748335
-3656.678338
-3683.522783
-3697.44792
-3693.201088
-3699.1243
-3716.402199
-3725.789932
-3716.558661
-3709.473158
-3719.084408
-3722.839501
-3704.980457
-3689.423643
-3689.870678
-3687.032007
-3665.239056
-3634.594814
-3620.937898
-3615.595831
-3591.299485
-3561.325796
-3554.530865
-3555.447287
-3543.802028
-3520.533862
-3512.397827
-3517.359914
-3514.878871
-3497.757435
-3489.688455
-3501.8031
-3503.926516
-3493.711769
-3482.401786
-3490.64958
-3498.897374
-3488.86144
-3477.350292
-3483.027635
-3491.431891
-3484.50285
-3472.83524
-3480.479536
-3497.288048
-3496.997475
-3485.508679
-3490.426062
-3508.687438
-3508.910955
-3497.533917
-3500.909031
-3517.695191
-3519.148054
-3511.883737
-3515.772941
-3531.9109
-3539.644604
-3530.480388
-3523.506644
-3536.403601
-3544.673746
-3535.777752
-3525.183025
-3534.481351
-3543.511455
-3535.24131
-3525.026563
-3534.973089
-3544.047897
-3537.074153
-3522.053781
-3520.824435
-3531.217996
-3527.03822
-3509.469749
-3506.787539
-3517.918708
-3519.416275
-3502.831281
-3493.60001
-3503.904164
-3513.06838
-3496.528089
-3484.949885
-3497.600972
-3508.598031
-3498.584449
-3482.804118
-3489.24142
-3505.245269
-3502.943039
-3485.463975
-3482.111213
-3505.021752
-3514.61065
-3500.64081
-3504.217089
-3520.623269
-3519.818606
-3509.022714
-3510.274411
-3517.918708
-3511.056723
-3484.994588
-3466.710862
-3472.656426
-3481.68653
-3467.627283
-3455.378527
-3465.168591
-3472.119984
-3464.229818
-3452.025765
-3461.301739
-3472.254094
-3462.821658
-3447.935396
-3449.432963
-3459.446545
-3461.815829
-3452.450449
-3456.607873
-3475.092766
-3503.323019
-3551.088697
-3601.134253
-3650.263387
-3659.449954
-3616.422846
-3537.744705
-3402.673114
-3306.314743
-3260.940702
-3273.435327
-3317.960002
-3283.940647
-3272.541257
-3274.016473
-3342.681032
-3428.735248
-3479.004321
-3500.819624
-3529.60867
-3568.053671
-3580.928276
-3575.116822
-3572.434613
-3572.568723
-3566.578456
-3549.658185
-3544.539636
-3556.564874
-3558.263607
-3543.779676
-3540.762191
-3556.363709
-3563.672729
-3553.882665
-3547.579473
-3558.755345
-3571.697005
-3569.662996
-3567.427822
-3578.894267
-3594.428729
-3591.724168
-3583.185802
-3591.970037
-3613.830044
-3620.848491
-3616.176977
-3626.615241
-3650.777477
-3664.389689
-3663.182695
-3673.889181
-3701.270068
-3713.205899
-3712.222423
-3717.497434
-3732.383696
-3741.14558
-3728.852121
-3716.960992
-3724.87351
-3728.5839
-3711.261298
-3689.289533
-3683.902762
-3680.102966
-3657.21478
-3625.855282
-3610.499634
-3606.61043
-3589.511346
-3561.370499
-3549.613482
-3546.573644
-3533.922557
-3519.952717
-3511.727275
-3519.438627
-3522.053781
-3502.04897
-3489.531993
-3496.773958
-3502.898336
-3494.516432
-3483.362911
-3490.046083
-3498.47269
-3488.190888
-3476.411519
-3484.949885
-3496.885717
-3492.035388
-3478.311417
-3485.01694
-3504.060627
-3504.842938
-3490.694283
-3498.003304
-3526.702944
-3544.629043
-3539.376383
-3539.5999
-3557.123668
-3570.400604
-3553.837961
-3538.258796
-3551.289863
-3563.784488
-3550.10522
-3538.70583
-3544.114953
-3552.40745
-3544.740801
-3531.508569
-3535.7554
-3545.724278
-3537.878816
-3523.528996
-3526.121798
-3534.794275
-3531.061534
-3516.108217
-3511.012019
-3524.020734
-3522.880795
-3506.720484
-3501.043141
-3512.733103
-3518.209281
-3504.664124
-3492.884754
-3502.272487
-3511.28024
-3499.992609
-3490.046083
-3494.49408
-3500.283182
-3491.990685
-3480.390129
-3486.134527
-3496.058702
-3490.314304
-3477.640865
-3480.814812
-3492.437719
-3493.041216
-3477.84203
-3476.009187
-3488.86144
-3495.566964
-3482.44649
-3477.774975
-3499.925554
-3511.839034
-3494.225859
-3486.559211
-3503.837109
-3513.448359
-3499.120891
-3490.515469
-3509.000362
-3532.626156
-3529.47456
-3526.345316
-3539.197569
-3550.284034
-3543.913787
-3528.111104
-3517.896356
-3505.781711
-3490.13549
-3473.662254
-3468.275484
-3462.32992
-3449.723536
-3434.837274
-3436.513655
-3446.370774
-3446.884864
-3436.938338
-3428.802303
-3441.900425
-3451.534027
-3443.37564
-3433.674983
-3443.979137
-3454.171533
-3448.091858
-3442.481571
-3468.275484
-3537.789409
-3593.15468
-3622.055485
-3639.15457
-3628.917471
-3580.458889
-3436.044268
-3313.288488
-3283.292447
-3294.669484
-3339.775305
-3302.04556
-3292.479014
-3304.258383
-3329.71702
-3395.207631
-3457.613702
-3504.395903
-3522.880795
-3539.734011
-3568.143078
-3588.997255
-3579.765985
-3560.387023
-3556.296653
-3564.812668
-3559.761174
-3544.807857
-3540.717487
-3556.319005
-3560.387023
-3548.942929
-3548.093563
-3560.275264
-3562.957473
-3551.938063
-3548.853522
-3566.24318
-3576.100299
-3565.505572
-3556.698985
-3572.345206
-3585.040997
-3580.145965
-3575.541505
-3588.840793
-3611.885442
-3618.501558
-3621.47434
-3636.785285
-3663.696785
-3673.665663
-3675.833783
-3687.121414
-3709.987248
-3729.545025
-3729.075638
-3729.790894
-3748.722821
-3752.075583
-3738.820999
-3731.199054
-3734.015373
-3728.919176
-3710.344876
-3692.217611
-3685.780309
-3677.443108
-3647.804695
-3618.725076
-3609.002067
-3603.123558
-3584.817479
-3561.63872
-3551.736897
-3551.356918
-3539.175217
-3517.471673
-3513.291897
-3522.456112
-3515.974106
-3502.205432
-3492.70594
-3498.539746
-3494.404673
-3484.771071
-3483.675836
-3492.840051
-3495.38815
-3485.687493
-3480.457184
-3490.940153
-3497.265696
-3489.822565
-3483.049987
-3491.454243
-3502.898336
-3499.791443
-3489.084958
-3492.236554
-3505.960525
-3508.016885
-3499.769092
-3497.9586
-3515.750589
-3524.08779
-3510.520281
-3507.838071
-3519.304516
-3525.361839
-3515.884699
-3510.676743
-3521.763208
-3526.457074
-3515.527071
-3505.446435
-3513.627173
-3522.701981
-3515.460016
-3507.122816
-3511.816682
-3521.986726
-3517.337563
-3503.166557
-3505.446435
-3516.421141
-3513.113083
-3494.918763
-3494.829356
-3504.440606
-3499.567926
-3484.413443
-3476.970312
-3474.623379
-3472.499963
-3456.250245
-3445.364946
-3459.401841
-3469.035443
-3458.194847
-3450.327033
-3450.729364
-3458.016033
-3454.797382
-3444.850855
-3452.293986
-3472.544667
-3468.186077
-3456.406707
-3469.013091
-3490.403711
-3482.491193
-3467.001434
-3479.473708
-3501.825452
-3503.032446
-3494.963467
-3499.456167
-3516.689362
-3524.445417
-3517.806949
-3515.817644
-3526.255909
-3531.709734
-3519.058647
-3499.88085
-3494.739949
-3492.236554
-3474.086937
-3458.552475
-3462.262864
-3468.431946
-3459.558303
-3446.661347
-3450.237626
-3462.598141
-3460.832353
-3442.481571
-3444.64969
-3464.878018
-3467.671987
-3451.466972
-3440.760486
-3458.798344
-3467.314359
-3453.769201
-3454.26094
-3501.087845
-3559.06827
-3590.71834
-3610.611392
-3616.065218
-3614.634706
-3563.896246
-3436.826579
-3358.841343
-3337.182502
-3317.736485
-3344.737392
-3314.696647
-3293.820118
-3266.729804
-3340.199988
-3449.120039
-3521.696153
-3538.661127
-3536.962394
-3547.043031
-3572.948703
-3584.281037
-3574.513325
-3561.683424
-3560.029395
-3559.023566
-3541.879778
-3532.156769
-3539.488141
-3552.630967
-3544.919615
-3532.737915
-3544.405525
-3559.872932
-3557.816572
-3546.685403
-3549.881703
-3566.220828
-3570.266494
-3563.337453
-3565.550276
-3582.805822
-3588.41611
-3584.124575
-3593.065273
-3610.723151
-3624.938861
-3624.357715
-3628.537491
-3650.68807
-3674.157402
-3679.812393
-3679.164193
-3696.777367
-3711.820091
-3710.076655
-3702.544117
-3710.926021
-3720.939603
-3715.91046
-3697.693789
-3694.005751
-3698.274934
-3686.964951
-3659.986396
-3644.02725
-3638.104038
-3621.384933
-3585.130404
-3567.941912
-3563.806839
-3552.385098
-3529.273394
-3514.878871
-3514.074208
-3511.391999
-3497.109234
-3484.569905
-3489.867269
-3496.237516
-3484.860478
-3469.147202
-3473.282274
-3481.977103
-3474.779841
-3458.172495
-3459.021861
-3471.024748
-3470.309492
-3456.786687
-3452.71867
-3463.380452
-3469.840106
-3462.598141
-3457.434888
-3470.01892
-3470.644769
-3464.207466
-3469.236609
-3495.611667
-3510.564984
-3498.629153
-3490.157841
-3505.6476
-3518.857481
-3514.364781
-3507.368685
-3517.918708
-3532.737915
-3527.149979
-3511.257888
-3513.291897
-3534.838979
-3540.829246
-3530.435685
-3522.791388
-3535.37542
-3541.90213
-3531.039182
-3524.691287
-3537.834112
-3543.623214
-3532.872025
-3526.635888
-3538.415258
-3542.863255
-3533.006136
-3526.322964
-3538.214092
-3552.54156
-3540.896301
-3522.81374
-3517.248156
-3518.209281
-3510.855557
-3501.959563
-3511.771978
-3524.691287
-3522.947851
-3503.345371
-3497.891545
-3505.51349
-3509.380342
-3492.862403
-3479.406652
-3490.78369
-3505.066455
-3499.36676
-3491.856574
-3495.634019
-3503.613592
-3501.892507
-3494.807004
-3500.77492
-3515.169444
-3516.711714
-3508.754493
-3517.002287
-3533.229653
-3533.83315
-3522.836092
-3518.365743
-3520.667973
-3506.094635
-3483.541725
-3472.097632
-3477.797327
-3479.004321
-3455.825562
-3440.224044
-3453.36687
-3466.509696
-3458.641882
-3446.638995
-3448.918873
-3457.434888
-3448.382431
-3439.01705
-3445.521408
-3448.11421
-3430.031649
-3404.282439
-3402.181375
-3419.638088
-3437.966518
-3475.584504
-3531.217996
-3581.867049
-3601.424825
-3578.782508
-3555.335528
-3473.215219
-3347.486657
-3293.015455
-3255.241007
-3307.588793
-3311.612107
-3271.267208
-3254.682214
-3293.753063
-3411.502053
-3478.669045
-3496.952772
-3511.101426
-3545.120781
-3559.671767
-3560.498781
-3575.206229
-3576.681444
-3557.973034
-3535.084848
-3530.703906
-3546.752458
-3548.250025
-3535.710697
-3532.357935
-3542.349165
-3545.970147
-3536.045973
-3531.687383
-3550.261682
-3570.668825
-3562.756307
-3554.910845
-3567.494877
-3580.324779
-3576.033244
-3566.712566
-3573.596904
-3588.527869
-3597.848546
-3591.143023
-3610.566689
-3639.892178
-3644.54134
-3636.628823
-3650.978643
-3682.360492
-3694.989228
-3692.083501
-3690.854155
-3713.71999
-3727.645126
-3718.793835
-3711.03778
-3718.927946
-3726.639298
-3725.90169
-3727.220443
-3729.366211
-3726.259318
-3702.097082
-3666.937788
-3645.591872
-3632.851378
-3610.790206
-3583.476375
-3571.62995
-3569.975921
-3555.916674
-3530.346278
-3519.706848
-3525.048915
-3515.683534
-3493.264734
-3483.564077
-3489.308475
-3500.529051
-3494.717597
-3488.749682
-3494.695246
-3494.829356
-3478.199658
-3468.186077
-3473.99753
-3479.138431
-3475.808022
-3464.542742
-3469.013091
-3482.20062
-3480.881868
-3470.175382
-3475.428042
-3491.186022
-3491.320132
-3477.394995
-3479.63017
-3495.477557
-3498.316228
-3492.996513
-3491.722464
-3509.179176
-3518.231632
-3502.004266
-3480.859516
-3481.887696
-3499.389112
-3503.121853
-3501.66899
-3514.074208
-3523.685458
-3512.934269
-3505.692304
-3509.469749
-3523.551348
-3518.745723
-3511.101426
-3509.536804
-3522.322002
-3529.318098
-3513.113083
-3507.078112
-3515.728237
-3510.877909
-3494.896411
-3487.743853
-3499.23265
-3501.825452
-3485.151051
-3480.14426
-3493.242382
-3495.678722
-3484.189926
-3473.86342
-3478.020844
-3487.185059
-3479.473708
-3467.470821
-3473.326978
-3479.76428
-3472.902295
-3464.788612
-3472.209391
-3487.140356
-3487.788557
-3471.18121
-3463.939245
-3468.61076
-3481.306551
-3466.442641
-3464.743908
-3479.049024
-3480.926571
-3460.094745
-3451.578731
-3467.962559
-3481.842993
-3479.63017
-3476.411519
-3486.492155
-3495.566964
-3485.843955
-3480.323074
-3486.849783
-3493.510603
-3490.381359
-3485.598086
-3495.365798
-3517.42697
-3528.602842
-3518.477502
-3512.934269
-3522.567871
-3519.99742
-3493.4659
-3466.576751
-3466.956731
-3475.204524
-3469.907161
-3459.714766
-3460.988815
-3464.498039
-3455.043251
-3442.392164
-3448.404783
-3463.045175
-3456.138486
-3439.508789
-3443.196826
-3456.786687
-3455.333824
-3438.458257
-3439.128809
-3454.372699
-3460.54178
-3461.212332
-3502.272487
-3574.870953
-3627.665773
-3636.33825
-3610.991372
-3576.145002
-3463.73808
-3318.764665
-3254.659862
-3258.124382
-3332.958023
-3301.15149
-3261.879475
-3273.569438
-3319.256403
-3391.98898
-3438.838236
-3473.818716
-3505.357028
-3534.101371
-3550.552255
-3563.516267
-3575.541505
-3569.461831
-3547.66888
-3542.215054
-3548.607653
-3546.148961
-3532.000307
-3540.426915
-3561.191685
-3565.147944
-3551.51338
-3544.785505
-3555.693156
-3568.210133
-3562.175162
-3550.909883
-3558.040089
-3574.96036
-3573.619255
-3568.433651
-3579.229543
-3595.725131
-3600.284886
-3594.875764
-3597.669732
-3619.328573
-3636.762933
-3636.85234
-3648.721117
-3671.095213
-3686.160289
-3686.272047
-3690.205954
-3709.62962
-3724.49353
-3714.681115
-3702.611173
-3716.133978
-3727.801589
-3718.771484
-3701.448882
-3701.225364
-3701.225364
-3683.455728
-3655.56075
-3637.053506
-3623.977736
-3609.516157
-3589.220773
-3573.909828
-3572.926351
-3562.644549
-3532.112066
-3516.354086
-3522.880795
-3522.992554
-3506.139339
-3496.081054
-3502.831281
-3507.972182
-3493.4659
-3479.607818
-3487.810908
-3499.88085
-3491.431891
-3478.691397
-3483.944057
-3492.258905
-3481.485365
-3465.772088
-3470.53301
-3484.704016
-3488.72733
-3484.994588
-3481.731234
-3493.711769
-3496.706903
-3484.547554
-3486.872135
-3502.272487
-3505.178214
-3494.337618
-3490.537821
-3504.23944
-3515.527071
-3507.927478
-3495.611667
-3507.301629
-3519.617441
-3514.074208
-3502.227783
-3501.378417
-3510.25206
-3515.795292
-3499.590278
-3496.505737
-3512.733103
-3516.868176
-3503.680647
-3502.339542
-3512.375475
-3511.771978
-3499.769092
-3494.695246
-3501.087845
-3501.8031
-3491.320132
-3489.107309
-3497.846842
-3500.931382
-3487.185059
-3478.7361
-3484.525202
-3493.376493
-3486.358045
-3472.83524
-3474.578676
-3479.518411
-3474.668083
-3471.807059
-3469.482478
-3476.724443
-3475.584504
-3464.520391
-3464.788612
-3472.634074
-3481.328902
-3473.818716
-3473.394033
-3480.300722
-3481.194792
-3467.470821
-3461.458202
-3477.238533
-3496.304571
-3488.235591
-3472.388205
-3482.804118
-3500.551403
-3494.024693
-3474.265751
-3487.006245
-3513.403656
-3521.115008
-3515.057685
-3522.322002
-3534.235482
-3525.048915
-3501.847804
-3494.784653
-3509.045066
-3507.346333
-3485.843955
-3469.594237
-3476.523277
-3478.35612
-3458.977158
-3447.622472
-3457.032556
-3461.122925
-3447.667175
-3439.598196
-3449.835294
-3461.547609
-3455.624396
-3439.777009
-3442.079239
-3453.322167
-3449.343556
-3437.720649
-3446.773105
-3489.308475
-3548.04886
-3591.724168
-3631.174997
-3653.236169
-3629.073933
-3546.439534
-3387.295113
-3282.30897
-3246.43442
-3256.336243
-3292.724883
-3268.920275
-3282.532487
-3273.189458
-3311.65681
-3385.305808
-3445.387297
-3478.311417
-3493.912935
-3528.088752
-3566.332587
-3572.52402
-3554.776735
-3540.203397
-3540.672784
-3543.802028
-3533.877854
-3531.888548
-3545.299595
-3549.859351
-3538.70583
-3535.129551
-3550.574607
-3557.369537
-3548.093563
-3539.443438
-3549.702889
-3559.001214
-3558.732993
-3552.452153
-3564.07506
-3582.850526
-3583.811651
-3580.704758
-3593.869936
-3612.421884
-3615.148796
-3615.528776
-3630.95148
-3650.576311
-3657.952387
-3661.595721
-3683.433376
-3710.970725
-3722.168949
-3716.625716
-3719.777312
-3737.68106
-3743.179589
-3732.920138
-3722.839501
-3725.409952
-3728.650955
-3710.344876
-3688.708387
-3679.566524
-3671.229323
-3657.527704
-3630.705611
-3615.528776
-3608.957363
-3588.952552
-3558.978863
-3544.740801
-3543.109124
-3531.955604
-3515.080037
-3501.423121
-3502.786577
-3508.374513
-3501.065493
-3494.158804
-3497.489214
-3498.85267
-3486.223934
-3473.148164
-3476.188001
-3482.357083
-3467.604931
-3455.959672
-3467.761394
-3481.306551
-3477.953789
-3465.995606
-3468.253132
-3478.333769
-3483.519373
-3479.831336
-3479.853687
-3494.695246
-3497.913897
-3488.660275
-3487.877964
-3500.26083
-3505.960525
-3498.629153
-3495.946943
-3503.434778
-3512.956621
-3507.189871
-3498.092711
-3506.809891
-3519.215109
-3508.97801
-3498.517394
-3503.546536
-3513.470711
-3506.362856
-3493.778824
-3497.690379
-3512.129606
-3506.720484
-3496.349275
-3489.6214
-3498.584449
-3501.378417
-3486.760376
-3479.071376
-3488.526164
-3493.734121
-3484.458147
-3479.853687
-3488.280295
-3493.488251
-3476.366815
-3462.419327
-3472.83524
-3489.643751
-3486.04512
-3476.500926
-3483.809946
-3494.203507
-3490.493118
-3480.814812
-3497.243344
-3515.616478
-3511.704923
-3498.137414
-3499.634981
-3515.661182
-3516.91288
-3507.681609
-3525.004211
-3547.713583
-3548.831171
-3529.541615
-3507.703961
-3500.171423
-3494.270562
-3477.19383
-3467.269655
-3470.622417
-3475.159821
-3465.235646
-3450.237626
-3454.998547
-3460.295911
-3452.137524
-3445.387297
-3449.634129
-3466.17442
-3465.392109
-3451.534027
-3447.957748
-3457.904274
-3459.13362
-3447.421306
-3452.539856
-3509.760321
-3572.278151
-3602.005971
-3620.513215
-3626.436427
-3620.468512
-3562.353976
-3422.253242
-3342.099886
-3309.73456
-3305.554784
-3330.901662
-3296.949362
-3286.958133
-3271.244856
-3346.279662
-3446.281367
-3513.805987
-3527.418199
-3529.943947
-3547.80299
-3574.222752
-3580.950627
-3572.188744
-3559.448249
-3558.867104
-3558.017738
-3541.790371
-3532.112066
-3536.358897
-3537.320022
-3536.78358
-3538.661127
-3551.558083
-3556.430764
-3552.183932
-3545.031374
-3555.313177
-3572.054633
-3572.948703
-3561.236389
-3566.846677
-3584.705721
-3590.33836
-3582.291732
-3587.499689
-3608.666791
-3621.809616
-3621.183767
-3627.375201
-3649.212855
-3666.110774
-3672.682187
-3682.606361
-3700.979495
-3713.831748
-3705.78512
-3702.879393
-3722.839501
-3736.138789
-3727.82394
-3706.947411
-3702.387655
-3707.617963
-3694.050454
-3665.350815
-3653.303224
-3647.402364
-3628.313974
-3599.994314
-3579.497764
-3577.217886
-3566.086717
-3539.376383
-3516.756417
-3519.371571
-3517.538728
-3504.127682
-3489.509641
-3492.996513
-3491.700112
-3471.650597
-3463.134582
-3479.272542
-3486.067472
-3471.583542
-3456.071431
-3454.238588
-3466.196771
-3474.176344
-3465.123888
-3463.067527
-3473.192867
-3473.371681
-3462.352271
-3456.987853
-3475.808022
-3486.29099
-3480.233667
-3478.199658
-3488.414405
-3500.663161
-3494.225859
-3485.218106
-3489.688455
-3505.759359
-3506.474615
-3498.427987
-3504.507661
-3513.738932
-3510.76615
-3499.858499
-3507.793368
-3524.512473
-3518.812778
-3500.059664
-3501.043141
-3514.253022
-3517.359914
-3498.003304
-3492.035388
-3506.787539
-3506.206394
-3488.21324
-3483.273504
-3495.052873
-3499.36676
-3484.346388
-3480.256019
-3489.666103
-3493.443548
-3497.44451
-3493.622362
-3501.445472
-3498.427987
-3490.761339
-3488.839089
-3500.193775
-3510.90026
-3518.656316
-3517.874005
-3515.616478
-3528.938118
-3525.898281
-3503.032446
-3486.246286
-3483.251152
-3479.361949
-3461.100574
-3453.031594
-3462.531085
-3466.442641
-3451.846951
-3438.793533
-3445.186132
-3456.294949
-3447.644824
-3428.914062
-3436.156027
-3453.322167
-3453.88096
-3439.575844
-3439.754658
-3453.679795
-3457.07726
-3456.339652
-3493.734121
-3553.681499
-3590.248953
-3595.903944
-3578.581343
-3578.380177
-3547.087735
-3426.902405
-3351.979357
-3309.466339
-3300.816214
-3327.012459
-3287.740444
-3258.593769
-3250.6589
-3341.049354
-3442.638033
-3516.734066
-3541.544502
-3541.566854
-3547.691232
-3562.555142
-3582.247029
-3577.374348
-3550.462848
-3534.011964
-3546.797162
-3550.015813
-3530.949775
-3519.550385
-3530.927423
-3541.119819
-3535.24131
-3532.715563
-3542.684441
-3550.865179
-3542.483275
-3530.636851
-3544.293767
-3566.578456
-3567.159601
-3550.440496
-3542.93031
-3553.346223
-3549.881703
-3541.38804
-3552.519208
-3574.110994
-3584.750424
-3587.633799
-3600.508404
-3621.876672
-3642.708497
-3646.19537
-3652.587968
-3678.739509
-3693.178736
-3683.031044
-3669.128259
-3681.801698
-3695.816242
-3683.321617
-3667.518934
-3662.713309
-3659.025271
-3638.282852
-3613.360657
-3600.910735
-3590.114843
-3567.494877
-3539.577548
-3524.914804
-3523.663106
-3509.447397
-3479.607818
-3473.326978
-3489.75551
-3488.034426
-3469.303664
-3461.882885
-3470.622417
-3476.188001
-3466.040309
-3461.525257
-3466.755565
-3469.147202
-3457.390184
-3449.567074
-3456.004376
-3472.142335
-3468.968388
-3464.453335
-3470.041271
-3477.953789
-3478.60199
-3476.188001
-3477.305588
-3486.179231
-3490.627228
-3485.106347
-3485.620437
-3502.920688
-3513.269545
-3503.904164
-3500.596106
-3516.689362
-3526.971165
-3517.494025
-3510.632039
-3522.366705
-3523.506644
-3516.91288
-3515.728237
-3524.959508
-3538.504665
-3527.865234
-3519.259813
-3526.367667
-3538.57172
-3528.401676
-3506.809891
-3504.798234
-3517.404618
-3514.409484
-3496.572792
-3498.986781
-3508.866252
-3512.867214
-3492.95181
-3485.888658
-3496.729254
-3501.378417
-3486.80508
-3474.712786
-3486.872135
-3502.272487
-3491.67776
-3485.262809
-3496.081054
-3506.876946
-3499.23265
-3480.390129
-3488.414405
-3507.033409
-3500.529051
-3487.475632
-3493.331789
-3504.172385
-3509.715618
-3503.658295
-3492.325961
-3491.990685
-3480.479536
-3454.931492
-3449.745887
-3454.26094
-3457.457239
-3446.661347
-3430.791608
-3439.374678
-3444.604986
-3435.17255
-3426.656535
-3432.22212
-3442.816847
-3436.536007
-3421.537986
-3423.571995
-3437.161855
-3440.80519
-3435.17255
-3442.325108
-3483.519373
-3538.862293
-3570.490011
-3605.336381
-3617.562785
-3595.702779
-3528.312269
-3398.381579
-3320.597508
-3285.415862
-3280.878458
-3315.031924
-3286.80167
-3277.123365
-3268.026205
-3338.210683
-3431.84214
-3499.769092
-3517.315211
-3517.315211
-3542.639737
-3563.56097
-3565.751441
-3548.719412
-3535.062496
-3534.615461
-3533.050839
-3521.807912
-3515.012981
-3527.976993
-3541.544502
-3529.273394
-3520.802083
-3534.168426
-3547.467714
-3538.661127
-3527.68642
-3537.565891
-3557.302482
-3558.241255
-3552.899188
-3560.543485
-3578.447232
-3580.324779
-3569.953569
-3576.837906
-3600.061369
-3604.866994
-3606.051636
-3624.916509
-3650.978643
-3665.797849
-3665.775498
-3673.218629
-3690.652989
-3701.918268
-3697.760844
-3703.035856
-3709.450806
-3712.356533
-3702.097082
-3682.181678
-3673.777422
-3666.736623
-3635.555939
-3604.419959
-3594.56284
-3593.646418
-3573.082813
-3548.987633
-3536.515359
-3538.392906
-3522.992554
-3494.181155
-3480.166612
-3494.069397
-3500.327885
-3486.000417
-3475.226876
-3484.726368
-3482.759414
-3465.257998
-3463.581617
-3472.857591
-3478.981969
-3473.326978
-3462.32992
-3464.788612
-3469.705995
-3462.195809
-3452.249283
-3459.915931
-3470.801231
-3469.281312
-3458.910103
-3458.798344
-3471.538838
-3480.479536
-3474.086937
-3478.289065
-3491.610705
-3491.275429
-3490.157841
-3495.656371
-3510.699095
-3517.404618
-3499.813795
-3492.147147
-3506.586374
-3517.628135
-3508.083941
-3495.119929
-3501.780749
-3507.614554
-3500.596106
-3485.91101
-3489.084958
-3497.176289
-3489.509641
-3473.237571
-3475.696263
-3485.665141
-3480.501888
-3458.194847
-3454.90914
-3476.031539
-3477.797327
-3462.531085
-3459.804172
-3473.617551
-3478.043196
-3466.867324
-3459.021861
-3466.397937
-3473.10346
-3471.248266
-3472.946998
-3487.45328
-3494.784653
-3481.03833
-3475.629208
-3489.308475
-3498.450339
-3492.527126
-3484.949885
-3488.906144
-3514.275374
-3518.857481
-3498.986781
-3486.827432
-3485.821603
-3476.635036
-3455.579693
-3442.995661
-3451.623434
-3454.663271
-3445.901387
-3437.206559
-3445.655518
-3454.126829
-3442.816847
-3430.903367
-3436.938338
-3444.046193
-3436.267786
-3429.115227
-3435.954861
-3445.253187
-3450.684661
-3445.610815
-3470.465955
-3539.286976
-3589.488994
-3613.517119
-3615.864052
-3602.922392
-3547.937101
-3393.799471
-3279.380891
-3255.509228
-3271.401318
-3300.682104
-3246.479123
-3244.780391
-3259.979577
-3315.590717
-3385.261105
-3453.076297
-3496.841013
-3515.63883
-3532.045011
-3549.367613
-3569.305369
-3564.924427
-3537.320022
-3526.993516
-3533.408467
-3528.535787
-3512.956621
-3519.103351
-3537.007098
-3546.797162
-3537.498836
-3530.011002
-3543.086772
-3549.658185
-3534.503702
