ECG Channel
3745.280653
3777.489516
3776.483688
3744.408935
3713.563527
3724.113551
3736.541121
3731.869606
3723.644164
3741.883188
3766.581865
3775.164935
3763.452621
3768.034729
3777.690682
3766.872438
3728.740362
3722.504225
3741.592615
3750.332147
3741.257339
3739.200978
3759.071679
3779.121194
3773.779127
3760.144563
3744.878321
3740.184455
3722.05719
3721.878376
3746.264129
3780.261133
3781.088147
3766.179534
3795.929706
3835.425238
3831.133703
3798.969543
3776.997778
3774.539086
3754.46722
3720.470216
3703.996981
3722.593632
3731.53433
3718.637373
3715.329315
3721.610155
3717.810359
3695.726835
3682.762823
3700.91244
3724.515882
3713.205899
3702.655876
3710.322524
3718.145635
3706.522728
3689.803623
3763.743194
3877.066538
3942.512446
4066.363462
4286.5952
4456.289644
4493.974685
4312.702037
3978.543458
3733.702449
3610.812558
3656.164248
3775.053176
3856.055898
3888.354169
3844.477695
3781.177554
3755.361289
3763.519676
3757.685871
3742.531388
3750.957996
3764.570208
3768.370005
3760.032804
3765.576037
3790.431176
3788.151299
3762.737365
3772.728595
3809.676028
3816.828587
3798.142528
3795.035636
3812.246479
3815.710999
3798.321342
3789.425348
3816.470959
3833.190064
3829.457322
3823.802331
3838.330965
3863.856657
3855.251235
3843.874197
3865.398927
3902.771044
3905.721474
3893.092739
3914.237489
3950.38026
3955.565865
3940.880768
3941.774838
3964.797135
3981.896219
3977.425871
3979.817507
4001.76692
4024.588051
4032.433514
4029.661897
4039.764886
0
3802.165842
3903.575707
4014.663877
4047.409182
4027.00204
3956.638748
3892.958628
3867.544695
3850.624424
3829.747895
3803.439892
3799.103653
3814.928688
3792.666351
3757.842333
3756.568284
3774.047348
3754.198999
3717.631545
3706.410969
3722.772446
3722.392466
3693.469309
3685.355626
3695.771539
3699.63839
3724.001792
3797.069645
3856.637044
3935.449295
4099.801671
4293.121909
4361.026509
4305.191851
4040.234273
3751.047403
3552.116877
3539.443438
3629.498616
3699.526632
3760.88217
3799.70715
3763.117345
3690.876507
3664.412041
3687.121414
3699.347818
3687.367283
3675.252637
3692.999922
3702.901745
3685.042701
3688.082539
3717.966821
3718.056228
3677.130184
3666.602512
3705.941582
3717.855062
3697.805547
3687.613152
3699.057245
3720.51492
3704.175795
3682.762823
3707.19328
3740.296214
3738.776295
3721.006658
3731.959013
3773.68972
3784.753833
3770.001682
3766.246589
3786.474918
3808.6702
3802.52347
3822.394171
3850.847942
3852.814895
3839.314442
3832.608918
3864.907189
3881.358073
3860.123916
3841.951947
3855.631215
3880.329893
3891.528117
3901.362884
3908.895422
3913.008143
3887.996541
3874.473736
3891.528117
3918.685486
3917.612602
3897.920716
3887.840079
3884.934352
3854.759497
3808.513738
3779.657636
3780.037615
3774.047348
3741.570263
3718.413856
3737.368135
3745.258301
3716.178681
3686.294399
3683.053396
3676.102004
3631.756143
3583.185802
3599.860203
3647.268253
3654.219646
3625.877634
3620.267346
3647.491771
3658.086498
3637.679355
3624.067142
3641.769724
3650.822181
3637.947576
3629.789189
3645.43541
3651.358622
3638.416962
3626.391724
3626.794055
3641.814428
3639.02046
3636.405305
3665.775498
3676.683149
3650.017518
3597.714436
3587.723206
3612.153663
3619.194462
3601.536584
3595.300447
3607.660962
3595.836889
3575.072119
3572.948703
3598.005008
3605.314029
3588.460814
3587.343226
3598.720264
3618.345096
3623.351887
3622.189596
3631.577329
3657.72887
3666.893085
3648.721117
3644.720154
3654.934902
3652.185637
3625.31884
3600.910735
3589.667808
3581.844697
3563.538619
3555.648453
3573.507497
3578.447232
3552.765078
3540.449266
3545.903092
3548.495894
3527.909938
3520.466807
3532.827322
3540.426915
3518.253984
3494.427025
3502.518356
3529.407505
3589.846622
3656.678338
3747.649938
3910.437692
4125.126198
4236.259071
4244.305699
4058.339186
3746.219426
3481.55242
3380.120204
3473.885771
3564.119764
3592.171203
3609.56086
3598.832023
3545.679575
3492.393016
3487.296818
3520.3774
3542.103296
3531.888548
3524.08779
3550.261682
3576.256761
3559.671767
3534.503702
3536.515359
3553.413278
3550.038165
3536.917691
3548.227674
3571.294674
3568.433651
3538.616423
3530.927423
3549.658185
3566.37729
3547.691232
3531.217996
3543.332642
3553.167409
3552.049822
3553.43563
3579.564819
3609.382046
3604.956401
3598.697913
3613.427712
3633.253709
3631.242052
3627.24109
3652.453858
3688.462518
3684.662722
3662.936826
3661.372204
3691.412949
3707.70737
3697.336161
3701.918268
3716.29044
3723.241833
3711.104835
3718.369152
3758.334071
3770.73929
3745.817095
3719.017353
3725.164083
3734.395353
3708.757902
3679.432414
3675.699672
3679.432414
3662.668605
3633.432523
3620.714381
3610.812558
3579.229543
3542.952662
3542.147999
3558.151848
3548.540598
3521.472635
3514.074208
3521.986726
3498.204469
3456.69728
3448.561245
3482.871173
3509.045066
3506.005228
3499.255001
3508.754493
3535.24131
3544.919615
3530.055705
3516.778769
3507.681609
3504.61942
3498.070359
3502.31719
3521.562042
3515.616478
3494.851708
3501.333714
3528.0664
3536.560063
3515.549423
3513.180138
3538.661127
3531.2627
3501.445472
3491.878926
3515.728237
3528.58049
3515.616478
3504.507661
3521.316173
3539.197569
3524.512473
3502.227783
3518.902185
3543.891435
3552.161581
3560.364671
3584.102223
3586.963247
3579.117784
3569.305369
3560.99052
3577.77668
3580.481241
3564.052709
3551.066345
3557.503648
3556.944854
3540.784543
3513.828339
3503.300667
3496.952772
3483.541725
3482.781766
3506.631077
3521.249118
3502.943039
3468.811926
3466.509696
3487.140356
3489.576696
3476.970312
3483.497022
3502.451301
3502.652467
3523.730162
3609.292639
3695.413911
3806.345619
3986.679493
4177.921018
4278.615627
4191.108548
3867.835268
3560.118802
3386.959837
3409.557451
3524.177197
3595.903944
3622.480169
3591.455947
3518.522205
3448.449486
3450.707012
3483.049987
3487.654446
3478.825507
3496.639847
3524.333659
3533.028487
3529.139284
3535.397772
3564.410337
3563.672729
3539.354031
3535.040144
3556.319005
3576.793203
3562.555142
3552.832133
3564.879723
3570.132383
3562.331624
3563.113935
3580.391834
3601.514232
3597.580325
3595.21104
3625.944689
3653.191466
3659.964044
3654.130239
3670.625826
3700.867736
3707.439149
3695.235097
3708.064998
3742.397278
3757.529409
3748.588711
3758.267016
3790.453528
3822.282412
3822.416523
3821.634212
3840.454381
3851.876122
3839.582663
3838.330965
3869.91398
3901.541698
3907.509614
3912.426998
3935.359888
3961.198504
3967.233475
3949.463838
3936.119847
3924.385181
3903.776873
3873.490259
3862.917884
3879.860506
3875.881896
3854.826552
3830.396096
3832.363049
3823.064723
3800.712979
3790.498232
3810.860671
3830.954889
3807.530261
3773.108575
3768.302949
3782.228086
3783.278618
3772.125098
3794.409787
3824.897566
3827.088037
3818.035581
3821.947136
3840.722601
3844.500046
3825.210491
3826.439837
3837.638061
3840.767305
3839.29209
3838.107447
3852.479619
3855.139477
3833.368878
3820.986011
3839.023869
3854.357166
3849.059802
3845.43882
3849.484485
3861.420317
3834.128837
3800.176537
3814.995744
3843.047183
3838.375668
3812.492348
3811.508871
3829.390267
3829.591433
3808.312572
3800.243592
3822.014191
3830.641965
3814.526357
3812.13472
3827.780941
3840.499084
3847.539884
3849.886817
3859.565122
3864.79543
3842.398982
3816.314497
3823.91409
3840.968471
3838.733296
3813.967563
3810.21247
3822.885909
3807.552613
3781.915162
3775.723729
3785.536144
3778.897676
3756.747098
3752.433211
3763.56438
3760.502191
3740.318565
3738.061039
3756.925912
3763.072641
3738.306908
3719.956126
3733.054248
3752.634377
3767.565342
3832.787732
3913.142254
4007.600726
4166.946312
4373.387024
4510.738493
4524.015429
4274.346444
3922.507634
3669.619998
3602.095378
3712.82592
3815.688648
3873.490259
3891.19284
3849.842113
3784.865592
3757.283539
3773.913237
3789.090072
3786.609028
3787.972485
3798.142528
3795.907354
3773.443851
3764.72667
3792.420482
3818.393209
3804.803348
3783.569191
3793.850993
3820.762494
3822.215357
3795.035636
3790.766453
3818.639078
3841.236692
3834.151189
3827.400962
3832.541863
3832.228939
3831.714848
3838.778
3869.221076
3881.469832
3864.080174
3853.910131
3878.362939
3899.060655
3900.468814
3896.646666
3926.821521
3954.068298
3962.42785
3972.664949
3980.666874
3982.119737
3970.49683
3949.217969
3954.984719
3977.470574
3994.860231
3992.446243
3994.212031
4019.380095
4033.908729
4024.252775
4023.246947
4037.440304
4030.33245
3996.581316
3973.268446
3983.662007
3990.591048
3970.921513
3941.528969
3932.007126
3915.779759
3869.668111
3833.972375
3825.143436
3823.109427
3795.482671
3780.283484
3798.209584
3830.284337
3828.965584
3789.470051
3766.358348
3777.400109
3782.250438
3763.296159
3752.768487
3774.539086
3799.662447
3789.06772
3781.155203
3806.211508
3827.311555
3820.494273
3800.958848
3807.619668
3812.358238
3791.481708
3771.834525
3785.491441
3825.702229
3839.627366
3806.524432
3781.065796
3790.162956
3801.49529
3785.469089
3775.053176
3789.246534
3791.816985
3777.131889
3769.308778
3786.921953
3792.576944
3773.890886
3761.887999
3777.265999
3799.282467
3813.341715
3822.260061
3821.857729
3827.110389
3815.263965
3795.817947
3798.947191
3816.426255
3802.411712
3764.369042
3762.446792
3787.726615
3769.174667
3721.5431
3699.101949
3711.685981
3713.541176
3696.911478
3688.842498
3698.297286
3708.98142
3693.379902
3686.04853
3704.846347
3718.190338
3689.401292
3650.732774
3651.313919
3679.2536
3702.387655
3768.43706
3840.566139
3927.894405
4083.104918
4273.519429
4340.641718
4312.947907
4085.340093
3775.857839
3536.336546
3505.848766
3619.440331
3707.908536
3741.458504
3774.829659
3766.179534
3704.779292
3656.745393
3658.645291
3680.639408
3672.972759
3665.596684
3684.618018
3720.13494
3717.899766
3698.341989
3696.486795
3717.005696
3726.79576
3723.487702
3721.766618
3743.224292
3750.555664
3731.042591
3726.192263
3738.038687
3736.40701
3713.183548
3698.274934
3709.651972
3728.852121
3720.425513
3721.766618
3757.440002
3783.077453
3779.747043
3768.191191
3784.731482
3820.538976
3827.803293
3819.488444
3818.236747
3844.321232
3858.961625
3849.730355
3854.781849
3878.362939
3881.760404
3862.35909
3864.14723
3892.869221
3903.262782
3888.1083
3887.035416
3913.231661
3933.951728
3924.474588
3908.090759
3914.572765
3925.65923
3901.362884
3850.333852
3834.262947
3836.587529
3819.801369
3784.954999
3771.946284
3775.276694
3762.29033
3734.86474
3718.704429
3727.019277
3729.477969
3703.661704
3680.527649
3687.546097
3683.545134
3657.013614
3645.770686
3662.713309
3681.332312
3660.16521
3637.344079
3650.017518
3671.519896
3676.794908
3669.172963
3673.844477
3691.859983
3697.939658
3685.601495
3680.438242
3697.760844
3695.2798
3667.675396
3668.323597
3690.183603
3699.817204
3680.79587
3671.117565
3690.138899
3699.325466
3684.26039
3668.189486
3677.532515
3692.038797
3680.952332
3662.489791
3670.961102
3686.316751
3682.673416
3665.127297
3669.038852
3686.629675
3685.02035
3667.34012
3665.216704
3681.488774
3682.919286
3660.81341
3657.013614
3678.560695
3689.021312
3677.84544
3674.447974
3692.105853
3708.690847
3709.964896
3705.002809
3717.050399
3723.063019
3699.392521
3684.819184
3698.252582
3718.838539
3710.858966
3692.150556
3670.357605
3668.547114
3660.724003
3635.44418
3625.721172
3640.898006
3635.600643
3604.755235
3589.153718
3598.072064
3608.823253
3595.993351
3591.031264
3615.260555
3629.744486
3614.478244
3590.628933
3608.107997
3667.98832
3742.509036
3780.641112
3884.532021
4097.99118
4295.938229
4361.875875
4313.774921
4056.171066
3763.363214
3539.443438
3506.40756
3632.694916
3722.392466
3749.594539
3739.916234
3704.62283
3665.507277
3633.052544
3622.457817
3635.846512
3647.469419
3635.488884
3628.828064
3665.887256
3703.102911
3694.229268
3648.810524
3624.514177
3637.791114
3648.11762
3639.199273
3645.457762
3660.969873
3671.877524
3668.658873
3662.579198
3665.619035
3670.022329
3660.589893
3660.209913
3683.500431
3686.04853
3674.872658
3680.102966
3708.847309
3729.61208
3723.912385
3734.820036
3769.867572
3791.258191
3787.480746
3767.565342
3773.197982
3795.460319
3802.054084
3787.100767
3789.000665
3811.777092
3824.584642
3811.508871
3807.351447
3814.526357
3821.053066
3805.33979
3801.11531
3829.502026
3866.449459
3863.431974
3843.51657
3841.907244
3859.721584
3848.724526
3817.208566
3803.372837
3803.529299
3784.776185
3752.880246
3732.04842
3719.822016
3705.159271
3683.209858
3668.860038
3664.434393
3657.818277
3644.004899
3640.808599
3648.855227
3630.19152
3592.506479
3580.123613
3591.835927
3603.883517
3587.611447
3596.082758
3623.731866
3648.028213
3643.110829
3636.092381
3641.613262
3634.617166
3612.399532
3597.066235
3611.527814
3637.209968
3634.773628
3616.556956
3616.266384
3639.758067
3645.882445
3637.031154
3627.598718
3637.075858
3651.246864
3644.653099
3633.924262
3641.367393
3642.105
3615.774645
3611.527814
3626.279965
3643.580215
3626.59289
3606.811596
3615.551128
3630.526797
3630.884425
3627.196387
3636.382954
3634.997146
3606.61043
3582.537601
3587.969075
3613.092436
3617.853358
3599.681389
3599.904907
3617.093398
3625.072971
3608.420921
3598.206174
3630.482093
3663.450916
3650.397497
3629.54332
3643.356698
3665.373166
3655.448992
3620.624974
3602.967096
3606.968058
3593.646418
3561.348148
3571.227619
3595.613372
3586.225639
3555.044956
3546.573644
3551.781601
3543.176179
3526.926461
3529.273394
3556.788392
3563.136287
3535.464827
3514.722409
3526.680592
3541.723316
3536.180083
3535.040144
3570.110031
3655.448992
3708.355571
3770.895752
3950.737888
4185.11828
4304.744816
4284.963523
4057.199247
3755.294234
3511.637868
3403.947163
3498.629153
3625.967041
3690.585934
3694.497489
3661.595721
3618.412151
3580.86122
3563.963302
3570.065328
3589.220773
3608.599735
3596.261572
3585.376273
3598.519099
3614.455892
3608.286811
3591.433596
3591.36654
3603.905869
3605.58225
3594.741654
3588.550221
3598.206174
3593.691122
3576.256761
3573.395738
3592.372369
3609.784378
3605.58225
3605.246974
3624.603584
3628.962175
3611.594869
3604.196442
3620.177939
3643.624919
3637.388782
3631.84555
3647.178846
3659.338195
3655.896027
3658.153553
3680.013559
3708.713199
3704.108739
3686.629675
3700.621867
3726.326373
3726.773408
3711.93185
3715.664591
3749.259263
3760.256321
3738.776295
3723.510054
3734.551815
3742.732554
3730.997888
3718.07858
3731.288461
3733.45658
3701.650047
3652.453858
3637.455837
3636.20414
3601.961267
3565.058537
3550.038165
3537.185912
3511.526109
3465.615626
3457.948978
3473.99753
3469.974216
3443.710916
3439.844065
3456.004376
3455.758507
3433.809094
3417.514672
3428.556434
3431.70803
3418.453445
3411.010314
3425.740114
3444.090896
3439.352326
3434.881977
3452.763373
3467.314359
3456.987853
3442.258053
3448.181265
3470.01892
3463.268693
3449.500018
3447.957748
3463.3581
3458.418364
3445.54376
3441.475742
3456.876094
3460.675891
3450.103515
3447.197789
3464.542742
3463.961597
3450.751716
3451.645786
3477.573809
3502.339542
3492.795347
3467.739042
3460.385318
3460.899408
3451.489324
3449.701184
3469.862457
3490.224897
3482.670007
3469.884809
3466.733213
3477.864382
3469.773051
3452.33869
3452.584559
3477.059719
3488.637923
3471.851763
3462.307568
3481.083033
3477.082071
3464.0063
3456.965501
3470.488306
3504.194737
3521.562042
3514.297725
3510.944964
3521.204415
3518.231632
3500.439644
3503.546536
3516.15292
3504.731179
3471.650597
3457.636053
3464.90037
3463.916893
3437.675945
3415.95005
3420.845082
3418.587556
3394.470023
3394.313561
3430.746905
3449.365908
3426.388315
3400.840271
3390.647875
3400.795567
3391.899573
3376.253352
3392.12309
3417.425265
3489.263772
3570.244142
3677.621922
3856.033546
4069.850334
4185.967646
4194.72953
4000.60463
3668.792983
3395.140576
3290.534412
3424.063733
3563.225694
3617.674544
3617.339267
3585.778604
3551.178104
3516.91288
3522.143188
3558.487124
3589.354883
3598.742616
3604.375256
3628.26927
3655.381936
3655.896027
3639.847474
3641.523855
3667.720099
3673.308036
3664.501448
3668.457707
3685.53444
3692.664646
3687.411986
3696.509146
3733.233062
3765.419574
3748.946339
3732.830731
3735.669403
3752.947301
3762.715013
3766.425403
3792.420482
3826.193968
3828.116218
3826.417485
3852.524323
3883.727358
3879.346416
3863.63314
3883.526192
3913.812806
3915.980925
3902.21225
3909.744788
3934.287004
3947.206312
3940.366678
3946.200484
3974.631903
3985.584257
3972.374376
3976.91178
4000.805795
4027.963165
4025.124493
4014.820339
4032.120589
4044.346993
4014.619173
3980.331597
3959.075088
3950.782591
3932.431809
3899.731207
3878.161773
3861.397965
3833.167712
3803.819871
3807.016171
3820.114293
3815.286316
3791.057025
3784.731482
3790.922915
3776.416633
3739.670365
3721.207824
3744.073658
3756.568284
3735.423533
3724.851158
3748.879284
3767.431231
3755.450696
3740.318565
3751.002699
3776.26017
3770.8734
3747.784048
3741.726725
3754.444868
3756.545932
3742.844313
3745.727688
3758.021147
3769.286426
3748.856932
3737.122266
3747.538179
3750.689775
3726.572243
3726.907519
3752.16499
3761.932702
3733.322469
3708.176757
3730.819074
3749.21456
3736.250548
3715.843405
3725.745228
3754.802496
3748.409897
3723.890033
3716.938641
3732.987193
3729.969708
3706.835652
3700.130129
3722.660687
3740.385621
3720.201995
3703.818167
3716.133978
3716.849234
3693.983399
3673.62096
3691.994094
3698.4761
3680.013559
3675.051472
3701.605344
3728.427437
3732.741324
3724.180606
3731.869606
3741.100876
3737.725763
3728.650955
3742.352574
3770.649883
3762.446792
3728.114513
3712.088312
3726.616946
3707.640315
3681.891105
3680.482945
3694.743358
3694.519841
3670.29055
3656.097192
3671.542248
3687.233172
3673.933884
3655.672509
3663.696785
3684.841536
3679.678283
3656.164248
3656.588931
3686.9426
3696.576202
3725.499359
3799.729502
3886.387215
4013.792159
4214.555528
4373.923465
4415.631821
4280.873153
3944.501751
3670.625826
3561.325796
3606.811596
3687.233172
3735.825865
3797.047293
3820.851901
3779.322359
3734.328298
3721.207824
3738.016336
3736.071734
3731.914309
3744.185417
3766.738327
3773.555609
3770.761641
3781.088147
3801.785863
3797.315514
3777.869496
3779.434118
3810.324229
3815.33102
3794.432139
3791.347598
3817.230918
3834.531168
3825.054029
3811.508871
3820.494273
3822.908261
3806.479729
3800.288296
3824.159959
3845.550578
3832.295994
3826.506892
3863.186105
3893.472718
3885.537849
3874.741957
3890.455233
3911.197652
3907.286096
3886.946009
3882.743881
3903.687466
3915.712704
3912.449349
3910.035361
3918.685486
3924.787512
3913.410474
3914.349248
3950.246149
3973.603722
3963.634844
3950.939053
3957.17519
3964.685376
3953.598911
3931.336574
3931.29187
3935.717515
3903.061617
3855.362994
3840.007346
3847.606939
3833.927671
3786.094938
3759.138734
3759.094031
3754.46722
3736.02703
3727.801589
3729.209748
3717.385676
3677.733681
3651.872713
3666.155477
3694.676303
3686.875544
3660.992224
3663.048585
3685.847364
3689.356588
3686.18264
3691.368245
3710.769559
3707.416798
3679.812393
3674.090347
3702.208841
3715.128149
3696.978533
3689.960085
3707.19328
3717.363324
3707.394446
3697.023236
3704.689885
3720.716086
3705.919231
3681.645236
3687.389635
3698.252582
3692.888164
3669.329425
3668.681224
3687.680207
3685.221515
3664.032062
3668.23419
3683.768652
3690.295361
3672.324559
3668.547114
3681.82405
3694.11751
3699.861908
3700.01837
3715.552833
3713.205899
3692.977571
3692.865812
3732.718972
3768.593522
3748.387545
3730.461446
3755.741269
3771.76747
3745.392411
3696.464443
3696.129167
3705.941582
3683.187507
3656.723041
3668.636521
3683.0981
3661.640425
3630.124465
3620.110884
3638.327555
3645.100134
3620.110884
3612.89127
3639.691012
3653.794963
3631.309108
3612.623049
3624.245956
3641.769724
3630.973832
3616.109921
3676.213762
3780.171726
3829.099694
3913.432826
4132.926957
4322.067418
4346.788448
4218.936469
3916.830291
3659.65112
3491.454243
3503.367722
3641.07682
3724.180606
3741.950243
3711.529519
3666.244884
3648.698765
3638.685183
3627.933994
3628.425733
3660.880466
3679.499469
3663.272102
3645.390707
3659.338195
3682.807527
3672.928056
3647.894102
3658.913512
3689.960085
3689.736568
3677.063129
3671.385786
3676.884315
3663.272102
3650.486904
3660.142858
3681.108794
3692.061149
3691.30119
3693.893992
3718.346801
3737.770467
3727.198091
3717.072751
3735.356478
3760.993929
3763.787897
3757.238836
3768.258246
3792.107557
3799.371874
3797.27081
3825.925747
3843.091886
3841.259043
3826.641002
3835.760514
3868.12584
3875.546619
3867.164715
3860.392137
3880.17343
3884.643779
3872.976169
3874.250218
3898.412454
3914.952745
3897.920716
3874.40668
3887.057768
3897.183108
3865.823611
3826.819816
3816.381552
3807.865537
3767.319473
3729.209748
3720.336106
3731.981365
3717.340972
3693.312847
3682.539306
3691.010617
3682.606361
3661.305149
3655.381936
3665.887256
3668.837687
3643.133181
3630.459741
3644.384878
3652.543265
3635.622994
3625.765875
3645.323651
3664.14382
3660.29932
3653.88437
3658.935864
3663.070937
3656.499524
3645.636576
3645.502465
3659.315844
3665.328463
3652.163285
3650.062221
3668.681224
3682.829879
3653.593797
3631.689087
3639.780419
3647.849399
3638.506369
3630.236224
3645.100134
3662.065108
3652.118582
3635.712401
3636.248843
3638.461666
3631.152645
3622.144892
3632.784323
3650.084573
3640.361564
3616.758122
3626.21291
3649.592835
3652.163285
3634.572462
3631.353811
3654.443163
3656.186599
3628.090456
3615.864052
3628.783361
3638.998108
3630.929128
3622.189596
3643.870788
3652.655024
3637.165265
3626.950518
3650.621015
3669.508239
3661.930998
3660.902817
3675.118527
3678.851268
3660.254617
3641.59091
3649.369317
3669.351777
3671.765765
3667.250713
3665.775498
3671.654006
3660.366375
3618.613317
3596.686256
3617.898061
3624.044791
3594.629895
3575.228581
3596.418035
3619.440331
3611.371352
3596.507442
3592.685293
3599.927258
3589.623104
3578.201363
3593.735825
3619.663849
3608.1527
3616.355791
3708.22146
3792.91222
3885.068462
4047.76681
4258.387298
4385.233448
4361.317082
4078.343997
3774.114403
3574.513325
3519.86331
3604.598773
3684.77448
3727.980402
3712.557699
3670.894047
3632.985489
3634.259538
3640.56273
3630.392686
3618.859186
3629.230395
3638.796942
3628.671602
3617.272212
3639.266329
3666.468402
3663.942655
3639.042811
3641.389744
3672.525724
3682.382844
3665.462573
3655.337233
3664.099117
3662.08746
3647.268253
3642.261462
3669.955274
3698.677265
3699.683094
3704.399312
3711.082484
3729.187397
3717.273917
3712.200071
3735.557644
3757.015319
3758.065851
3752.54497
3775.567266
3800.757682
3797.114348
3780.797575
3787.52545
3807.239688
3810.659505
3800.042427
3805.898584
3840.297918
3857.955796
3846.645814
3845.43882
3877.044186
3902.145195
3893.539774
3882.229791
3898.054826
3920.160701
3907.3308
3878.63116
3870.182201
3882.47566
3855.608863
3813.811101
3789.157127
3786.810194
3772.214505
3739.804475
3721.073713
3720.805492
3709.719027
3691.502356
3678.87362
3681.30996
3673.24098
3649.302262
3633.544282
3632.761971
3639.221625
3620.82614
3603.347075
3616.199328
3643.826085
3655.672509
3646.173018
3656.074841
3676.236114
3669.441184
3644.161361
3639.914529
3650.218684
3647.827047
3632.247881
3632.203177
3650.55396
3655.538399
3634.214834
3627.978698
3641.434448
3651.649195
3643.870788
3631.510273
3640.026288
3639.422791
3626.771704
3623.575404
3650.17398
3666.110774
3653.817314
3632.091419
3625.83293
3630.727962
3633.410172
3625.028268
3622.346058
3622.524872
3610.924317
3587.320875
3594.339322
3633.186654
3660.902817
3640.473323
3611.281945
3610.276116
3632.940785
3622.279003
3601.514232
3611.080779
3640.652137
3635.757105
3618.166282
3618.434503
3633.924262
3631.331459
3614.478244
3617.786302
3633.253709
3651.20216
3650.084573
3645.323651
3660.031099
3666.110774
3660.6793
3658.310015
3674.246809
3681.667588
3675.274989
3673.173925
3676.414928
3673.285684
3644.608396
3615.864052
3635.086553
3654.219646
3644.809561
3617.339267
3620.267346
3641.792076
3645.547169
3630.415038
3617.49573
3629.610375
3635.555939
3628.336326
3619.93207
3627.866939
3658.354718
3725.856987
3794.208621
3920.384219
4125.707343
4322.067418
4421.242108
4392.05073
4127.294317
3812.492348
3580.168316
3542.863255
3656.208951
3720.380809
3748.074621
3742.307871
3700.979495
3654.264349
3632.314936
3646.418887
3671.631655
3669.418832
3654.443163
3647.804695
3664.434393
3672.972759
3665.440221
3671.989283
3688.171946
3694.899821
3670.849344
3668.480059
3691.569411
3703.125263
3688.194297
3686.406158
3704.37696
3713.787045
3697.738492
3693.916344
3723.286536
3757.194132
3752.455563
3734.127132
3741.257339
3773.82383
3794.812118
3797.471976
3817.789712
3845.327061
3850.914997
3845.684689
3855.206532
3885.090814
3882.632122
3857.240541
3851.183218
3885.716663
3921.658268
3921.725323
3906.459082
3921.211233
3939.830236
3935.873978
3933.683507
3947.340423
3968.909856
3973.581371
3957.733984
3958.292777
3973.201391
3966.875847
3943.20535
3931.090704
3924.586347
3908.783663
3873.624369
3847.942215
3836.811046
3826.372782
3806.144453
3775.679025
3773.890886
3786.184345
3760.099859
3732.271937
3734.909443
3741.391449
3718.346801
3695.883297
3698.230231
3706.790949
3702.700579
3695.995056
3716.29044
3742.754906
3743.023126
3726.147559
3726.684001
3750.287443
3752.634377
3728.807417
3715.731647
3729.925004
3731.444923
3721.945431
3718.615022
3732.450751
3750.600368
3736.02703
3708.176757
3714.74817
3733.97067
3738.485722
3727.041629
3722.43717
3739.782124
3736.02703
3728.136865
3731.444923
3739.491551
3723.152426
3703.102911
3708.333219
3718.302097
3726.639298
3712.647106
3696.777367
3709.696676
3725.365248
3717.408027
3704.131091
3716.402199
3728.315679
3712.378885
3690.563582
3699.012542
3710.300173
3697.246754
3682.584009
3697.514975
3729.2321
3727.376905
3699.325466
3699.63839
3724.49353
3732.093123
3723.107722
3736.518769
3763.094993
3762.022109
3750.153333
3738.686888
3756.00949
3758.714051
3734.238891
3716.089274
3722.101894
3738.865702
3730.304984
3714.099969
3696.755015
3695.212745
3670.514067
3646.173018
3650.643367
3672.302207
3670.961102
3652.967948
3666.021367
3685.802661
3682.762823
3666.043719
3666.021367
3681.578181
3684.707425
3704.153443
3782.831583
3867.298826
3981.940923
4173.674187
4361.540599
4422.382047
4336.30548
4028.879586
3730.193225
3534.168426
3544.673746
3661.975701
3737.748115
3777.578923
3785.73731
3749.996871
3700.241888
3689.848326
3702.678228
3697.917306
3665.306111
3653.057355
3673.978588
3708.534385
3717.631545
3714.323487
3718.547966
3713.630583
3692.888164
3688.48487
3707.886184
3734.283594
3724.404123
3708.154405
3730.282632
3753.506095
3741.123228
3713.518824
3713.71999
3731.221405
3740.027993
3729.433266
3734.060077
3751.069754
3769.308778
3768.615874
3780.730519
3792.040502
3784.954999
3770.001682
3773.779127
3801.987028
3819.331982
3812.782921
3802.858746
3821.723619
3853.686613
3852.211398
3833.279471
3842.510741
3860.258026
3859.229846
3852.569026
3865.086003
3898.010123
3901.876974
3884.308503
3890.790509
3920.65244
3928.654364
3915.735056
3902.189899
3904.581535
3876.775965
3825.501064
3790.408825
3788.844203
3787.368987
3754.511923
3725.141731
3713.116492
3699.861908
3672.749242
3644.78721
3645.122486
3660.567541
3651.805657
3624.022439
3614.590003
3625.341192
3622.144892
3601.022494
3613.315953
3649.346965
3661.618073
3644.518989
3638.595776
3655.851323
3658.399422
3638.77459
3623.620108
3634.013669
3647.402364
3644.764858
3637.634651
3640.830951
3647.603529
3644.362526
3637.835817
3646.441239
3653.727907
3643.334346
3619.328573
3617.585137
3631.84555
3629.297451
3612.712456
3611.86309
3626.928166
3639.355736
3625.967041
3622.994259
3639.825122
3645.234244
3616.646363
3586.739729
3593.512308
3607.549203
3602.676523
3584.146927
3602.408302
3638.238148
3632.627861
3612.287773
3621.630802
3649.190503
3657.840628
3652.655024
3647.759992
3654.264349
3658.019442
3647.22355
3645.770686
3657.393593
3654.621977
3631.823198
3620.401456
3619.753256
3614.657058
3595.188689
3579.855392
3574.289808
3579.31895
3577.307293
3575.429747
3582.761119
3595.971
3569.037148
3539.108162
3542.237406
3573.105165
3582.895229
3564.83502
3562.085755
3585.756252
3620.06618
3681.578181
3725.186434
3821.678915
4005.589069
4217.371847
4307.985819
4291.490232
4050.96311
3732.227234
3497.9586
3453.657443
3567.025491
3641.680317
3668.390652
3683.992169
3677.756033
3637.09821
3592.797052
3601.603639
3620.624974
3626.816407
3611.326648
3605.604602
3617.920413
3623.91068
3614.478244
3620.82614
3645.033079
3657.952387
3629.364506
3622.904852
3634.997146
3641.769724
3626.838759
3627.509311
3657.639463
3672.07869
3653.973777
3637.209968
3643.647271
3665.015538
3673.442146
3668.390652
3684.930943
3711.55187
3712.289478
3711.641277
3732.763676
3765.598388
3778.987083
3768.526467
3772.818002
3790.565287
3798.366046
3784.239743
3777.377758
3798.366046
3821.500101
3821.09777
3812.849976
3830.396096
3854.826552
3856.815858
3848.992747
3865.845962
3886.789547
3874.071404
3852.36786
3856.435878
3872.037395
3859.967453
3825.746933
3804.803348
3813.900508
3815.196909
3788.397168
3762.335034
3756.791801
3740.430324
3706.67919
3683.61219
3687.724911
3682.673416
3657.125373
3630.906776
3636.427657
3649.235207
3634.214834
3607.839776
3609.158529
3629.856244
3628.381029
3611.885442
3624.178901
3642.037945
3641.657965
3629.565672
3642.48498
3663.808544
3658.041794
3644.78721
3648.184675
3665.484925
3656.723041
3631.46557
3625.251785
3640.428619
3655.448992
3643.356698
3625.587061
3633.879558
3651.537436
3650.933939
3628.828064
3632.560805
3647.424715
3636.941747
3605.06816
3597.177994
3623.485997
3625.810579
3596.641552
3592.841755
3622.658983
3637.74641
3627.24109
3631.97966
3651.626843
3643.356698
3614.031209
3603.481186
3619.954422
3628.716305
3606.118692
3593.333494
3612.354828
3625.095323
3617.003991
3605.157567
3616.065218
3631.756143
3631.420866
3616.691067
3608.219756
3610.499634
3612.019552
3588.326703
3581.509421
3599.681389
3606.453968
3587.544392
3589.265476
3613.226546
3615.57348
3590.628933
3572.903999
3587.030302
3616.802826
3643.848436
3646.888274
3639.713364
3640.652137
3631.84555
3621.139064
3641.814428
3662.422736
3649.794
3616.60166
3611.214889
3616.020514
3605.761064
3591.791224
3593.691122
3602.654171
3586.180936
3553.457982
3534.458999
3541.276281
3569.931217
3577.799031
3573.574552
3585.420976
3594.987523
3579.207191
3555.067307
3567.897209
3612.176014
3690.205954
3740.363269
3836.811046
4039.273147
4260.130734
4356.019718
4343.033355
4139.453666
3828.339735
3576.524982
3482.915876
3591.075968
3680.147669
3697.805547
3684.796832
3656.611282
3629.16334
3602.005971
3587.745558
3600.597811
3623.351887
3614.545299
3593.512308
3604.352904
3616.109921
3608.085645
3598.720264
3610.231413
3644.764858
3657.639463
3648.229378
3632.918433
3651.604492
3665.663739
3654.39846
3641.032117
3642.373221
3646.955329
3632.963137
3631.957308
3656.074841
3677.867791
3674.895009
3677.33135
3708.936716
3729.790894
3720.850196
3702.3206
3723.353591
3757.730574
3762.178571
3750.332147
3758.758755
3778.361234
3773.17563
3754.109592
3758.982272
3794.678008
3812.358238
3803.059912
3802.076435
3828.697363
3847.428125
3838.867407
3837.660413
3857.732279
3878.675864
3877.670035
3872.149154
3880.575762
3883.101509
3862.448497
3839.560311
3841.706078
3838.219206
3808.111406
3772.840354
3764.480801
3753.036708
3730.662612
3709.339048
3698.99019
3701.314771
3687.166117
3655.180771
3642.060297
3649.905759
3651.135105
3628.00105
3620.44616
3638.551073
3637.858169
3617.383971
3608.040942
3636.271195
3663.383861
3655.270178
3640.56273
3646.932977
3654.934902
3641.814428
3622.413113
3632.091419
3661.305149
3663.808544
3645.480114
3656.655986
3685.042701
3684.372149
3646.374183
3612.533642
3618.210985
3627.218738
3614.880576
3603.548241
3616.199328
3630.973832
3623.933032
3612.310125
3616.534605
3633.186654
3624.268308
3607.146872
3611.48311
3620.513215
3617.674544
3607.102168
3618.233337
3638.573425
3632.739619
3614.433541
3620.692029
3648.743468
3656.879503
3643.580215
3635.82416
3634.706573
3625.83293
3609.382046
3605.604602
3625.430599
3636.561768
3619.082703
3610.790206
3624.402419
3642.127352
3624.536529
3597.982657
3610.521985
3640.160399
3635.31007
3614.344134
3611.840738
3628.224567
3626.145855
3605.872823
3618.121578
3659.047623
3668.055376
3643.311994
3633.656041
3649.682242
3667.85421
3657.952387
3650.911588
3669.508239
3672.950408
3653.772611
3628.26927
3630.303279
3622.949555
3595.702779
3576.50263
3589.421939
3607.191575
3603.123558
3596.820366
3604.263497
3607.862128
3589.287828
3564.58915
3576.659093
3597.870898
3595.658075
3577.419052
3594.249915
3686.830841
3771.722766
3818.66143
3960.840876
4203.17849
4377.410338
4411.206175
4236.102609
3924.765161
3682.896934
3533.743743
3568.456002
3678.247771
3760.636301
3774.248513
3717.340972
3662.936826
3639.333384
3630.795018
3624.022439
3639.065163
3665.261408
3669.463535
3646.865922
3651.470381
3684.77448
3688.976608
3652.386803
3635.086553
3653.772611
3679.2536
3680.147669
3667.47423
3685.735605
3706.67919
3705.628658
3694.11751
3708.824957
3723.130074
3716.938641
3708.08735
3722.727743
3746.241778
3756.054194
3757.305891
3771.566304
3795.750892
3800.958848
3791.213488
3799.751854
3838.353317
3861.777945
3852.211398
3847.718698
3854.245407
3866.762384
3865.533038
3866.896494
3888.711797
3906.548489
3897.540736
3886.878954
3902.927506
3930.688373
3929.950765
3921.032419
3927.737943
3956.28112
3968.149897
3953.33069
3955.275292
3961.734946
3944.993489
3920.965364
3910.79532
3911.488224
3899.351227
3862.113221
3829.122046
3826.730409
3832.474808
3798.991895
3757.574112
3741.547911
3740.542083
3739.178626
3735.691754
3735.535292
3734.99885
3724.135902
3714.547004
3715.016391
3737.748115
3727.801589
3703.617001
3706.187452
3728.20392
3736.742286
3725.365248
3720.224347
3733.925966
3749.929816
3736.9211
3720.067885
3726.41578
3733.121304
3726.862815
3726.639298
3742.151408
3749.438077
3730.774371
3702.208841
3714.949335
3748.029917
3741.704374
3711.261298
3701.158309
3722.012487
3728.181568
3715.351667
3715.530481
3733.054248
3745.235949
3729.433266
3718.927946
3732.338993
3735.579996
3711.03778
3704.265202
3721.386638
3743.045478
3736.563472
3721.990135
3724.381772
3736.183493
3745.437115
3740.810304
3739.089219
3752.343804
3732.718972
3712.177719
3724.113551
3748.029917
3748.409897
3735.289423
3741.994946
3772.572133
3775.947246
3755.651862
3746.39824
3760.815115
3772.259208
3745.258301
3722.370115
3721.274879
3722.370115
3704.712236
3679.410062
3691.703521
3706.366266
3690.652989
3663.719137
3653.929073
3671.005806
3676.772556
3665.529628
3667.228361
3683.053396
3674.917361
3658.220608
3664.479096
3682.651065
3679.9018
3715.843405
3792.331075
3896.937239
4061.960168
4277.676854
4398.19746
4407.741655
4227.094856
3896.847832
3625.31884
3515.035333
3601.581288
3700.823033
3737.457542
3770.716938
3777.444813
3730.304984
3670.849344
3657.393593
3680.41589
3686.897896
3681.377015
3682.762823
3705.114568
3715.441074
3704.24285
3691.524707
3702.812338
3706.902707
3700.755978
3699.057245
3722.303059
3738.083391
3719.352629
3701.068902
3718.033876
3742.151408
3735.311775
3718.950298
3722.05719
3746.353536
3746.755868
3737.81517
3745.817095
3778.696511
3784.84324
3776.729557
3783.233915
3806.144453
3817.38738
3808.6702
3810.100712
3836.699287
3847.1152
3837.392192
3838.26391
3840.946119
3847.070497
3840.677898
3834.732334
3853.083116
3881.916867
3888.823556
3874.540791
3882.654474
3902.659285
3892.377483
3876.060709
3896.736073
3939.226739
3926.530948
3887.21423
3857.955796
3859.565122
3854.044241
3815.018095
3780.507002
3767.520638
3762.558551
3738.84335
3713.898803
3712.915327
3707.237984
3678.426585
3651.023346
3648.162323
3652.543265
3624.156549
3597.781491
3608.778549
3647.290605
3640.227454
3607.213927
3595.434558
3624.983564
3657.930035
3649.548131
3637.008803
3649.682242
3647.558826
3630.638555
3627.889291
3648.743468
3657.371242
3645.055431
3626.59289
3645.547169
3663.696785
3653.437335
3631.420866
3631.867901
3649.27991
3648.072916
3623.150721
3621.85432
3654.420811
3669.463535
3642.976718
3628.112808
3631.107942
3614.992334
3582.157622
3579.564819
3613.204195
3637.455837
3642.909663
3639.243977
3647.245901
3655.717213
3629.230395
3610.007895
3616.22168
3645.189541
3650.621015
3644.898968
3656.924207
3675.386748
3669.642349
3652.185637
3641.635614
3664.635559
3667.295416
3647.894102
3631.286756
3628.939823
3616.713419
3579.073081
3561.906941
3582.559953
3604.934049
3585.0857
3566.600807
3569.439479
3574.401566
3571.428784
3572.054633
3587.052654
3598.586154
3577.888438
3548.361784
3546.171313
3566.75727
3627.017573
3697.224402
3768.079432
3906.570841
4134.111599
4293.434834
4327.275375
4218.802359
3901.251125
3593.624067
3424.756637
3487.296818
3615.484073
3659.13703
3671.050509
3678.091309
3649.168152
3605.872823
3580.503593
3596.283924
3619.105055
3606.141043
3590.673636
3606.498671
3637.947576
3636.33825
3609.851433
3600.351942
3608.644439
3602.497709
3588.103186
3589.82427
3615.864052
3633.611337
3627.486959
3621.362581
3639.53455
3656.343061
3643.37905
3637.992279
3646.865922
3659.606416
3664.367338
3668.815335
3683.656893
3704.488719
3704.578126
3694.899821
3710.724856
3740.452676
3755.897731
3756.344766
3769.46524
3781.982217
3784.977351
3765.598388
3768.548819
3788.93361
3803.28343
3805.71977
3806.36797
3823.467055
3838.755648
3834.307651
3827.132741
3849.104506
3866.181238
3857.709927
3839.582663
3849.998575
3872.551486
3850.222093
3805.183328
3781.37872
3781.624589
3773.533258
3741.637318
3721.02901
3712.44594
3701.895917
3659.584064
3634.706573
3641.814428
3648.274082
3637.701707
3629.006878
3630.795018
3626.883462
3592.618238
3571.786412
3581.129441
3598.094415
3582.850526
3576.122651
3598.40734
3621.899023
3622.256651
3611.125482
3613.517119
3630.862073
3622.435465
3606.141043
3607.258631
3621.586099
3622.055485
3600.307238
3597.289753
3620.647326
3629.096285
3612.712456
3599.323761
3607.325686
3611.125482
3601.380122
3591.768872
3595.993351
3596.507442
3582.962284
3573.753366
3591.254782
3610.231413
3594.518136
3580.995331
3588.282
3598.675561
3595.725131
3573.909828
3568.634816
3584.370444
3584.169279
3576.860258
3593.691122
3630.19152
3631.59968
3583.364616
3556.989557
3562.353976
3584.973941
3602.475357
3610.857262
3621.09436
3626.21291
3626.257613
3617.316916
3629.431561
3637.992279
3619.17211
3600.061369
3592.729997
3594.093453
3577.419052
3552.586264
3552.340395
3564.857371
3567.450174
3545.031374
3535.174255
3550.775772
3580.972979
3569.819459
3542.170351
3534.548406
3538.214092
3517.538728
3504.217089
3518.544557
3548.272377
3591.388892
3663.361509
3726.505187
3853.239578
4055.478162
4237.443714
4329.465846
4279.5544
3976.464746
3647.268253
3445.67787
3471.918818
3607.660962
3666.982492
3684.953294
3672.793945
3631.018535
3569.037148
3539.666955
3558.956511
3582.023511
3573.842773
3563.359805
3588.170241
3620.490863
3600.955439
3564.902075
3562.443383
3586.583267
3586.091529
3575.787374
3586.605619
3606.99041
3608.979715
3583.476375
3582.448194
3611.147834
3627.62107
3614.947631
3611.393703
3636.71823
3646.575349
3622.793093
3617.451026
3651.58214
3685.936771
3685.422681
3682.025216
3705.405141
3724.761751
3713.965859
3703.415835
3731.690792
3771.812173
3768.213542
3746.957034
3749.929816
3773.30974
3781.110499
3771.76747
3786.363159
3818.504968
3827.646831
3805.33979
3802.545822
3834.9335
3856.569988
3841.415506
3827.75859
3845.528227
3853.910131
3834.620575
3814.682819
3809.966601
3807.597316
3764.234932
3721.654859
3699.928963
3707.081521
3686.495565
3641.97089
3645.323651
3661.05928
3649.883407
3625.385895
3622.658983
3625.765875
3611.974849
3577.642569
3567.91956
3592.551183
3605.157567
3579.721281
3566.37729
3580.458889
3600.150776
3600.776625
3594.719302
3618.993297
3646.485942
3627.777532
3596.708607
3595.903944
3608.53268
3600.508404
3580.950627
3585.018645
3612.75716
3622.457817
3614.947631
3609.493805
3616.534605
3620.379105
3607.303334
3606.766892
3617.898061
3611.259593
3585.264514
3578.603694
3597.89325
3609.069122
3598.40734
3580.123613
3588.013779
3601.849509
3603.257668
3597.334456
3587.298523
3594.249915
3583.811651
3569.484183
3574.44627
3602.654171
3612.198366
3596.015703
3596.48509
3617.942765
3624.357715
3610.901965
3600.396645
3638.439314
3657.72887
3629.990355
3608.130349
3629.073933
3648.296433
3651.023346
3637.344079
3652.051527
3651.20216
3616.668715
3572.278151
3568.925389
3598.653209
3598.988485
3579.721281
3565.974959
3568.053671
3563.203342
3546.931272
3543.869083
3561.683424
3562.286921
3540.046935
3533.252005
3560.275264
3579.542468
3572.345206
3561.63872
3581.867049
3665.172001
3719.531443
3794.342732
3986.366568
4238.606005
4370.995387
4356.913788
4123.069837
3825.188139
3570.154735
3465.056832
3564.96913
3681.30996
3728.427437
3705.360437
3643.960195
3618.836834
3600.664866
3574.736842
3559.828229
3582.917581
3603.190613
3607.325686
3612.019552
3627.531663
3635.779457
3626.481131
3610.678448
3626.101151
3659.181733
3666.736623
3650.933939
3654.599625
3672.257504
3673.777422
3653.236169
3645.882445
3659.27114
3672.145745
3672.905704
3682.941637
3693.648123
3703.661704
3703.169966
3709.316696
3739.580958
3775.589618
3774.002644
3764.346691
3788.911258
3810.681857
3808.513738
3796.019113
3814.392247
3843.985956
3845.215302
3839.180331
3854.088945
3878.11707
3886.543678
3879.435823
3885.470794
3918.327858
3925.502768
3911.242355
3916.182091
3930.353097
3942.333632
3930.084876
3911.979963
3914.483358
3922.529986
3902.59223
3869.891628
3861.017985
3852.770192
3819.935479
3774.539086
3763.162048
3768.526467
3754.400164
3725.566414
3717.296269
3728.405086
3713.630583
3684.148632
3667.764803
3672.07869
3670.469364
3643.133181
3644.340175
3682.919286
3699.303114
3685.221515
3678.87362
3689.915382
3700.308943
3695.257449
3672.369262
3677.59957
3698.856079
3687.121414
3674.693844
3678.113661
3690.92121
3684.595666
3661.886294
3668.88239
3696.129167
3708.020295
3700.331295
3702.789986
3710.166062
3693.268143
3670.983454
3670.514067
3691.770576
3697.805547
3685.825012
3684.26039
3711.708333
3715.686943
3682.293437
3656.767745
3663.003881
3682.382844
3686.18264
3669.977626
3669.731756
3673.643312
3667.116602
3662.713309
3663.719137
3678.113661
3672.391614
3648.832875
3644.630747
3665.864905
3684.103928
3680.460594
3669.463535
3679.678283
3681.242905
3668.681224
3668.681224
3685.646198
3691.502356
3681.712291
3666.647216
3667.004844
3673.308036
3659.204085
3652.230341
3674.783251
3695.369207
3680.147669
3668.994149
3695.100986
3728.561548
3739.022164
3716.29044
3697.380864
3694.676303
3676.549038
3652.47621
3644.876617
3665.216704
3671.028158
3646.664756
3625.005916
3640.965061
3655.493695
3643.356698
3621.563747
3615.282907
3629.230395
3620.803788
3602.654171
3611.617221
3625.31884
3623.955384
3632.918433
3715.888109
3800.020075
3879.771099
4033.305232
4250.497133
4361.764116
4344.463866
4090.771567
3778.5624
3559.470601
3509.626211
3579.877744
3661.260445
3715.619888
3744.453638
3706.209803
3645.971852
3624.201253
3630.169169
3632.069067
3626.816407
3635.801808
3652.856189
3656.052489
3641.613262
3647.201198
3659.338195
3656.164248
3649.1458
3660.768707
3693.22344
3692.239963
3666.289588
3656.365413
3668.949445
3684.796832
3679.432414
3675.632617
3691.368245
3711.41776
3703.818167
3695.168042
3705.069864
3728.181568
3718.145635
3709.741379
3736.40701
3770.605179
3784.552668
3767.565342
3769.889923
3791.302895
3785.983179
3776.707205
3773.913237
3795.907354
3818.817892
3813.967563
3815.576889
3835.380535
3848.38925
3840.968471
3827.780941
3850.579721
3879.681692
3875.054881
3865.30952
3862.515552
3881.022797
3874.205515
3853.708965
3862.090869
3879.726396
3870.964512
3831.804255
3797.047293
3780.082319
3752.992005
3717.251565
3700.934792
3703.840518
3690.071844
3655.538399
3645.658928
3670.178791
3676.169059
3638.12639
3596.641552
3590.159546
3603.861166
3601.804805
3589.243125
3605.604602
3631.867901
3624.558881
3601.000142
3606.252802
3627.464608
3630.347983
3620.96025
3625.117674
3648.430544
3635.935919
3604.531718
3589.377235
3611.393703
3635.175959
3621.34023
3618.501558
3634.326593
3648.564654
3626.548186
3613.226546
3626.034096
3647.715288
3623.39659
3590.85245
3601.916564
3618.568613
3614.187671
3605.291677
3618.076875
3632.180826
3614.232375
3586.538564
3586.49386
3604.397607
3604.621125
3589.176069
3595.859241
3624.603584
3631.040887
3599.793148
3581.397662
3581.084738
3591.679465
3581.956456
3569.931217
3596.552145
3621.519044
3612.779512
3587.432633
3583.141098
3585.488032
3590.159546
3591.500651
3603.79411
3613.897099
3608.935011
3594.04875
3598.049712
3618.859186
3622.256651
3597.647381
3577.329645
3573.105165
3568.992444
3560.543485
3552.675671
3551.289863
3542.058592
3522.612574
3504.328847
3525.786522
3537.02945
3527.976993
3512.286068
3520.600917
3540.270453
3536.425952
3516.622307
3511.906089
3522.724333
3543.913787
3603.548241
3673.889181
3757.864685
3906.615544
4112.810387
4228.145388
4237.868397
4057.646281
3744.207769
3496.304571
3406.048227
3499.299705
3601.290715
3637.23232
3649.749297
3625.072971
3566.332587
3523.238423
3525.853577
3550.552255
3556.676633
3546.12661
3552.765078
3579.31895
3579.386005
3555.760211
3551.446325
3560.431726
3565.527924
3547.758287
3549.524075
3575.899133
3582.224677
3564.142116
3563.069232
3596.462738
3615.752294
3604.352904
3589.243125
3591.701817
3606.141043
3606.789244
3594.428729
3611.013724
3649.615186
3650.419849
3619.060352
3626.570538
3670.42466
3697.358513
3696.844422
3705.78512
3727.287498
3727.645126
3716.849234
3710.255469
3721.453693
3743.514865
3742.844313
3744.6101
3766.403051
3780.574057
3777.824793
3777.780089
3796.600258
3819.82372
3810.234822
3782.473955
3771.163973
3787.346636
3784.150336
3759.85399
3748.029917
3759.675176
3752.097935
3709.070827
3674.291512
3676.169059
3668.725928
3630.795018
3604.352904
3608.935011
3619.328573
3598.228526
3565.527924
3560.834057
3571.473488
3546.663051
3516.868176
3531.173293
3553.905017
3542.326813
3518.253984
3522.366705
3544.673746
3544.673746
3527.485255
3540.046935
3567.427822
3570.579418
3546.707755
3546.528941
3577.106127
3586.180936
3556.721336
3528.714601
3540.158694
3567.092546
3558.643586
3541.723316
3550.731069
3561.728127
3562.130459
3563.605674
3563.069232
3562.801011
3553.323871
3551.37927
3573.619255
3582.179973
3555.849618
3528.044048
3530.838016
3552.295691
3552.228636
3535.710697
3529.698077
3553.078002
3568.456002
3556.475467
3531.888548
3537.252967
3543.131476
3534.481351
3527.820531
3549.322909
3573.17222
3558.867104
3538.996403
3553.010947
3581.084738
3579.609523
3551.714546
3543.712621
3545.120781
3541.946833
3514.007153
3519.371571
3545.210188
3551.222807
3535.017793
3531.597976
3541.320985
3546.551293
3523.484292
3510.363818
3529.720429
3542.975014
3529.698077
3522.210243
3553.078002
3568.388947
3560.342319
3536.64947
3541.499798
3559.001214
3568.232485
3569.998273
3582.872877
3603.414131
3605.71636
3577.933142
3558.375366
3562.041052
3551.714546
3529.742781
3528.155807
3537.297671
3536.202435
3511.950792
3500.886679
3521.830263
3529.273394
3513.180138
3492.437719
3509.581507
3525.741819
3515.728237
3502.428949
3499.657333
3512.800159
3558.218903
3634.997146
3719.48674
3859.140439
4069.269189
4227.765408
4293.25602
4214.354362
3908.962477
3627.308145
3453.277463
3478.289065
3595.143985
3637.120561
3630.616204
3607.929183
3565.907903
3525.674763
3524.177197
3549.255854
3567.114898
3557.391889
3535.733048
3538.817589
3554.217941
3558.040089
3558.353014
3569.685348
3580.525944
3569.171258
3550.887531
3559.560008
3578.268418
3581.442366
3570.847639
3583.744595
3600.150776
3595.658075
3561.795182
3549.702889
3582.895229
3606.364561
3598.183822
3592.327665
3613.78534
3635.779457
3642.149704
3644.943672
3666.647216
3689.088367
3689.714216
3683.545134
3698.029065
3711.685981
3717.83271
3714.301135
3724.270013
3739.759772
3744.632452
3730.461446
3736.742286
3766.850086
3791.50406
3791.437005
3786.094938
3792.77811
3803.216374
3805.697418
3804.199851
3812.13472
3825.031677
3809.296049
3784.351502
3776.841316
3787.927781
3768.392356
3720.604327
3689.624809
3686.830841
3672.816297
3636.941747
3622.055485
3626.615241
3622.994259
3601.804805
3596.10511
3608.845605
3601.804805
3575.541505
3552.02747
3555.067307
3552.988595
3545.411354
3552.742726
3572.00993
3585.175107
3571.76406
3557.973034
3569.886514
3590.830098
3589.578401
3573.798069
3569.551238
3579.251895
3579.31895
3552.899188
3550.932235
3576.592037
3590.606581
3578.201363
3571.339377
3584.661017
3585.756252
3570.490011
3571.272322
3594.138157
3601.111901
3583.342264
3557.213075
3556.855447
3578.737805
3573.68631
3548.361784
3541.499798
3561.616368
3573.239276
3549.702889
3544.785505
3572.859296
3577.77668
3556.542522
3546.707755
3560.655243
3565.527924
3551.736897
3541.924482
3560.722299
3576.547334
3569.662996
3563.56097
3573.395738
3580.503593
3566.153773
3558.531828
3569.774755
3585.689197
3579.967151
3555.961377
3546.305424
3562.041052
3572.568723
3551.155752
3541.544502
3548.495894
3549.546426
3540.784543
3539.421086
3553.502685
3548.361784
3533.229653
3529.407505
3545.098429
3546.618348
3520.913842
3509.156824
3532.134418
3560.454078
3562.108107
3544.293767
3542.28211
3552.899188
3542.684441
3528.871063
3535.24131
3543.466752
3535.286014
3529.251043
3548.585301
3569.730052
3553.010947
3524.579528
3526.52413
3561.661072
3571.160563
3556.430764
3560.789354
3592.461776
3614.612355
3611.058427
3606.945706
3619.574442
3647.380012
3645.547169
3620.848491
3609.113825
3612.265421
3601.22366
3579.810688
3567.539581
3578.93897
3579.877744
3552.832133
3542.080944
3553.614444
3563.784488
3546.350127
3534.615461
3555.782563
3567.539581
3546.26072
3532.179121
3548.741764
3567.986616
3552.92154
3525.786522
3556.967206
3666.088422
3745.280653
3836.252253
4035.138075
4270.032557
4389.569687
4364.423974
4122.376933
3833.368878
3600.754273
3509.201528
3602.520061
3704.555774
3740.139751
3713.98821
3662.98153
3637.075858
3619.574442
3600.128424
3593.646418
3616.512253
3635.175959
3616.288735
3598.273229
3617.048695
3644.206064
3636.628823
3617.003991
3622.971907
3641.792076
3648.050564
3644.139009
3646.776515
3656.812448
3655.650157
3649.861056
3657.617111
3688.507222
3697.291457
3674.939713
3660.522838
3676.0573
3696.196222
3704.466367
3710.166062
3739.268033
3755.763621
3750.645071
3740.497379
3758.714051
3786.139642
3782.473955
3766.201885
3778.338883
3805.406845
3814.526357
3805.183328
3820.606031
3853.865427
3860.727413
3848.00927
3858.849866
3886.990713
3897.116053
3891.930448
3917.567899
3962.070222
3955.856437
3912.628163
3892.46689
3898.971248
3900.647628
3875.256047
3852.926654
3841.974299
3826.417485
3803.909278
3787.257229
3793.605124
3796.443796
3774.963769
3742.106705
3729.075638
3731.981365
3725.834635
3703.035856
3698.073768
3710.434283
3700.867736
3672.257504
3662.646253
3692.686998
3711.775388
3683.768652
3650.464553
3655.650157
3673.330387
3687.300228
3673.129222
3674.291512
3672.436317
3655.985434
3646.418887
3651.738602
3661.461611
3653.951425
3637.768762
3648.341137
3683.053396
3693.715178
3676.191411
3663.428564
3671.408137
3673.218629
3661.483963
3663.137992
3686.04853
3690.474175
3662.892123
3636.025326
3647.312957
3671.095213
3676.504335
3665.149649
3665.753146
3656.097192
3633.946614
3616.780474
3624.469474
3638.551073
3636.897044
3628.26927
3628.224567
3636.226491
3630.95148
3617.540433
3631.800846
3659.427602
3661.975701
3639.087515
3616.512253
3624.514177
3641.277986
3637.6123
3626.548186
3647.044736
3664.546152
3651.96212
3635.287718
3662.847419
3712.267126
3696.129167
3664.680262
3674.224457
3687.188469
3674.626788
3650.822181
3647.35766
3659.964044
3650.151628
3612.846567
3593.199383
3602.564764
3612.868919
3593.646418
3575.47445
3579.69893
3591.768872
3575.161526
3561.906941
3576.815555
3588.550221
3567.494877
3545.210188
3547.691232
3583.789299
3590.964209
3601.246011
3680.326483
3749.303967
3817.342677
3952.794248
4172.266027
4311.740912
4320.189872
4093.63259
3786.989008
3570.914694
3496.013999
3547.423011
3612.488939
3671.497544
3709.62962
3684.12628
3627.509311
3605.783416
3605.537546
3585.823308
3567.696043
3585.242162
3614.724113
3613.852395
3593.735825
3596.798014
3615.886404
3618.836834
3601.290715
3605.738712
3621.206119
3619.507387
3601.670695
3597.267401
3624.357715
3649.995166
3628.716305
3618.769779
3640.518026
3655.113716
3642.574387
3624.134198
3636.315898
3651.693899
3656.767745
3659.762878
3677.688977
3713.675286
3716.759827
3703.751111
3721.677211
3747.582882
3753.215522
3742.062001
3740.452676
3765.508981
3781.155203
3777.981255
3779.322359
3797.606086
3803.238726
3790.85586
3801.383531
3828.227976
3841.303747
3822.304764
3811.240651
3835.425238
3860.459192
3857.642872
3837.325136
3826.86452
3805.85388
3771.76747
3752.209693
3744.364231
3738.753943
3709.182585
3670.961102
3654.823143
3658.444125
3638.573425
3605.939878
3586.583267
3593.869936
3593.132328
3568.277188
3555.290825
3560.275264
3565.259703
3556.207246
3552.206284
3562.890418
3573.663959
3563.538619
3552.340395
3560.23056
3576.435575
3567.628988
3559.336491
3557.704813
3578.514287
3582.582305
3569.595941
3564.231523
3580.369482
3589.600753
3572.121688
3562.555142
3587.544392
3594.518136
3572.166392
3566.354938
3585.756252
3590.628933
3560.811706
3531.77679
3539.532845
3552.340395
3551.960415
3545.478409
3552.787429
3558.509476
3549.568778
3542.013889
3542.438572
3559.381194
3550.932235
3519.930365
3523.998383
3553.525037
3559.560008
3530.88272
3513.269545
3524.914804
3537.632947
3520.75738
3511.704923
3536.64947
3549.21115
3529.385153
3510.38617
3523.908976
3551.267511
3555.335528
3532.000307
3517.069342
3527.708772
3524.043086
3520.109179
3546.506589
3579.721281
3581.799994
3574.58038
3581.576476
3596.216869
3586.806784
3549.233502
3532.894377
3543.891435
3542.438572
3520.712676
3514.834167
3518.164577
3516.197624
3496.349275
3480.412481
3513.247193
3539.711659
3509.089769
3473.371681
3462.46403
3480.703054
3494.024693
3494.292914
3493.935286
3499.590278
3483.161745
3502.898336
3583.16345
3663.428564
3786.407862
3981.762109
4165.962835
4254.811019
4193.790757
3887.102471
3589.712511
3405.601192
3404.841233
3501.266658
3559.090621
3609.717323
3629.856244
3573.909828
3508.821548
3505.625249
3523.819569
3525.674763
3513.180138
3522.992554
3555.894322
3548.026508
3511.973144
3485.419272
3499.433815
3515.705885
3510.050894
3509.000362
3540.806894
3549.21115
3525.585356
3513.135435
3531.217996
3551.334566
3550.954586
3544.405525
3551.938063
3574.982712
3578.089604
3570.042976
3585.264514
3611.281945
3622.904852
3607.750369
3612.511291
3637.947576
3653.6385
3657.773573
3666.624864
3688.99896
3695.726835
3686.003826
3685.512088
3699.906611
3710.456635
3699.772501
3700.174832
3723.554757
3754.198999
3753.95313
3744.163065
3762.335034
3784.284447
3781.736348
3771.320435
3783.368025
3801.025903
3805.384494
3791.548764
3777.042482
3778.830621
3755.897731
3717.475083
3687.411986
3681.242905
3663.316806
3633.700744
3613.315953
3605.090511
3597.155642
3575.765023
3560.901113
3567.40547
3578.491936
3560.789354
3539.309328
3537.297671
3541.566854
3530.480388
3511.950792
3518.768074
3542.840903
3543.511455
3533.073191
3532.134418
3553.748554
3566.310235
3547.646528
3547.66888
3560.543485
3558.800049
3538.415258
3526.412371
3541.90213
3559.71647
3555.693156
3545.768982
3532.201473
3543.153828
3533.810798
3528.714601
3546.283072
3552.072174
3528.491083
3502.786577
3512.911917
3540.941005
3543.82438
3526.814702
3527.373496
3532.42499
3522.456112
3500.819624
3512.621345
3542.349165
3552.474505
3525.585356
3508.530975
3525.965336
3539.309328
3530.033354
3515.750589
3526.345316
3544.114953
3538.504665
3523.886624
3536.738877
3560.834057
3549.434668
3526.01004
3527.731124
3553.94972
3552.295691
3528.155807
3521.629098
3548.786467
3568.947741
3562.331624
3552.496857
3583.811651
3610.946668
3591.053616
3562.644549
3562.510438
3562.443383
3533.073191
3498.048007
3500.082016
3520.3774
3509.380342
3486.760376
3481.060681
3490.984856
3493.778824
3479.294894
3481.306551
3488.928496
3487.45328
3469.370719
3473.528144
3490.157841
3502.272487
3487.900315
3471.807059
3504.23944
3596.194517
3654.331404
3734.283594
3931.247167
4170.790812
4283.957694
4268.557342
4041.329508
3730.349687
3480.345426
3393.173622
3499.210298
3602.676523
3641.07682
3611.9972
3569.84181
3541.723316
3528.58049
3523.774865
3550.507551
3578.335473
3554.46381
3509.045066
3501.557231
3527.909938
3539.689307
3518.768074
3504.775882
3533.520226
3562.801011
3558.621235
3550.798124
3559.269435
3582.13527
3575.116822
3560.319967
3571.339377
3587.119709
3585.59979
3587.209116
3594.473433
3615.595831
3623.351887
3611.125482
3616.847529
3649.861056
3664.076765
3667.407175
3672.995111
3691.748225
3696.55385
3690.094196
3686.04853
3705.427492
3724.471179
3722.05719
3728.986231
3761.887999
3779.83645
3771.566304
3751.986176
3766.805383
3798.611915
3809.452511
3802.925802
3812.179424
3839.381497
3846.645814
3836.453418
3821.678915
3836.766343
3849.462134
3825.07638
3783.323322
3761.195095
3748.544007
3719.084408
3692.19526
3685.959123
3675.654969
3654.085535
3637.969928
3648.207027
3646.150666
3609.538509
3561.392851
3565.907903
3591.299485
3587.119709
3563.404508
3561.281092
3585.264514
3587.432633
3567.606636
3568.478354
3594.942819
3605.403436
3599.279058
3606.09634
3629.498616
3632.739619
3609.382046
3601.201308
3629.833893
3641.121524
3624.760047
3609.516157
3623.709515
3645.390707
3636.047678
3610.030247
3618.456855
3637.791114
3632.314936
3617.674544
3619.708552
3642.373221
3652.140934
3629.990355
3622.390762
3631.376163
3629.878596
3616.758122
3614.366485
3635.265366
3639.825122
3622.569576
3609.404398
3623.284831
3631.84555
3618.434503
3606.878651
3637.411134
3667.228361
3668.725928
3635.220663
3628.939823
3647.625881
3646.70946
3618.881538
3609.113825
3621.787265
3624.715343
3621.139064
3637.075858
3662.825067
3663.696785
3632.806675
3619.842663
3639.378087
3660.254617
3663.473268
3650.956291
3670.581123
3696.106815
3668.278893
3650.621015
3653.012652
3666.06607
3652.587968
3612.690105
3600.553107
3625.944689
3627.554015
3610.946668
3602.296543
3613.517119
3611.259593
3597.557974
3594.384026
3599.927258
3597.177994
3568.701871
3555.73786
3578.648398
3600.396645
3591.701817
3588.438462
3630.43739
3720.716086
3763.027938
3829.658488
4014.797987
4247.367888
4346.095544
4311.517395
4042.782371
3748.476952
3533.609633
3470.421251
3571.965226
3671.251675
3709.048475
3681.622884
3643.446105
3640.160399
3637.209968
3608.219756
3585.957418
3598.005008
3618.210985
3616.08757
3609.270288
3629.744486
3653.616149
3645.144838
3626.056448
3634.885387
3646.932977
3638.707535
3621.720209
3620.44616
3643.133181
3649.548131
3644.496637
3652.878541
3683.053396
3695.503318
3669.39648
3646.374183
3659.673471
3685.087405
3691.323542
3688.216649
3718.570318
3747.269958
3745.682984
3746.107667
3776.12606
3795.147395
3784.552668
3762.111516
3766.403051
3796.421444
3802.746988
3792.621647
3806.166805
3842.577796
3850.512666
3831.245462
3827.669183
3845.707041
3845.394116
3828.362087
3838.330965
3874.473736
3888.801204
3877.960608
3866.605922
3874.987826
3871.232733
3843.471866
3795.370912
3784.016226
3794.655656
3766.961845
3723.554757
3707.461501
3701.873565
3672.771594
3640.138047
3638.349907
3657.371242
3647.491771
3605.023456
3582.917581
3597.781491
3600.441349
3578.000197
3569.819459
3599.547279
3616.668715
3595.434558
3583.565782
3592.551183
3612.466587
3609.784378
3600.351942
3619.55209
3645.994204
3635.332422
3619.149759
3622.36841
3642.976718
3611.326648
3581.330607
3593.244087
3630.839721
3640.070992
3618.322744
3601.625991
3613.539471
3628.090456
3606.051636
3598.899078
3619.015648
3626.727
3604.263497
3598.899078
3611.572517
3617.853358
3600.217831
3580.481241
3596.149814
3613.472416
3596.48509
3568.187781
3573.127517
3592.26061
3594.249915
3588.885497
3591.411244
3601.625991
3576.636741
3559.157677
3578.626046
3607.951535
3617.786302
3587.656151
3577.709624
3609.270288
3631.264404
3622.927204
3607.325686
3626.34702
3642.127352
3636.047678
3620.736733
3620.848491
3615.1935
3583.006988
3536.26949
3531.597976
3540.35986
3542.304461
3527.127627
3533.609633
3568.903037
3565.460869
3521.27147
3497.153937
3515.795292
3528.714601
3518.477502
3508.530975
3536.381249
3558.643586
3534.682516
3515.057685
3553.457982
3654.756088
3702.499414
3766.738327
3944.010013
4179.463289
4255.97331
4187.04053
3939.517312
3667.116602
3430.076352
3362.90936
3461.368795
3570.780584
3612.690105
3615.439369
3597.289753
3574.468622
3560.632892
3540.091639
3534.593109
3546.528941
3558.062441
3537.208264
3530.167464
3568.098374
3592.528831
3584.772776
3570.624122
3571.607598
3570.378252
3562.242217
3545.478409
3547.043031
3571.898171
3579.386005
3575.787374
3588.192593
3604.889346
3591.254782
3569.215962
3571.294674
3597.490918
3609.449102
3597.647381
3611.684276
3646.173018
3671.117565
3663.987358
3660.388727
3668.792983
3671.028158
3653.437335
3657.170076
3683.791004
3708.46733
3712.714161
3708.154405
3719.084408
3736.451714
3736.854045
3723.890033
3730.819074
3763.743194
3778.651807
3766.738327
3762.938531
3786.854897
3797.1367
3773.354444
3754.891903
3764.97254
3795.527374
3782.116328
3725.298193
3685.66855
3665.373166
3633.588986
3597.647381
3593.557011
3594.987523
3573.060462
3541.455095
3540.829246
3557.525999
3555.134363
3531.039182
3508.061589
3508.799196
3505.222917
3488.101481
3482.491193
3500.77492
3508.97801
3494.762301
3490.247248
3512.82251
3526.792351
3514.118912
3504.328847
3505.357028
3518.96924
3522.634926
3515.683534
3521.249118
3531.061534
3514.342429
3487.855612
3498.405635
3528.267566
3534.190778
3514.700057
3516.935231
3530.36863
3519.86331
3496.081054
3504.887641
3536.180083
3548.764115
3523.528996
3512.934269
3520.779731
3535.129551
3525.317135
3509.536804
3502.294839
3511.034371
3501.490176
3479.697225
3490.180193
3504.060627
3497.9586
3479.25019
3472.052928
3480.323074
3483.295856
3478.020844
3485.419272
3512.151958
3524.557176
3501.557231
3483.877001
3500.976086
3511.950792
3505.51349
3522.724333
3550.373441
3551.960415
3539.421086
3522.836092
3530.659202
3549.278206
3533.274357
3496.863365
3484.324036
3483.295856
3473.930475
3442.72744
3423.460236
3431.819788
3432.020954
3413.491358
3406.763483
3425.158969
3443.576806
3435.060791
3421.426227
3417.648782
3414.094855
3395.006465
3397.152233
3427.707067
3449.656481
3449.634129
3504.462958
3577.463755
3667.876562
3821.075418
4030.600671
4168.868562
4197.299981
3985.248981
3638.953404
3392.815994
3310.226299
3389.664398
3469.460126
3503.635943
3542.55033
3537.521188
3471.248266
3416.33003
3422.923794
3448.11421
3438.50296
3426.187149
3443.688565
3471.672949
3466.442641
3456.496114
3470.801231
3486.313341
3476.94796
3464.833315
3472.097632
3478.22201
3468.990739
3449.187094
3455.400879
3479.943094
3494.538783
3496.371626
3502.875984
3515.392961
3508.106292
3498.316228
3513.001324
3540.762191
3554.352052
3547.355956
3543.176179
3561.616368
3577.955494
3589.198421
3593.579363
3619.887366
3640.853303
3642.037945
3635.354773
3643.423753
3670.223495
3680.125318
3670.044681
3673.151573
3699.794853
3714.614059
3704.354609
3706.522728
3730.573205
3733.680097
3723.040667
3729.366211
3751.896769
3757.954092
3735.177664
3715.508129
3711.127187
3697.760844
3655.180771
3621.85432
3614.612355
3613.517119
3589.421939
3557.235427
3534.906034
3533.408467
3527.507606
3499.590278
3491.29778
3498.092711
3500.372589
3480.188963
3474.265751
3491.007208
3487.363873
3467.2026
3457.054908
3475.830373
3488.749682
3473.729309
3464.632149
3479.093728
3492.147147
3490.962504
3487.430929
3503.904164
3518.768074
3513.426007
3491.454243
3480.323074
3489.867269
3491.633057
3486.156879
3483.519373
3507.793368
3505.334676
3471.158859
3471.0471
3495.052873
3508.128644
3489.688455
3471.874114
3487.118004
3509.4921
3497.220993
3471.672949
3475.584504
3500.551403
3492.325961
3468.320187
3469.951864
3482.692359
3476.29976
3454.126829
3460.92176
3484.838126
3485.39692
3467.33671
3477.797327
3502.227783
3494.672894
3460.40767
3447.533065
3475.964484
3484.905182
3469.750699
3452.4728
3459.603007
3475.852725
3478.333769
3472.410556
3483.407615
3486.581562
3478.154955
3468.119021
3469.236609
3492.035388
3511.861385
3528.379324
3534.682516
3543.511455
3543.578511
3520.623269
3515.370609
3517.985763
3505.558193
3481.865344
3470.868286
3483.295856
3476.567981
3455.266768
3433.429114
3439.642899
3448.695355
3435.329012
3407.031704
3411.256184
3436.71482
3439.754658
3423.035553
3420.912137
3439.866416
3435.03844
3410.920907
3412.530233
3431.417457
3470.443603
3551.267511
3612.75716
3733.83656
3931.940071
4131.697611
4256.375641
4231.453446
3961.444373
3646.508294
3419.839253
3385.439919
3503.658295
3570.981749
3576.949665
3550.261682
3520.824435
3473.237571
3449.924701
3476.903257
3509.693266
3488.839089
3455.378527
3456.987853
3478.7361
3474.51162
3460.497077
3475.450394
3503.188908
3504.574717
3481.127737
3478.154955
3503.680647
3518.991592
3504.775882
3497.377455
3518.321039
3530.547444
3524.981859
3509.581507
3518.544557
3550.172275
3562.756307
3551.111049
3550.127572
3566.220828
3572.769889
3571.562895
3582.381139
3608.39857
3615.260555
3617.607488
3633.879558
3665.261408
3676.504335
3668.167134
3672.056338
3690.049492
3705.852175
3701.605344
3704.555774
3727.287498
3743.291347
3737.368135
3726.080504
3756.031842
3800.377703
3834.061782
3841.169636
3821.678915
3782.451604
3746.688813
3730.193225
3724.828806
3727.667478
3715.64224
3687.724911
3667.183658
3651.537436
3628.850416
3593.914639
3564.902075
3568.321892
3576.748499
3563.56097
3543.31029
3551.669842
3557.973034
3539.08581
3522.456112
3533.967261
3546.148961
3529.541615
3519.550385
3533.341412
3561.705775
3551.267511
3515.974106
3504.932345
3537.297671
3550.99929
3536.805932
3536.180083
3561.348148
3571.11586
3554.620272
3536.202435
3548.518246
3563.695081
3550.328738
3542.28211
3566.869028
3582.247029
3571.317026
3552.295691
3554.419107
3576.033244
3575.139174
3560.521133
3559.112973
3566.75727
3568.791278
3560.74465
3573.865124
3593.333494
3587.589096
3561.728127
3545.925444
3557.078964
3567.606636
3557.056613
3549.948758
3576.480279
3590.047787
3566.846677
3559.71647
3581.464718
3592.171203
3578.715453
3569.305369
3580.280075
3584.638665
3561.370499
3537.945871
3546.864217
3581.799994
3594.316971
3578.916619
3575.407395
3596.216869
3601.670695
3570.154735
3551.714546
3569.081851
3583.945761
3566.801973
3553.212113
3562.733956
3587.477337
3603.235317
3608.376218
3619.395628
3650.285739
3671.274027
3655.739564
3630.280927
3604.487014
3589.399587
3578.93897
3578.201363
3589.82427
3580.145965
3555.089659
3540.426915
3544.696098
3545.768982
3541.052764
3549.97111
3567.584284
3565.192648
3535.733048
3512.621345
3521.204415
3521.204415
3512.196661
3497.399807
3518.879833
3548.875874
3593.400549
3652.47621
3724.851158
3877.133593
4098.639381
4244.57392
4279.509697
4155.569274
3858.335776
3590.226601
3432.289175
3477.417347
3600.84368
3645.547169
3656.387765
3646.955329
3617.62984
3578.201363
3543.064421
3544.785505
3550.954586
3538.325851
3527.060572
3560.118802
3590.159546
3579.18484
3553.480334
3555.514342
3572.814592
3580.660055
3575.720319
3588.550221
3597.870898
3596.440386
3587.700854
3585.59979
3616.08757
3625.542358
3605.805767
3598.832023
3622.346058
3644.071954
3645.390707
3636.941747
3650.531608
3664.389689
3653.370279
3636.539416
3650.218684
3682.092271
3689.781271
3677.778384
3701.381827
3741.883188
3759.3399
3754.08724
3751.874417
3769.085261
3775.187287
3767.967673
3775.321397
3801.11531
3801.897621
3770.515772
3774.33792
3809.720732
3827.333907
3819.957831
3815.420427
3840.409677
3871.411547
3841.370802
3777.310702
3736.854045
3727.153388
3722.504225
3699.571335
3695.615076
3701.359475
3677.621922
3629.722134
3602.475357
3610.678448
3609.516157
3583.230505
3578.447232
3603.190613
3596.507442
3559.537656
3541.119819
3548.384136
3550.507551
3531.77679
3524.423066
3545.031374
3562.845714
3562.041052
3554.620272
3565.48322
3588.282
3582.001159
3543.422048
3533.006136
3556.006081
3558.889456
3548.205322
3551.625139
3570.981749
3580.503593
3572.747537
3567.204305
3567.494877
3564.991482
3550.775772
3550.529903
3565.840848
3571.384081
3563.248046
3557.995386
3569.886514
3581.777642
3566.131421
3545.567816
3552.899188
3565.840848
3561.728127
3543.578511
3549.747592
3567.360767
3560.118802
3542.170351
3533.140246
3542.662089
3534.838979
3513.470711
3512.733103
3537.54354
3549.300557
3537.767057
3531.687383
3533.922557
3532.022659
3520.265641
3510.207356
3530.547444
3543.354993
3536.180083
3532.112066
3548.630005
3572.52402
3569.662996
3546.104258
3555.939025
3583.632837
3572.501668
3536.001269
3520.533862
3533.073191
3509.648563
3472.030577
3462.46403
3478.177306
3486.246286
3462.821658
3460.810001
3489.934324
3496.103405
3480.52424
3456.943149
3457.524295
3465.012129
3450.014108
3439.240568
3457.390184
3473.751661
3458.954806
3447.622472
3518.522205
3615.752294
3676.102004
3778.763566
3986.210106
4148.59553
4159.391422
3968.261655
3662.646253
3433.429114
3310.941554
3349.386555
3460.653539
3536.090676
3570.668825
3559.358842
3514.074208
3489.286123
3483.944057
3465.41446
3461.413498
3474.109289
3475.539801
3460.742946
3446.147257
3469.974216
3496.617496
3509.425045
3482.781766
3481.217144
3500.864327
3506.452263
3486.872135
3477.84203
3497.243344
3520.600917
3508.754493
3485.01694
3494.404673
3521.562042
3529.921595
3525.071266
3538.348203
3555.447287
3543.802028
3535.844807
3550.887531
3582.247029
3605.001104
3611.371352
3612.555994
3614.254727
3608.823253
3594.138157
3604.352904
3645.390707
3673.732719
3675.274989
3682.427547
3706.053341
3710.411931
3690.429472
3695.950353
3721.744266
3741.436153
3732.964841
3725.924042
3737.926929
3754.802496
3746.062964
3727.242795
3723.286536
3724.180606
3696.911478
3659.919341
3643.580215
3648.274082
3621.98843
3566.980787
3544.360822
3552.586264
3537.878816
3497.645676
3484.12287
3495.477557
3492.594182
3463.827486
3452.070469
3479.026673
3491.007208
3465.012129
3439.01705
3428.019992
3451.288158
3459.915931
3446.57194
3448.360079
3460.675891
3458.932454
3449.723536
3460.698242
3473.014053
3469.147202
3458.865399
3461.145277
3478.981969
3480.099556
3464.810963
3458.194847
3467.224952
3475.718615
3456.943149
3453.724498
3484.592257
3498.427987
3462.888713
3440.648727
3460.005338
3481.194792
3475.629208
3450.41644
3446.437829
3462.396975
3464.945074
3451.265806
3455.020899
3475.450394
3465.883847
3433.339707
3426.07539
3455.758507
3472.410556
3452.003414
3434.054963
3455.736155
3478.669045
3463.87219
3433.496169
3434.099666
3451.869303
3444.537931
3431.886844
3446.259015
3471.0471
3463.87219
3437.944166
3429.338745
3444.850855
3446.907216
3428.087047
3423.504939
3440.358155
3439.642899
3419.392219
3415.771236
3436.111323
3454.484457
3445.81198
3446.817809
3466.912027
3476.389167
3488.190888
3497.399807
3505.6476
3487.69915
3449.812943
3432.088009
3440.715783
3439.195864
3419.079294
3409.579803
3399.186242
3394.179451
3381.86364
3360.584779
3371.224209
3395.989942
3385.372863
3362.216456
3358.774288
3374.867544
3387.496279
3373.481735
3362.194104
3367.782041
3378.443823
3394.42532
3470.756527
3553.726203
3643.110829
3797.986066
3996.648371
4127.428428
4149.444896
3925.458065
3596.127462
3371.268913
3295.675313
3380.008445
3465.772088
3513.247193
3517.829301
3466.420289
3409.780968
3402.181375
3426.097742
3433.898501
3413.781931
3405.355323
3411.926736
3425.226024
3415.704181
3401.130843
3422.052076
3434.837274
3420.196881
3408.976306
3430.456332
3450.058812
3448.069507
3432.110361
3432.378582
3448.337728
3447.60012
3439.464085
3454.551513
3482.424138
3503.412426
3487.69915
3471.851763
3498.405635
3509.35799
3500.350237
3511.213185
3534.146075
3552.966243
3550.395793
3548.093563
3575.09447
3605.023456
3606.543375
3588.729035
3589.488994
3622.189596
3631.957308
3626.682297
3644.384878
3676.549038
3684.193335
3664.479096
3682.271085
3729.634432
3736.451714
3710.099007
3709.853138
3736.071734
3740.385621
3704.019332
3686.383806
3692.754053
3681.131146
3646.776515
3619.060352
3612.108959
3595.658075
3562.622197
3522.500816
3513.247193
3522.478464
3498.673856
3482.379434
3482.334731
3495.343446
3485.352216
3455.713803
3444.157951
3459.468896
3466.219123
3449.701184
3432.758562
3450.03646
3468.811926
3450.595254
3426.142445
3440.335803
3453.478629
3435.776047
3430.679849
3459.64771
3489.308475
3483.921705
3472.567019
3481.887696
3487.45328
3478.959617
3468.588408
3477.909086
3487.520336
3479.563115
3460.184152
3461.972292
3476.746795
3466.912027
3443.979137
3448.11421
3468.454298
3488.548516
3478.646693
3462.195809
3468.454298
3474.913952
3454.953844
3431.730381
3441.632204
3467.783745
3475.897429
3453.925664
3451.31051
3451.422268
3440.80519
3430.121056
3442.86155
3478.311417
3488.190888
3467.694338
3459.155972
3470.935341
3472.544667
3460.698242
3451.243454
3453.031594
3466.956731
3472.544667
3482.893525
3477.506754
3475.651559
3453.791553
3438.949995
3443.37564
3464.498039
3470.15303
3462.665196
3459.021861
3475.383338
3465.392109
3442.503922
3450.729364
3478.825507
3479.853687
3461.748774
3460.720594
3500.26083
3526.14415
3516.398789
3491.722464
3509.536804
3534.526054
3535.777752
3522.076133
3526.65824
3523.014906
3492.370664
3456.585521
3444.940262
3453.322167
3442.548626
3423.728457
3428.332916
3453.031594
3448.583597
3431.417457
3433.093838
3448.270672
3442.325108
3418.721666
3416.531195
3435.865454
3439.486437
3425.717762
3430.545739
3455.266768
3516.91288
3581.956456
3652.9903
3805.965639
4023.224595
4170.25437
4231.11817
4111.983372
3808.111406
3540.404563
3366.887971
3396.772253
3523.573699
3576.145002
3560.834057
3524.467769
3506.273449
3491.498946
3462.151106
3447.60012
3463.134582
3486.402748
3484.435795
3476.67974
3487.877964
3496.505737
3475.249228
3472.879943
3492.95181
3515.683534
3523.037258
3510.319115
3517.963412
3539.286976
3539.063458
3520.600917
3522.322002
3545.791333
3548.026508
3547.132438
3560.051746
3580.280075
3590.003084
3570.624122
3566.265531
3581.911752
3597.982657
3593.445253
3604.822291
3641.859131
3674.224457
3682.315789
3675.632617
3682.159326
3695.458614
3695.682132
3697.023236
3720.783141
3748.298138
3754.511923
3749.773353
3761.999758
3785.424386
3796.24263
3784.306798
3786.094938
3814.146377
3820.248404
3810.883023
3819.734313
3848.657471
3844.455343
3803.41754
3768.258246
3760.971577
3763.877304
3730.036763
3694.11751
3681.712291
3675.833783
3637.925224
3595.814538
3601.313067
3613.092436
3593.758177
3562.063403
3557.816572
3570.579418
3570.937046
3556.050784
3554.307348
3571.652302
3562.890418
3532.626156
3535.464827
3568.053671
3588.773738
3570.624122
3559.135325
3564.678557
3589.064311
3569.797107
3542.03624
3547.780639
3569.037148
3563.493915
3544.964319
3545.791333
3568.612465
3570.959398
3550.284034
3550.395793
3561.102278
3562.6669
3555.469639
3558.576531
3574.088642
3574.915656
3568.098374
3560.61054
3565.773793
3568.724223
3551.736897
3548.652357
3562.577493
3576.145002
3560.431726
3539.734011
3556.162543
3576.927313
3552.295691
3524.467769
3532.715563
3559.157677
3556.855447
3535.576586
3536.537711
3554.128534
3555.089659
3540.337508
3537.632947
3553.413278
3551.736897
3533.900205
3528.267566
3539.5999
3549.032336
3542.595034
3528.692249
3532.492045
3549.769944
3538.862293
3519.639792
3520.019772
3540.739839
3525.205377
3511.615516
3506.787539
3520.355048
3507.726313
3489.062606
3501.199603
3537.454133
3558.531828
3555.827267
3547.981804
3571.071156
3589.936029
3576.212058
3569.260665
3583.118747
3578.201363
3542.41622
3513.023676
3508.754493
3518.723371
3500.663161
3469.840106
3457.457239
3476.389167
3495.678722
3486.626266
3497.06453
3508.530975
3503.457129
3473.259923
3459.401841
3461.212332
3457.21137
3454.216236
3464.542742
3492.70594
3547.825342
3613.40536
3672.637483
3800.265944
4013.769807
4161.827762
4192.404949
4089.40811
3816.426255
3551.289863
3363.065822
3371.447727
3496.818661
3560.029395
3583.342264
3580.615351
3551.111049
3501.266658
3469.549533
3478.132603
3499.634981
3500.037313
3483.541725
3482.938228
3512.643696
3536.202435
3536.291842
3524.624231
3530.860368
3530.122761
3518.097522
3511.034371
3526.859406
3546.528941
3537.096505
3523.573699
3553.882665
3584.504555
3579.721281
3542.460923
3529.631022
3548.160618
3564.566799
3557.928331
3563.180991
3588.639628
3605.671657
3582.694064
3588.639628
3611.9972
3628.828064
3622.524872
3638.484018
3678.113661
3690.004789
3667.787155
3660.388727
3681.980512
3706.634487
3716.201033
3714.88228
3725.052324
3741.749077
3731.422571
3722.660687
3747.091144
3768.146487
3768.928798
3756.747098
3760.949226
3775.120232
3774.024996
3738.485722
3720.246699
3715.463426
3692.463481
3648.743468
3621.47434
3623.91068
3621.116712
3590.33836
3564.365633
3560.856409
3560.163505
3526.859406
3505.401731
3508.262754
3514.655353
3499.74674
3469.460126
3468.677815
3476.81385
3471.404728
3457.680757
3465.012129
3473.259923
3460.228856
3442.995661
3442.101591
3463.469859
3466.68851
3450.595254
3444.895559
3474.846897
3504.9994
3488.146184
3452.584559
3456.56317
3467.806097
3463.402803
3449.030632
3462.821658
3489.084958
3475.986835
3454.819733
3469.571885
3481.775937
3463.201638
3431.238643
3434.233777
3451.534027
3454.26094
3439.978175
3448.695355
3472.142335
3473.930475
3442.481571
3417.849948
3435.731344
3454.529161
3438.50296
3418.185224
3426.500073
3451.489324
3444.984966
3431.484512
3434.837274
3447.46601
3443.576806
3412.776102
3414.340724
3433.898501
3455.445582
3441.296928
3425.650707
3430.568091
3430.255166
3427.416495
3430.277518
3444.426172
3432.043306
3404.55066
3407.948125
3446.504885
3481.239495
3482.804118
3468.275484
3466.129716
3478.311417
3477.596161
3459.446545
3459.871228
3465.995606
3447.73423
3422.588518
3412.686695
3421.739152
3415.994753
3396.392273
3384.478794
3390.849041
3401.197899
3386.378692
3373.705253
3384.881125
3391.184317
3370.106622
3359.109564
3367.714985
3391.743111
3390.849041
3367.558523
3379.092023
3422.163835
3493.890583
3534.190778
3629.610375
3827.132741
4036.076848
4103.24384
4072.554895
3845.639985
3547.266549
3311.992086
3239.371269
3351.37586
3458.910103
3491.655408
3492.325961
3476.769147
3444.090896
3404.193032
3385.551677
3408.842195
3425.606003
3407.635201
3386.490451
3396.235811
3421.113303
3427.774123
3420.666268
3428.019992
3443.442696
3435.664288
3415.123035
3413.491358
3440.961652
3449.052983
3428.154102
3434.189073
3467.068489
3469.25896
3442.34746
3422.923794
3457.278425
3494.449376
3494.896411
3488.816737
3515.460016
3537.565891
3530.212168
3522.389057
3546.037203
3565.796145
3559.917636
3550.775772
3579.944799
3612.690105
3616.825177
3610.07495
3620.937898
3633.700744
3635.622994
3620.110884
3629.565672
3659.78523
3673.732719
3675.900838
3683.478079
3706.612135
3713.541176
3695.548021
3678.560695
3694.76571
3710.166062
3689.244829
3671.989283
3667.742451
3656.901855
3632.024364
3595.658075
3574.289808
3556.967206
3521.830263
3486.514507
3472.07528
3483.720539
3482.714711
3472.097632
3464.945074
3477.305588
3485.419272
3455.423231
3424.555471
3415.748884
3422.186187
3411.099721
3406.942297
3427.125922
3444.314414
3429.875187
3403.723646
3422.655573
3460.92176
3463.447507
3444.940262
3450.148219
3459.960635
3443.532103
3416.642954
3427.774123
3458.910103
3466.330882
3449.924701
3436.893634
3442.995661
3446.728402
3425.494245
3415.368905
3441.654556
3458.016033
3448.337728
3431.819788
3444.672041
3451.891655
3441.83337
3424.197844
3419.056942
3431.797437
3431.752733
3413.044323
3417.112341
3437.966518
3431.596271
3412.463178
3420.643916
3449.701184
3457.434888
3440.536969
3427.975288
3420.129826
3418.274631
3410.965611
3413.379599
3435.731344
3454.77503
3447.130733
3427.125922
3425.650707
3435.440771
3424.331954
3410.250355
3421.068599
3436.96069
3427.729419
3424.108437
3418.364038
3422.968498
3415.771236
3403.477776
3408.059884
3424.890748
3428.556434
3417.849948
3439.195864
3494.784653
3497.578621
3463.000472
3459.535952
3486.156879
3494.002342
3462.419327
3434.14437
3442.86155
3452.562207
3417.49232
3388.725625
3391.98898
3403.209556
3402.583707
3388.502108
3388.65857
3401.711989
3384.322331
3366.910323
3370.732471
3397.040474
3408.149291
3381.528363
3355.309767
3368.720814
3380.321369
3372.475907
3410.853852
3523.104313
3595.993351
3672.369262
3855.832381
4063.815363
4166.186353
4088.446985
3799.95302
3531.620327
3363.177581
3325.134912
3410.853852
3491.096615
3534.503702
3511.593164
3462.642844
3438.949995
3439.508789
3422.74498
3391.698407
3397.040474
3419.861605
3431.976251
3425.091913
3422.365001
3445.432001
3466.68851
3456.3173
3437.228911
3442.101591
3461.771126
3462.218161
3439.955823
3457.434888
3491.051911
3495.857536
3470.488306
3466.777917
3494.851708
3500.372589
3491.990685
3490.873097
3514.342429
3533.788447
3509.916784
3503.010095
3527.239386
3562.443383
3574.200401
3573.239276
3583.744595
3598.78732
3598.072064
3602.229488
3624.313012
3642.797904
3642.015593
3638.573425
3661.036928
3682.874582
3679.544172
3661.394556
3671.050509
3703.885222
3716.938641
3715.463426
3720.358458
3732.04842
3726.751057
3706.053341
3693.469309
3701.381827
3709.428455
3673.822126
3642.507332
3633.879558
3619.239166
3577.106127
3543.913787
3526.52413
3519.259813
3498.85267
3500.573754
3516.219975
3508.307458
3474.153992
3447.756582
3450.952882
3474.064585
3470.063623
3432.713858
3427.036515
3460.653539
3482.871173
3459.804172
3438.190036
3449.634129
3459.603007
3444.895559
3433.965556
3458.083088
3479.496059
3468.923684
3451.891655
3448.449486
3456.518466
3446.884864
3422.990849
3426.812998
3460.184152
3475.293931
3455.333824
3444.962614
3449.187094
3447.667175
3440.626376
3451.288158
3476.500926
3469.035443
3434.747867
3417.648782
3437.519483
3444.672041
3428.623489
3407.277573
3422.119131
3440.201693
3430.903367
3420.286288
3438.435905
3461.257036
3458.641882
3439.933472
3431.998602
3441.31928
3438.36885
3430.277518
3435.664288
3457.21137
3466.442641
3463.089879
3453.88096
3446.214312
3431.462161
3412.820806
3413.066675
3436.401896
3449.14239
3439.91112
3417.559375
3417.089989
3431.417457
3439.106457
3444.157951
3444.068544
3436.06662
3422.834387
3405.489433
3408.842195
3431.305698
3432.445637
3415.726532
3409.579803
3427.058867
3446.147257
3436.334841
3433.451466
3455.087954
3462.888713
3444.716745
3451.042289
3489.710807
3504.574717
3481.619475
3458.351309
3458.843047
3453.813905
3424.711934
3396.973419
3401.711989
3412.127902
3393.799471
3369.994863
3362.462325
3381.438956
3382.020102
3365.144535
3359.713061
3384.009407
3392.145442
3375.985131
3362.976416
3377.840326
3379.226134
3366.083308
3380.813108
3492.661237
3576.279113
3643.982547
3793.158089
4007.690133
4151.233035
4152.887065
3928.363792
3629.16334
3421.090951
3300.950325
3351.107639
3442.548626
3507.43574
3514.543595
3471.360024
3427.61766
3424.53312
3428.221158
3416.397085
3412.820806
3430.366925
3452.85278
3439.39703
3426.388315
3431.417457
3442.190998
3429.897538
3417.000582
3428.601137
3443.062716
3444.873207
3453.836257
3471.784708
3489.800214
3466.263827
3445.432001
3466.666158
3496.461033
3492.169498
3474.153992
3483.385263
3509.983839
3527.976993
3535.286014
3549.926406
3574.178049
3568.724223
3550.373441
3551.960415
3590.964209
3622.50252
3614.858224
3601.111901
3619.999125
3639.691012
3630.593852
3629.856244
3657.259483
3676.0573
3672.883352
3669.128259
3675.766727
3712.043609
3730.059115
3714.23408
3707.282687
3728.5839
3748.83458
3748.119324
3743.358403
3757.641167
3767.0289
3731.579033
3695.033931
3685.109757
3678.337178
3651.537436
3615.1935
3606.99041
3601.983619
3580.950627
3550.798124
3538.728182
3535.286014
3527.127627
3504.686475
3503.770054
3524.892452
3531.441513
3509.805025
3498.137414
3509.715618
3503.07715
3473.975178
3470.354196
3497.3104
3518.186929
3509.156824
3499.411464
3520.198586
3534.749572
3519.259813
3498.651504
3508.128644
3522.634926
3510.25206
3495.656371
3507.927478
3529.407505
3520.310345
3495.969295
3507.122816
3537.320022
3543.511455
3520.980897
3513.671877
3531.709734
3542.03624
3532.760266
3525.473598
3541.052764
3531.463865
3502.764225
3485.240458
3505.826414
3534.72722
3535.397772
3511.41435
3504.48531
3508.262754
3499.031484
3496.505737
3504.9994
3522.456112
3524.914804
3503.457129
3508.240403
3530.480388
3538.482313
3524.780694
3522.344353
3537.767057
3542.662089
3522.67963
3510.855557
3522.992554
3527.217034
3513.247193
3504.865289
3534.503702
3560.99052
3535.688345
3501.266658
3502.831281
3526.367667
3527.55231
3530.435685
3555.626101
3568.433651
3569.171258
3566.444345
3568.053671
3577.575514
3555.313177
3527.082923
3524.803045
3546.439534
3537.655298
3508.97801
3500.64081
3515.169444
3506.362856
3473.908123
3467.314359
3496.125757
3513.828339
3479.741929
3446.19196
3451.936358
3474.913952
3484.458147
3484.391091
3480.323074
3487.877964
3489.420234
3527.798179
3603.79411
3685.601495
3816.090979
4015.647354
4163.504143
4213.907327
4063.681252
3735.51294
3464.654501
3327.526549
3372.408852
3485.083995
3550.261682
3599.390817
3595.143985
3526.546481
3475.428042
3473.572847
3484.726368
3476.94796
3468.454298
3477.350292
3496.505737
3497.377455
3480.948923
3499.724388
3518.142226
3516.957583
3506.944002
3510.095598
3536.671822
3550.507551
3526.747647
3514.878871
3527.887586
3549.680537
3544.941967
3535.464827
3547.266549
3570.557066
3570.534715
3542.125647
3546.417182
3574.133345
3582.738767
3574.759194
3594.294619
3623.687163
3638.685183
3629.319802
3630.303279
3649.838704
3663.49562
3650.643367
3642.976718
3668.144783
3689.982437
3689.043664
3691.837632
3713.429417
3719.173815
3688.686036
3675.632617
3691.994094
3711.104835
3715.91046
3710.38958
3740.475028
3770.560476
3759.071679
3718.413856
3698.923135
3695.123338
3692.083501
3678.627751
3674.336216
3676.213762
3638.349907
3578.223715
3553.010947
3567.807802
3560.565836
3517.874005
3489.979028
3496.237516
3508.598031
3499.567926
3477.082071
3475.070414
3487.050949
3479.920743
3480.993626
3494.136452
3498.048007
3481.485365
3462.151106
3472.097632
3505.289972
3506.787539
3487.810908
3485.083995
3506.720484
3517.516377
3512.330772
3508.530975
3507.100464
3493.667065
3484.078167
3493.577658
3504.731179
3511.213185
3504.932345
3500.707865
3510.721446
3517.315211
3506.966353
3485.419272
3490.761339
3505.714656
3502.116025
3503.434778
3510.676743
3515.63883
3484.078167
3455.959672
3454.730327
3475.740966
3484.011112
3472.209391
3472.388205
3481.708882
3478.534934
3448.896521
3425.5613
3438.860588
3452.964539
3456.540818
3461.56996
3488.794385
3499.009132
3473.304626
3449.768239
3460.362966
3484.480498
3499.590278
3510.296763
3522.67963
3535.688345
3531.173293
3492.728292
3478.467879
3484.793423
3484.435795
3464.162763
3431.32805
3430.255166
3440.358155
3424.108437
3415.011277
3426.410666
3423.974326
3406.897593
3395.855832
3406.115282
3415.078332
3399.16389
3378.488526
3393.687712
3418.498149
3412.23966
3389.776157
3390.670227
3411.747922
3457.010204
3510.229708
3544.696098
3654.152591
3865.421279
4034.355764
4060.909636
3980.353949
3712.021257
3426.567128
3225.602594
3242.142885
3367.26795
3429.875187
3446.05785
3474.824545
3477.19383
3440.089934
3404.148329
3393.598305
3400.750864
3398.739207
3392.301904
3408.842195
3437.0948
3436.223082
3411.770274
3399.141538
3418.00641
3428.578785
3411.412646
3402.471948
3420.554509
3446.214312
3451.668138
3445.253187
3462.128754
3454.77503
3426.07539
3415.368905
3440.916948
3466.241475
3463.447507
3455.356175
3466.353234
3497.735083
3508.8439
3500.573754
3494.829356
3502.205432
3509.268583
3509.805025
3534.21313
3563.784488
3573.954531
3564.07506
3567.78545
3603.011799
3604.755235
3590.360712
3587.075005
3606.655134
3631.577329
3633.141951
3636.114733
3651.112753
3665.842553
3653.258521
3639.556901
3657.572407
3677.107832
3674.13505
3662.758012
3650.621015
3638.729887
3597.177994
3544.003194
3514.588298
3515.549423
3505.625249
3485.128699
3468.141373
3473.304626
3481.083033
3454.618568
3419.459274
3409.28923
3419.41457
3408.171643
3389.865564
3390.491413
3401.22025
3402.62841
3382.936523
3383.003579
3396.973419
3401.868451
3393.039512
3400.996733
3425.337783
3421.090951
3401.197899
3398.001599
3418.051114
3418.676963
3393.866526
3393.128919
3429.964594
3443.085068
3409.244527
3382.489488
3399.16389
3421.426227
3410.563279
3394.335913
3403.813053
3420.263937
3416.106512
3394.55943
3393.128919
3411.412646
3411.323239
3392.905401
3398.6498
3414.944221
3415.05598
3386.87043
3371.179506
3389.954971
3392.190146
3390.424358
3386.088119
3398.001599
3396.705198
3382.958875
3373.638198
3380.187259
3400.370884
3402.650762
3390.446709
3390.245544
3408.015181
3402.561355
3386.669265
3388.993846
3398.582744
3394.917058
3388.770329
3404.148329
3444.940262
3463.961597
3432.155065
3423.169663
3460.720594
3469.236609
3437.519483
3407.568146
3401.08614
3402.159024
3395.632314
3383.718834
3384.121166
3379.159078
3347.799581
3320.61986
3325.35843
3346.369069
3351.331157
3347.173732
3371.268913
3383.294151
3363.892837
3334.723811
3326.476017
3346.592587
3346.033793
3341.675203
3353.789849
3442.101591
3522.43376
3582.001159
3724.7394
3955.588216
4099.801671
4099.891078
3914.997448
3611.349
3371.090099
3234.185664
3283.873592
3416.397085
3487.408577
3481.641827
3420.219233
3381.975398
3385.149346
3393.173622
3387.496279
3381.796584
3398.78391
3389.262067
3365.233942
3370.486602
3395.83348
3399.432111
3374.420509
3355.823857
3383.115337
3412.709047
3406.562317
3395.274686
3416.575899
3427.058867
3412.597288
3389.843212
3409.691561
3434.233777
3433.406762
3417.447617
3421.269765
3453.545684
3480.703054
3468.677815
3466.263827
3485.486327
3502.004266
3497.735083
3495.678722
3517.158749
3539.577548
3568.478354
3582.179973
3588.237296
3577.620218
3558.151848
3552.40745
3577.754328
3615.931108
3623.709515
3618.590965
3634.393648
3654.577274
3652.364451
3638.908701
3644.250768
3660.567541
3667.206009
3659.114678
3654.644329
3664.166172
3664.814373
3637.679355
3609.717323
3601.111901
3580.995331
3545.009022
3517.091694
3500.819624
3496.170461
3481.194792
3452.137524
3445.767277
3454.439754
3437.877111
3417.022934
3422.789684
3441.45339
3431.32805
3400.862622
3388.703273
3405.623544
3410.295059
3403.276611
3408.77514
3430.501036
3435.329012
3419.839253
3416.106512
3429.137579
3430.501036
3413.938393
3403.187204
3423.571995
3448.427135
3424.846044
3395.498204
3404.93064
3429.495207
3422.007373
3404.55066
3409.602154
3417.849948
3414.318373
3402.62841
3410.652686
3432.803265
3444.962614
3425.360134
3417.045285
3415.592422
3412.23966
3387.205707
3385.149346
3406.428207
3415.279498
3406.361151
3392.905401
3402.918983
3400.32618
3382.623599
3373.325273
3385.372863
3408.573974
3414.944221
3405.511785
3417.49232
3431.216291
3414.92187
3388.859736
3379.404948
3395.364093
3400.996733
3389.910268
3403.433073
3442.190998
3446.57194
3403.343666
3375.225171
3394.492375
3425.650707
3437.877111
3442.012184
3467.895504
3495.946943
3469.527181
3436.781876
3437.005393
3439.419382
3418.341687
3387.406872
3379.784927
3397.219288
3403.366018
3378.66734
3361.5012
3364.429279
3377.795622
3371.11245
3357.589645
3347.218436
3349.766535
3346.234959
3348.313671
3366.262122
3368.206724
3345.854979
3343.68686
3378.175602
3438.793533
3495.678722
3531.307403
3660.746355
3889.292942
4068.419822
4131.80937
4035.808627
3741.391449
3443.152123
3234.632699
3245.987385
3390.06673
3468.454298
3483.653484
3463.603969
3428.064695
3388.099776
3354.639215
3350.191218
3379.069672
3406.674076
3390.446709
3371.447727
3379.360244
3412.798454
3406.741131
3384.590552
3387.317465
3404.707122
3405.154157
3401.667285
3423.102608
3447.46601
3435.396068
3401.957858
3411.792625
3434.367887
3436.826579
3425.650707
3439.352326
3478.512583
3487.855612
3475.78567
3473.371681
3493.018865
3508.508624
3492.460071
3494.739949
3532.223825
3563.359805
3563.113935
3551.915711
3563.739784
3582.694064
3590.561878
3600.687218
3622.077837
3634.416
3616.98164
3588.103186
3583.409319
3607.370389
3611.125482
3590.33836
3575.832078
3592.1265
3615.104093
3620.133235
3609.784378
3622.122541
3616.959288
3585.0857
3576.726148
3583.789299
3566.623159
3533.810798
3490.873097
3475.02571
3481.083033
3475.852725
3453.456277
3434.837274
3429.182283
3403.65659
3376.812145
3376.231
3394.537079
3396.056997
3380.947218
3381.215439
3390.290247
3378.28736
3365.703328
3365.748032
3385.037587
3410.69739
3402.203727
3388.569163
3401.354361
3418.811073
3411.233832
3398.381579
3417.961707
3441.051059
3423.035553
3390.334951
3398.158061
3430.679849
3436.670117
3421.470931
3420.241585
3426.209501
3426.276556
3405.131806
3391.787814
3413.938393
3425.382486
3398.113358
3387.898611
3417.626431
3449.90235
3487.945019
3578.201363
3642.149704
3636.025326
3583.990465
3542.840903
3529.787484
3530.949775
3521.27147
3501.333714
3498.740911
3510.095598
3508.039237
3480.323074
3476.500926
3501.221955
3511.883737
3490.627228
3457.680757
3467.71669
3473.617551
3455.311472
3448.091858
3470.085975
3493.242382
3476.120946
3451.377565
3459.558303
3475.875077
3474.623379
3453.389222
3463.313396
3485.285161
3496.639847
3471.136507
3467.381414
3496.684551
3530.927423
3534.570758
3529.385153
3546.573644
3570.288845
3552.899188
3534.526054
3527.194682
3520.533862
3502.31719
3482.871173
3477.171478
3479.540763
3455.892617
3435.217254
3455.624396
3481.731234
3478.646693
3457.032556
3454.059774
3461.100574
3457.07726
3446.460181
3460.1618
3477.953789
3472.142335
3444.493228
3438.927643
3480.52424
3566.019662
3625.31884
3706.008638
3881.738053
4099.220526
4202.306772
4184.98417
3986.433624
3691.681169
3457.233722
3338.545959
3431.439809
3552.183932
3592.819404
3576.212058
3537.297671
3514.051856
3499.590278
3488.816737
3485.620437
3508.754493
3515.795292
3486.536859
3468.208428
3491.700112
3507.860423
3502.205432
3499.590278
3527.820531
3541.097467
3522.992554
3516.599955
3544.405525
3565.907903
3544.830208
3520.89149
3520.712676
3548.69706
3550.216979
3541.477447
3555.693156
3579.497764
3583.565782
3576.547334
3591.277133
3622.591927
3627.531663
3607.102168
3607.012761
3637.657003
3656.499524
3649.726945
3650.621015
3681.82405
3696.732664
3684.439204
3678.314826
3692.70935
3716.826882
3716.29044
3721.610155
3746.957034
3763.586731
3745.213597
3733.166007
3752.120286
3780.194078
3776.014301
3760.032804
3759.563417
3778.897676
3773.980293
3734.507112
3714.167024
3725.342897
3724.202958
3682.584009
3641.255634
3623.329535
3603.011799
3567.338415
3530.390981
3528.021697
3537.811761
3520.153883
3483.720539
3485.195754
3515.415313
3511.436702
3486.335693
3470.331844
3468.789574
3456.272597
3440.626376
3457.546646
3497.466862
3515.974106
3500.64081
3491.901278
3502.987743
3508.910955
3490.247248
3486.648618
3503.457129
3511.816682
3487.118004
3457.680757
3472.634074
3495.656371
3496.326923
3493.287086
3513.805987
3529.429856
3513.649525
3476.903257
3462.553437
3476.970312
3485.240458
3484.011112
3476.344463
3479.943094
3476.567981
3465.772088
3466.040309
3478.490231
3484.905182
3460.295911
3444.247358
3452.249283
3467.71669
3461.994643
3445.342594
3448.136562
3456.876094
3456.004376
3447.667175
3459.267731
3469.996568
3468.968388
3449.790591
3436.20073
3454.015071
3480.457184
3487.877964
3499.031484
3516.376438
3501.981914
3486.313341
3495.857536
3516.398789
3521.874967
3505.200565
3484.36874
3480.591295
3477.238533
3443.152123
3403.254259
3397.509861
3412.932564
3414.363076
3392.480718
3405.198861
3425.918928
3427.394143
3406.115282
3391.296076
3402.360189
3408.171643
3401.533175
3410.429169
3434.479646
3438.972347
3408.551622
3431.372754
3527.909938
3598.40734
3677.241943
3862.984939
4089.78809
4156.999786
4046.291595
3737.345783
3461.458202
3273.591789
3242.254644
3325.470188
3416.888823
3483.60878
3510.90026
3483.452318
3450.55055
3435.440771
3421.068599
3401.98021
3401.399064
3429.4058
3460.117097
3461.659367
3454.059774
3453.858608
3454.104478
3440.559321
3438.88294
3462.039347
3482.424138
3486.782728
3474.958655
3467.001434
3465.906199
3462.08405
3461.413498
3474.8916
3486.246286
3473.908123
3451.757544
3460.519428
3486.335693
3498.048007
3496.505737
3497.645676
3524.020734
3551.334566
3549.479371
3549.07704
3577.553162
3594.652247
3570.400604
3551.043993
3573.082813
3608.711494
3612.89127
3587.946723
3596.775663
3619.283869
3614.254727
3601.290715
3602.698875
3623.553052
3635.332422
3640.607433
3641.859131
3642.529683
3631.331459
3608.264459
3603.078854
3612.89127
3615.081741
3588.058482
3549.948758
3541.723316
3522.992554
3480.591295
3434.837274
3434.27848
3442.928605
3423.482588
3396.816957
3390.916096
3385.149346
3365.658625
3342.904549
3337.137799
3339.97647
3326.878348
3315.456607
3317.021229
3322.832682
3315.568366
3288.858031
3282.934819
3304.191328
3329.068819
3323.793807
3328.264156
3353.029889
3368.251427
3350.973529
3341.876369
3349.922997
3361.344738
3349.274796
3334.500293
3326.543072
3340.177636
3331.035773
3327.235976
3344.111543
3358.886046
3343.955081
3313.020267
3305.174804
3319.166996
3322.564462
3315.523662
3317.714133
3342.725735
3336.713116
3312.55088
3302.112615
3308.035828
3292.210793
3275.916371
3283.85124
3302.447892
3310.49452
3292.881345
3278.106842
3280.38672
3297.68697
3295.876479
3272.228333
3269.099089
3287.427519
3291.339075
3281.683121
3295.340037
3325.850168
3331.102828
3312.506177
3323.972621
3341.027002
3334.723811
3308.214642
3287.293409
3291.651999
3283.515964
3239.795952
3207.497681
3220.081713
3253.072888
3246.8144
3221.601632
3222.361591
3228.061286
3217.891242
3193.594896
3191.426777
3215.43255
3225.334373
3192.633771
3172.517201
3188.610457
3202.759111
3193.326675
3210.962201
3311.075665
3380.522535
3439.732306
3589.980732
3818.66143
3919.713666
3872.618541
3635.086553
3354.862732
3146.902102
3055.170543
3121.063485
3219.746437
3292.680179
3298.826909
3239.348917
3200.859213
3206.648315
3200.635696
3182.061396
3178.574524
3207.497681
3212.10214
3193.6396
3191.359722
3212.303306
3230.207053
3215.43255
3204.614306
3231.212882
3242.388754
3226.630774
3214.314963
3225.0438
3239.550083
3220.908728
3199.518108
3215.209033
3241.360574
3244.176894
3224.596766
3243.953376
3277.145717
3282.778356
3253.966958
3249.76483
3276.452813
3289.439176
3282.845412
3285.304104
3306.046522
3327.705363
3323.614994
3326.699534
3342.233997
3356.896741
3358.93075
3367.960855
3393.53125
3404.483605
3395.297038
3386.892782
3397.778082
3426.45537
3424.421361
3402.203727
3410.250355
3438.63707
3445.208483
3421.85091
3405.131806
3408.417512
3397.018122
3368.966683
3345.98909
3336.713116
3326.833645
3284.342979
3245.383888
3245.786219
3250.323623
3225.334373
3187.202297
3185.168288
3194.533669
3186.46469
3166.61634
3162.101288
3172.651311
3170.438489
3145.762163
3136.195616
3139.05664
3132.172302
3101.39395
3104.254973
3141.917663
3178.127489
3184.631847
3199.227536
3210.42576
3195.204222
3157.206256
3146.611529
3167.957445
3186.777614
3181.524954
3176.808736
3184.229515
3202.133262
3197.215879
3173.679492
3173.79125
3186.442338
3185.168288
3170.505544
3176.942846
3199.473405
3200.300419
3184.698902
3178.887448
3197.841727
3198.177004
3179.133317
3174.640617
3196.791195
3210.738684
3195.807719
3188.744567
3201.216841
3209.15171
3181.234381
3160.134335
3183.067224
3211.565699
3203.273201
3186.73291
3197.171175
3213.867928
3213.353838
3195.517146
3208.078826
3228.642431
3235.347955
3217.265393
3200.479233
3220.573452
3238.857179
3219.187643
3197.908783
3212.124492
3237.270205
3241.271167
3244.176894
3268.741461
3285.058234
3266.059252
3246.300309
3258.794935
3296.479976
3322.363296
3323.167959
3320.373991
3337.786
3349.274796
3330.052296
3319.256403
3321.804502
3313.914336
3287.986313
3287.18165
3308.773435
3313.288488
3272.675368
3245.383888
3261.723013
3275.64815
3251.664728
3220.014658
3221.691039
3242.276995
3244.869798
3240.734725
3249.25074
3269.657882
3265.343996
3243.774562
3246.613234
3287.651037
3380.231962
3452.98689
3537.252967
3712.624754
3930.666021
4062.854238
4076.891133
3892.131614
3579.050729
3320.821025
3193.594896
3286.175822
3411.07737
3460.072393
3443.397992
3415.167739
3379.18143
3339.261215
3316.194214
3329.85113
3358.371956
3366.150363
3349.900645
3344.804447
3353.320462
3355.868561
3364.094003
3392.145442
3416.240623
3426.835349
3415.368905
3427.975288
3455.892617
3461.324091
3433.719687
3416.933527
3443.487399
3471.650597
3470.711824
3459.64771
3470.912989
3495.00817
3506.631077
3508.530975
3527.351144
3548.719412
3554.575569
3544.85256
3553.078002
3582.671712
3596.596849
3593.512308
3597.334456
3623.687163
3651.157457
3663.272102
3674.984416
3695.480966
3706.410969
3697.336161
3703.415835
3727.756885
3751.78501
3745.973557
3737.770467
3759.362252
3791.615819
3788.486575
3766.13483
3769.487592
3790.230011
3790.85586
3762.692662
3745.235949
3740.095048
3714.301135
3670.469364
3634.952442
3628.112808
3612.868919
3581.844697
3557.704813
3567.427822
3565.639682
3533.229653
3510.76615
3520.220938
3524.981859
3510.520281
3493.622362
3506.02758
3522.657278
3504.48531
3491.767167
3511.436702
3528.312269
3515.929403
3488.414405
3491.834222
3516.890528
3526.725295
3509.581507
3503.300667
3520.153883
3527.68642
3516.398789
3500.305533
3504.664124
3505.759359
3492.393016
3492.728292
3519.885662
3543.466752
3528.289918
3492.258905
3485.508679
3505.200565
3500.149071
3487.609743
3505.357028
3528.938118
3525.63006
3496.125757
3486.29099
3512.062551
3523.171368
3511.771978
3504.328847
3512.576641
3513.448359
3492.929458
3475.562152
3490.671932
3496.684551
3481.574772
3468.677815
3472.142335
3483.228801
3465.101536
3453.36687
3476.389167
3494.49408
3483.452318
3462.106402
3471.42708
3490.64958
3485.374568
3474.466917
3489.24142
3504.261792
3511.235536
3496.684551
3494.561135
3523.350182
3540.985708
3532.447342
3524.624231
3545.567816
3562.0187
3540.471618
3520.690324
3520.444455
3526.814702
3495.566964
3460.385318
3458.775992
3481.9324
3475.740966
3444.470876
3439.687602
3447.242492
3448.248321
3428.89171
3429.070524
3445.610815
3444.336765
3430.746905
3431.126884
3447.890693
3473.081109
3457.345481
3436.401896
3444.984966
3522.657278
3590.964209
3645.480114
3783.30097
4013.412179
4149.75782
4151.568312
4008.315981
3724.649993
3467.560228
3296.949362
3323.458531
3450.304681
3509.715618
3519.103351
3505.446435
3480.099556
3440.134637
3398.091006
3393.128919
3428.779951
3463.514562
3452.092821
3430.43398
3465.235646
3492.169498
3478.177306
3463.313396
3467.403766
3479.25019
3469.013091
3456.071431
3472.499963
3502.898336
3513.314249
3502.227783
3496.751606
3506.787539
3503.59124
3497.645676
3505.982877
3527.060572
3526.948813
3519.393923
3529.318098
3537.364726
3546.148961
3545.813685
3545.74663
3564.924427
3587.298523
3594.249915
3599.368465
3612.421884
3624.223605
3625.050619
3608.443273
3624.469474
3657.840628
3656.521875
3643.960195
3659.360547
3704.287553
3727.30985
3701.381827
3676.102004
3682.293437
3693.536364
3684.103928
3682.941637
3702.365303
3704.287553
3679.477117
3653.280872
3646.038907
3627.598718
3584.392796
3550.574607
3545.590168
3544.182008
3512.621345
3476.232705
3484.771071
3484.614609
3445.29789
3412.083198
3412.530233
3438.88294
3449.857646
3425.762466
3398.985076
3387.004541
3386.915134
3377.996788
3368.765517
3383.875297
3391.519593
3387.004541
3390.06673
3416.508843
3439.508789
3419.951012
3395.386445
3397.75573
3408.283402
3411.479701
3406.383503
3408.417512
3408.104588
3387.7645
3375.538096
3390.178489
3417.559375
3420.30864
3410.026838
3404.774178
3414.296021
3416.374733
3403.745997
3390.625523
3405.869413
3417.402913
3406.830538
3389.396177
3393.330084
3408.90925
3404.058922
3387.451576
3380.053148
3379.740224
3366.575046
3356.226189
3366.776212
3388.122128
3382.869468
3363.088174
3361.054165
3384.322331
3399.365055
3385.19405
3372.140631
3381.237791
3391.765462
3385.372863
3400.125015
3434.949033
3444.560283
3423.415533
3420.956841
3439.620547
3454.685623
3419.92866
3379.18143
3370.173677
3378.935561
3369.503125
3350.079459
3332.265119
3335.461418
3324.240842
3302.805519
3307.365275
3335.349659
3335.819046
3326.185444
3320.172825
3325.425485
3319.994011
3309.801615
3301.375008
3319.614031
3329.828778
3314.450778
3317.915299
3402.024913
3484.324036
3523.573699
3640.56273
3873.087927
4037.619118
4045.151656
3875.501916
3585.018645
3364.384575
3209.53169
3213.75617
3317.602374
3401.153195
3441.855722
3409.199823
3359.690709
3348.917168
3343.463343
3322.765627
3323.369124
3343.619805
3357.768459
3350.839418
3337.137799
3359.020157
3381.841288
3381.058977
3372.632369
3367.335006
3365.189238
3364.764555
3362.238808
3365.971549
3373.369977
3367.26795
3357.477886
3362.015291
3390.111433
3406.517614
3398.046303
3390.245544
3400.236774
3416.777064
3410.473872
3404.41655
3433.809094
3466.375585
3461.05587
3461.189981
3485.933362
3515.057685
3520.802083
3506.854595
3508.374513
3527.194682
3532.492045
3533.497874
3551.938063
3576.793203
3590.159546
3602.788282
3629.968003
3639.512198
3608.778549
3570.713528
3571.451136
3609.225584
3628.470436
3610.343171
3590.539526
3584.281037
3581.2412
3574.356863
3571.026453
3560.23056
3519.304516
3473.215219
3436.558358
3428.958765
3428.623489
3408.886899
3380.299017
3368.273779
3382.958875
3392.681884
3381.081329
3362.752898
3364.853962
3363.110526
3350.101811
3338.545959
3342.770439
3349.990052
3333.449761
3316.90947
3329.001764
3344.245654
3336.556654
3335.014383
3357.52259
3372.162982
3352.582854
3332.354526
3346.972566
3366.642102
3366.910323
3363.155229
3368.296131
3374.644026
3362.283511
3336.489598
3347.620767
3378.421471
3385.19405
3367.782041
3352.694613
3358.595474
3363.848134
3351.822895
3337.361316
3351.666433
3360.182447
3347.330194
3335.819046
3349.699479
3354.527456
3345.475
3335.751991
3342.613976
3345.072668
3328.107694
3314.450778
3325.49254
3352.515799
3359.377785
3335.707287
3328.599433
3343.798619
3355.421526
3353.387517
3349.721831
3347.441953
3342.815142
3328.82295
3330.789903
3352.515799
3365.300997
3351.688785
3328.979412
3327.526549
3337.428372
3321.178653
3295.943534
3328.711191
3359.914227
3349.341851
3309.309877
3304.973639
3337.651889
3360.47302
3368.474945
3376.074538
3390.692579
3410.585631
3397.934544
3385.954009
3381.081329
3364.429279
3339.820008
3326.207796
3338.233034
3351.331157
3341.965776
3315.635421
3303.900755
3291.562592
3271.267208
3253.341109
3258.638472
3279.403243
3276.54222
3268.562647
3279.067967
3302.582002
3301.576173
3276.050481
3269.747289
3274.016473
3310.829796
3389.843212
3461.234684
3601.558936
3815.599241
3988.892315
4031.114761
3963.45603
3699.280763
3408.842195
3191.270315
3160.782535
3294.311857
3394.782948
3423.63905
3407.992829
3363.378747
3308.259345
3271.647188
3278.710339
3305.331267
3312.1709
3309.041656
3313.109674
3330.007592
3335.975508
3310.807444
3296.815252
3294.691836
3310.986258
3310.963906
3307.409979
3326.967755
3344.022136
3333.315651
3311.232127
3320.441046
3344.513875
3351.577026
3344.670337
3346.860808
3363.982244
3372.565314
3354.818029
3357.723756
3386.311637
3410.138596
3411.926736
3408.193995
3418.811073
3432.043306
3425.829521
3419.347515
3443.263882
3472.07528
3470.443603
3464.118059
3486.670969
3508.128644
3511.391999
3510.475577
3533.83315
3559.962339
3559.537656
3560.655243
3593.959343
3622.189596
3617.026343
3594.138157
3591.120671
3612.75716
3616.668715
3572.836944
3542.572682
3542.237406
3548.272377
3507.391036
3460.452373
3438.748829
3431.126884
3408.104588
3380.701349
3378.488526
3387.652741
3365.278645
3329.739372
3325.984278
3338.501255
3326.565424
3295.138871
3300.480938
3320.172825
3316.238918
3288.612162
3276.251647
3293.261325
3291.495537
3277.525696
3285.348807
3308.438159
3319.032886
3293.46249
3273.21181
3289.528583
3305.130101
3298.804557
3281.325493
3287.852202
3299.497461
3288.053368
3270.037862
3297.17288
3334.701459
3317.93765
3268.741461
3258.370251
3273.502382
3275.357577
3262.952359
3268.719109
3290.534412
3283.828888
3260.180743
3258.146734
3280.811403
3287.718092
3267.757984
3248.423725
3254.302234
3268.540295
3259.554894
3253.452868
3262.617083
3283.046577
3276.966903
3259.443135
3255.799801
3276.229295
3268.517943
3248.647243
3254.659862
3271.110746
3262.952359
3247.060269
3249.027222
3269.300254
3278.352711
3258.191438
3239.013641
3256.202132
3278.486821
3276.67633
3253.452868
3256.537408
3276.117537
3269.970807
3245.517998
3238.857179
3256.224484
3256.157429
3241.762905
3245.830923
3268.070909
3268.60735
3252.759964
3253.832847
3270.730766
3279.470298
3286.488746
3311.567403
3340.892892
3343.753915
3330.119351
3323.19031
3334.07561
3335.707287
3318.451741
3290.422653
3288.500403
3278.129194
3264.494629
3248.379022
3250.033051
3256.313891
3245.182722
3230.54233
3245.585054
3264.986368
3252.424687
3231.481103
3240.198283
3264.964016
3269.344958
3243.863969
3230.072943
3234.878568
3242.656975
3287.69574
3384.769366
3464.0063
3578.983674
3770.627531
3948.703879
4046.649223
3982.678531
3692.84346
3400.437939
3209.911669
3200.523937
3300.168014
3358.081383
3390.692579
3382.958875
3339.395325
3306.359447
3314.026095
3331.482808
3317.356505
3291.048502
3302.157319
3343.910377
3358.260197
3340.624671
3329.113523
3349.587721
3360.182447
3353.387517
3340.87054
3356.874389
3378.175602
3378.265009
3371.581837
3380.053148
3395.364093
3403.634239
3411.345591
3431.797437
3457.59135
3452.226931
3430.121056
3438.458257
3464.721556
3484.994588
3487.877964
3497.131586
3523.081961
3537.096505
3538.817589
3543.779676
3561.482258
3579.788337
3578.268418
3588.550221
3615.081741
3631.622032
3625.542358
3613.78534
3629.766837
3653.839666
3658.958216
3661.752184
3680.92998
3712.512995
3721.766618
3724.270013
3740.877359
3755.584807
3754.556627
3743.336051
3729.567376
3724.761751
3700.264239
3668.949445
3650.30809
3641.501503
3628.828064
3602.676523
3574.356863
3561.303444
3542.729144
3515.683534
3503.345371
3504.060627
3504.150033
3500.305533
3492.929458
3500.104368
3508.821548
3481.753586
3442.705088
3437.497132
3464.118059
3483.720539
3473.505792
3467.426117
3484.88283
3499.724388
3485.732196
3465.79444
3467.224952
3478.289065
3473.036405
3472.052928
3497.399807
3509.067417
3487.31917
3470.935341
3481.194792
3495.991647
3487.654446
3466.397937
3467.671987
3482.826469
3485.441623
3467.537876
3458.261902
3473.170516
3490.873097
3485.285161
3468.856629
3465.950902
3466.956731
3448.695355
3445.074373
3467.381414
3478.110251
3458.150143
3444.403821
3455.400879
3466.777917
3457.747812
3451.534027
3469.482478
3479.361949
3464.38628
3447.197789
3448.851818
3454.149181
3453.657443
3450.371736
3464.498039
3490.426062
3485.687493
3453.836257
3448.002451
3453.925664
3443.353289
3427.796474
3429.02582
3453.121001
3468.23078
3456.18319
3443.666213
3462.307568
3472.298798
3458.016033
3441.743963
3459.64771
3503.859461
3526.121798
3507.413388
3503.702999
3520.533862
3517.248156
3486.268638
3461.100574
3484.145222
3495.701074
3468.521353
3450.751716
3453.590388
3435.150198
3406.674076
3382.243619
3400.080311
3418.229928
3410.1833
3403.65659
3413.826634
3418.632259
3403.723646
3377.862677
3388.032721
3415.413608
3417.201748
3399.856794
3405.288268
3488.928496
3578.201363
3650.084573
3770.269903
3986.210106
4108.742369
4089.139889
3928.587309
3646.798867
3408.216346
3259.599597
3305.398322
3440.469914
3508.665086
3502.31719
3467.001434
3447.175437
3443.174475
3431.372754
3415.95005
3420.845082
3446.884864
3445.901387
3416.620602
3413.580765
3433.987908
3430.188111
3417.157044
3415.05598
3428.89171
3437.452428
3428.131751
3429.4058
3442.034536
3445.096725
3428.243509
3423.862567
3450.818771
3471.851763
3467.739042
3465.459164
3494.136452
3502.56306
3480.323074
3457.524295
3477.171478
3510.073246
3512.151958
3503.792406
3527.373496
3579.676578
3594.339322
3564.924427
3556.989557
3583.968113
3600.039017
3583.364616
3572.188744
3599.681389
3626.481131
3614.366485
3604.464663
3619.507387
3638.729887
3629.632727
3623.977736
3639.936881
3663.339158
3667.183658
3654.53257
3668.077727
3684.170983
3659.628768
3628.850416
3612.712456
3594.942819
3563.918598
3528.356973
3514.275374
3517.94106
3496.371626
3453.210408
3430.702201
3439.464085
3440.156989
3429.91989
3417.693486
3411.703218
3407.299925
3384.389387
3356.986148
3354.035718
3364.205761
3358.215494
3335.595529
3338.389497
3365.993901
3391.407834
3377.77327
3371.403023
3371.35832
3365.412756
3342.233997
3337.763648
3359.176619
3370.955988
3359.400136
3346.547883
3358.126087
3366.597398
3355.645043
3348.42543
3370.643064
3376.499221
3355.332119
3340.043526
3348.604244
3358.237846
3339.820008
3327.884177
3348.000747
3367.960855
3362.507029
3337.40602
3326.364258
3333.650927
3331.326345
3318.69761
3306.694723
3316.0154
3330.208758
3315.769531
3305.174804
3312.953211
3324.643174
3315.970697
3303.744293
3312.327363
3313.914336
3307.879365
3304.079569
3319.815197
3346.436125
3341.339927
3310.561575
3313.668467
3339.752953
3371.671244
3391.340779
3368.430241
3365.368052
3367.51382
3351.331157
3333.583872
3329.71702
3324.799636
3299.922144
3274.776432
3285.237048
3291.048502
3263.108821
3247.4626
3262.214752
3280.00674
3268.584999
3229.625908
3235.616176
3256.805629
3255.956263
3239.013641
3245.607405
3262.393565
3268.316778
3252.134115
3239.483027
3255.397469
3301.062083
3357.030851
3415.123035
3553.972072
3777.824793
3928.922585
3939.763181
3841.259043
3556.564874
3280.364368
3104.769064
3142.588215
3278.933856
3337.271909
3346.279662
3351.845247
3330.454627
3296.949362
3277.413938
3281.951342
3300.950325
3294.043636
3275.089356
3271.893057
3291.316723
3293.551897
3275.245819
3272.45185
3297.82108
3316.082456
3303.140796
3292.367255
3318.138816
3342.010479
3317.200043
3291.003798
3311.5227
3338.255386
3329.71702
3317.311802
3329.426447
3351.621729
3357.455535
3344.826799
3359.735413
3396.772253
3409.66921
3392.234849
3395.140576
3431.529216
3453.031594
3437.050097
3428.355268
3451.422268
3477.797327
3472.052928
3465.235646
3497.533917
3528.602842
3526.501778
3515.527071
3530.927423
3550.127572
3558.107145
3552.608615
3555.626101
3575.407395
3583.856354
3572.054633
3579.430709
3597.37916
3580.838869
3548.451191
3535.308365
3541.946833
3520.600917
3489.554344
3461.05587
3454.216236
3462.173457
3443.979137
3396.459329
3366.217418
3358.953102
3348.604244
3334.544997
3340.535264
3356.583817
3363.535209
3342.502218
3326.00663
3319.2117
3307.477034
3303.163147
3312.327363
3324.710229
3311.030961
3299.497461
3303.118444
3334.947328
3352.851075
3348.827761
3344.893854
3353.253407
3345.519703
3319.457569
3304.280735
3320.217528
3339.015345
3331.818084
3318.652906
3326.878348
3339.216511
3324.039677
3305.197156
3311.65681
3334.45559
3332.868616
3321.849206
3331.214587
3342.077534
3328.487674
3302.716112
3296.211755
3318.027057
3333.896796
3324.173787
3315.344848
3320.642212
3331.996898
3318.988182
3300.816214
3310.092188
3325.827816
3317.445912
3304.414845
3315.680124
3331.236938
3314.786054
3287.583981
3301.53147
3331.482808
3317.982354
3296.547031
3295.407092
3327.012459
3339.261215
3322.653869
3312.282659
3310.11454
3308.415807
3306.582964
3324.017325
3346.525532
3346.63729
3307.767607
3290.824984
3323.257366
3362.730546
3359.467192
3337.696593
3346.525532
3379.628465
3383.629427
3362.507029
3346.50318
3346.994918
3328.30886
3298.938668
3286.466394
3300.436235
3297.485804
3283.091281
3283.828888
3297.530508
3281.996045
3254.726917
3245.786219
3262.035938
3277.302179
3260.627778
3249.630719
3266.394528
3291.674351
3285.013531
3253.22935
3258.236141
3339.529436
3424.868396
3497.735083
3660.276969
3895.976114
4038.66965
4046.425706
3896.221983
3607.102168
3354.415697
3178.798041
3200.859213
3332.689802
3400.393236
3404.438901
3373.012349
3335.081438
3313.132025
3293.797766
3285.549973
3296.703493
3317.155339
3321.178653
3309.935726
3321.469226
3332.913319
3317.177691
3297.754025
3306.538261
3338.925938
3357.679052
3353.521628
3352.135819
3348.783058
3332.421581
3308.371104
3323.19031
3359.780116
3373.369977
3359.288378
3356.583817
3369.011387
3377.996788
3375.158116
3375.33693
3404.170681
3426.634184
3418.565204
3412.664343
3442.638033
3477.84203
3487.676798
3473.148164
3466.912027
3481.351254
3504.664124
3513.962449
3522.590223
3553.346223
3563.248046
3543.265586
3542.863255
3562.219866
3566.824325
3559.492953
3580.503593
3622.904852
3640.227454
3615.171148
3587.298523
3585.0857
3588.706683
3580.570648
3558.241255
3546.484237
3550.976938
3547.311252
3520.131531
3484.88283
3446.996623
3409.333934
3368.005558
3361.545904
3385.126994
3379.606113
3357.030851
3349.095982
3373.28057
3380.0755
3348.380726
3315.188386
3320.888081
3333.04743
3320.418694
3303.051389
3315.948345
3341.004651
3341.518741
3338.009517
3341.138761
3352.627558
3345.296186
3324.330249
3327.772418
3355.08625
3356.382651
3324.240842
3309.756912
3321.625688
3328.085342
3319.323459
3316.39538
3331.818084
3347.553712
3349.140686
3348.112505
3354.303939
3353.700442
3327.437142
3304.884232
3316.753008
3333.069781
3327.92888
3331.885139
3357.164962
3361.948235
3332.019249
3299.273944
3304.437197
3323.838511
3321.491578
3309.980429
3309.332229
3341.406982
3358.103735
3344.178598
3327.638308
3333.025078
3339.820008
3326.565424
3312.953211
3322.519758
3342.412811
3345.184427
3345.787924
3345.184427
3338.389497
3316.440084
3296.882307
3293.194269
3319.390514
3326.476017
3321.379819
3322.67622
3327.951232
3323.346773
3311.232127
3317.982354
3355.399174
3384.590552
3370.955988
3358.997805
3380.790756
3398.023951
3382.780061
3361.36709
3374.062881
3375.649855
3334.030906
3292.255496
3288.835679
3296.368217
3280.833755
3266.17101
3270.440193
3280.990217
3271.758946
3253.162295
3255.576283
3272.898885
3271.446022
3253.408164
3255.91156
3272.429499
3281.236086
3274.23999
3260.895999
3313.333191
3413.178434
3462.776955
3555.246121
3779.277656
4008.092464
4075.81825
3975.078937
3688.61898
3415.346553
3210.448111
3170.19262
3289.528583
3389.351474
3413.290192
3372.230038
3327.92888
3314.249613
3304.906583
3279.939685
3275.938723
3302.738464
3319.949307
3319.278755
3324.196139
3345.832628
3360.227151
3340.267043
3333.963851
3356.159133
3364.876314
3353.432221
3337.987165
3366.016253
3395.274686
3385.171698
3361.232979
3365.993901
3392.301904
3402.024913
3403.589535
3410.853852
3432.244472
3426.656535
3413.111378
3426.835349
3465.168591
3491.945981
3496.505737
3502.965391
3522.478464
3541.119819
3528.111104
3520.466807
3560.565836
3599.05554
3579.229543
3559.269435
3577.128479
3616.624012
3636.047678
3632.449047
3644.116657
3668.167134
3669.485887
3661.595721
3668.591817
3692.307018
3699.794853
3688.529574
3692.038797
3711.216594
3708.042646
3678.739509
3652.47621
3639.780419
3625.855282
3596.686256
3571.831116
3559.090621
3545.791333
3515.169444
3487.45328
3485.575734
3495.812833
3470.801231
3433.049134
3431.238643
3457.993681
3460.430021
3432.266823
3415.681829
3426.388315
3437.273614
3440.872245
3434.367887
3444.046193
3444.336765
3438.234739
3435.753695
3453.322167
3471.583542
3464.38628
3457.658405
3473.595199
3477.394995
3458.932454
3440.42521
3440.984004
3460.564132
3465.123888
3451.735193
3461.43585
3472.723481
3459.826524
3435.194902
3433.652631
3455.199713
3449.969405
3424.868396
3416.262974
3431.417457
3441.676908
3428.444675
3424.644878
3449.678832
3467.739042
3463.805135
3429.070524
3417.738189
3420.912137
3421.023896
3434.189073
3447.331899
3439.39703
3408.618678
3386.311637
3406.182338
3450.327033
3446.884864
3399.633276
3373.41468
3391.541945
3415.637125
3433.607928
3440.9393
3450.148219
3460.206504
3446.281367
3434.591405
3442.705088
3446.147257
3431.19394
3429.294041
3452.539856
3472.164687
3457.032556
3437.899463
3439.218216
3469.281312
3475.070414
3457.412536
3464.38628
3503.233612
3515.951755
3490.046083
3460.653539
3455.6691
3453.590388
3440.156989
3420.576861
3414.0278
3409.28923
3402.203727
3394.268858
3399.320352
3409.691561
3402.047265
3398.761558
3408.26105
3418.855777
3407.568146
3386.624561
3392.972457
3417.693486
3411.546756
3390.558468
3405.198861
3490.381359
3565.639682
3607.392741
3731.400219
3977.761147
4133.329288
4110.754026
3955.901141
3682.181678
3437.407725
3271.870705
3291.450833
3415.145387
3487.743853
3504.865289
3480.635998
3451.221103
3429.517559
3411.21148
3397.733378
3416.419437
3441.252225
3453.433925
3440.112286
3442.660384
3454.77503
3447.73423
3419.861605
3420.241585
3457.300777
3460.787649
3438.458257
3437.832408
3464.408632
3476.635036
3458.083088
3441.989832
3463.268693
3491.476594
3477.551458
3454.372699
3458.127792
3482.670007
3489.464937
3487.967371
3499.590278
3513.940098
3518.656316
3510.654391
3515.50472
3535.174255
3550.216979
3546.148961
3552.787429
3560.878761
3575.317988
3567.740746
3570.199438
3597.490918
3616.311087
3608.577384
3611.237241
3628.604547
3642.239111
3638.461666
3636.248843
3662.825067
3678.963027
3665.395518
3645.390707
3642.239111
3650.710422
3638.282852
3609.136177
3583.16345
3572.434613
3567.204305
3560.319967
3539.711659
3515.63883
3493.957638
3469.191905
3449.90235
3443.599158
3441.006355
3419.369867
3392.056035
3392.994808
3403.298963
3392.50307
3378.041491
3387.205707
3397.040474
3382.020102
