Detector 2,,,,,,,,Detector 4,,,,,,,,Detector 6,,,,,,,,Detector 8,,,,,,,,Detector 10,,,,,,,,Detector 12,,,,,,,,Detector 14,,,,,,,,Detector 16,,,,,,,
"RED1,2,3,4","IR1,2,3,4 ","RED5,6,7,8","IR5,6,7,8 ","RED9,10,11,12","IR9,10,11,12 ","RED13,14,15,16","IR13,14,15,16 ","RED1,2,3,4","IR1,2,3,4 ","RED5,6,7,8","IR5,6,7,8 ","RED9,10,11,12","IR9,10,11,12 ","RED13,14,15,16","IR13,14,15,16 ","RED1,2,3,4","IR1,2,3,4 ","RED5,6,7,8","IR5,6,7,8 ","RED9,10,11,12","IR9,10,11,12 ","RED13,14,15,16","IR13,14,15,16 ","RED1,2,3,4","IR1,2,3,4 ","RED5,6,7,8","IR5,6,7,8 ","RED9,10,11,12","IR9,10,11,12 ","RED13,14,15,16","IR13,14,15,16 ","RED1,2,3,4","IR1,2,3,4 ","RED5,6,7,8","IR5,6,7,8 ","RED9,10,11,12","IR9,10,11,12 ","RED13,14,15,16","IR13,14,15,16 ","RED1,2,3,4","IR1,2,3,4 ","RED5,6,7,8","IR5,6,7,8 ","RED9,10,11,12","IR9,10,11,12 ","RED13,14,15,16","IR13,14,15,16 ","RED1,2,3,4","IR1,2,3,4 ","RED5,6,7,8","IR5,6,7,8 ","RED9,10,11,12","IR9,10,11,12 ","RED13,14,15,16","IR13,14,15,16 ","RED1,2,3,4","IR1,2,3,4 ","RED5,6,7,8","IR5,6,7,8 ","RED9,10,11,12","IR9,10,11,12 ","RED13,14,15,16","IR13,14,15,16 "
299,2386,178,155,155,157,155,152,1406,10727,279,159,156,155,155,152,1786,10053,303,219,196,195,193,201,4373,24878,458,185,169,166,164,165,397,414,29221,25892,29467,24195,710,414,437,569,28579,24797,25151,24898,721,465,455,3778,12199,15750,26418,27520,31439,14747,1720,11472,19400,21385,31003,33015,29660,28777
297,2391,175,157,156,152,157,155,1393,10784,277,157,161,156,154,158,1768,10068,305,221,196,197,197,198,4328,24934,457,190,170,167,166,166,402,422,29272,25967,29509,24256,714,419,444,570,28618,24843,25159,24921,722,464,649,3795,12220,15789,26446,27567,31462,14762,2024,11514,19430,21436,31023,33048,29676,28813
293,2391,179,159,157,155,152,153,1397,10837,281,162,159,155,153,151,1773,10089,305,220,195,198,195,193,4331,24988,459,187,167,170,169,166,403,420,29313,26032,29548,24324,714,417,445,573,28649,24893,25161,24943,725,465,654,3806,12233,15828,26474,27619,31485,14780,2026,11538,19446,21490,31036,33093,29688,28847
298,2401,175,157,155,155,153,153,1403,10886,283,163,157,156,159,154,1772,10109,304,220,199,200,197,199,4335,25050,458,187,174,177,164,169,403,427,29362,26117,29591,24383,717,417,446,574,28699,24960,25178,24981,725,464,654,3816,12249,15868,26507,27671,31508,14794,2030,11576,19477,21560,31059,33135,29721,28888
294,2396,176,155,156,157,153,156,1398,10828,280,162,154,155,155,155,1777,10115,306,219,196,193,195,193,4349,25086,463,188,168,166,165,168,404,421,29372,26066,29559,24266,713,415,445,576,28700,24942,25183,24941,724,464,655,3811,12257,15821,26525,27619,31521,14783,2034,11573,19525,21539,31043,33065,29744,28819
293,2391,174,160,155,155,155,154,1389,10690,278,159,153,159,154,159,1774,10075,304,221,197,197,198,195,4349,24990,458,189,174,165,166,163,402,418,29289,25941,29498,24167,712,415,447,576,28652,24860,25145,24850,725,463,652,3793,12234,15771,26508,27579,31515,14776,2027,11492,19471,21433,31005,32981,29705,28766
293,2387,176,155,155,155,155,154,1386,10667,278,159,158,155,154,155,1775,10069,306,215,196,196,196,196,4349,24974,460,187,172,168,165,165,402,417,29261,25903,29471,24124,710,413,444,573,28627,24815,25104,24785,723,463,654,3787,12231,15761,26503,27560,31509,14775,2026,11449,19444,21391,30970,32914,29682,28741
293,2390,173,158,154,155,156,158,1385,10679,277,156,157,155,151,153,1776,10071,304,218,195,201,195,196,4350,24975,459,188,171,169,167,166,403,422,29264,25921,29485,24151,712,415,444,572,28623,24808,25071,24755,724,464,653,3791,12225,15777,26514,27588,31510,14777,2025,11432,19429,21388,30943,32891,29667,28755
296,2392,180,155,155,154,154,154,1387,10714,279,159,154,159,155,155,1776,10086,304,219,196,202,196,197,4351,25022,462,186,169,171,165,165,402,417,29277,25957,29498,24171,711,414,443,571,28623,24823,25049,24731,722,463,653,3796,12236,15801,26523,27611,31520,14786,2025,11445,19431,21405,30913,32863,29665,28753
291,2394,175,155,155,154,151,156,1389,10731,277,160,153,158,154,152,1777,10094,303,219,198,194,198,196,4356,25049,458,186,173,161,167,165,402,419,29296,25981,29512,24201,712,416,444,571,28623,24828,25015,24709,721,462,657,3802,12245,15820,26533,27638,31531,14793,2028,11449,19430,21417,30879,32841,29655,28768
294,2398,175,155,156,155,152,156,1397,10771,280,161,158,157,153,159,1777,10111,305,221,198,196,195,197,4357,25094,462,189,173,169,169,166,401,419,29311,26029,29542,24261,713,416,444,578,28635,24858,24992,24717,725,463,655,3811,12256,15856,26551,27687,31549,14800,2027,11466,19424,21446,30859,32846,29651,28791
294,2399,179,155,155,155,157,157,1397,10816,278,159,160,155,154,155,1778,10131,306,221,197,198,196,196,4363,25152,458,187,168,160,167,166,403,420,29354,26096,29584,24323,716,418,447,573,28668,24907,24992,24729,723,465,655,3821,12270,15890,26587,27743,31567,14818,2028,11488,19445,21493,30865,32867,29665,28828
294,2403,179,153,157,153,154,154,1401,10871,282,159,154,155,156,155,1781,10155,306,220,197,199,198,197,4365,25201,463,187,170,168,166,163,404,420,29398,26169,29629,24388,717,416,447,573,28697,24966,24998,24765,725,463,658,3831,12282,15929,26623,27798,31583,14837,2031,11515,19462,21546,30873,32907,29673,28858
297,2410,175,158,154,153,155,154,1403,10914,283,157,158,158,159,159,1785,10173,305,220,197,197,197,197,4369,25260,461,191,169,171,165,163,402,421,29443,26237,29662,24445,720,419,444,574,28734,25024,25003,24795,725,463,659,3845,12307,15965,26647,27849,31613,14851,2034,11550,19475,21600,30882,32943,29693,28890
295,2410,175,156,158,158,153,153,1402,10843,281,159,158,159,154,155,1789,10189,308,224,196,201,196,197,4382,25285,465,188,169,167,170,170,407,426,29431,26167,29623,24316,720,420,447,576,28747,25008,25011,24747,729,465,659,3836,12302,15912,26670,27799,31617,14839,2032,11548,19533,21587,30856,32865,29713,28815
294,2405,178,155,155,155,154,153,1388,10719,280,163,160,156,156,158,1788,10156,305,220,197,198,199,196,4375,25181,460,188,167,168,169,165,408,423,29331,26031,29557,24223,717,417,447,573,28687,24920,24968,24668,722,463,658,3814,12282,15865,26657,27764,31611,14835,2030,11467,19465,21480,30813,32777,29668,28765
295,2404,175,159,157,154,153,154,1385,10687,281,161,159,157,151,153,1789,10152,305,220,197,201,197,196,4375,25141,462,186,169,170,171,166,405,419,29303,25989,29539,24179,715,415,444,571,28654,24870,24927,24596,723,463,656,3805,12278,15852,26641,27727,31620,14841,2027,11423,19437,21430,30774,32709,29636,28727
297,2414,176,160,155,155,153,153,1386,10678,278,157,157,154,155,156,1787,10163,307,221,197,198,197,201,4370,25121,458,188,169,169,166,169,403,417,29323,26011,29542,24201,712,415,445,570,28635,24854,24883,24553,720,462,657,3795,12305,15902,26597,27707,31641,14854,2026,11399,19422,21425,30741,32679,29603,28725
295,2423,173,156,155,153,153,153,1388,10721,278,160,157,155,156,155,1790,10196,308,219,197,197,199,197,4366,25163,463,187,172,168,166,161,401,420,29383,26082,29556,24227,712,414,444,571,28643,24868,24860,24533,720,461,655,3789,12333,15950,26588,27717,31657,14866,2024,11413,19426,21457,30719,32665,29597,28733
295,2427,174,155,154,154,151,151,1387,10735,278,166,158,153,155,155,1796,10212,305,220,196,198,198,199,4369,25187,460,187,167,169,166,167,401,418,29417,26121,29578,24257,713,415,442,570,28638,24874,24814,24505,720,462,659,3790,12347,15974,26596,27737,31671,14875,2027,11415,19423,21469,30671,32622,29580,28733
298,2427,176,158,154,157,153,153,1390,10769,280,162,157,159,155,156,1794,10231,303,220,198,197,198,197,4372,25231,465,187,169,165,167,165,400,415,29437,26161,29618,24314,715,415,443,570,28647,24906,24791,24500,720,462,656,3799,12347,15993,26620,27791,31674,14885,2026,11429,19423,21495,30643,32622,29574,28760
292,2429,177,155,153,158,153,153,1392,10815,278,160,158,154,159,159,1797,10249,307,221,196,200,196,197,4375,25287,461,187,165,172,165,164,402,419,29465,26227,29656,24381,716,414,443,571,28679,24952,24783,24519,721,462,659,3813,12350,16014,26667,27859,31695,14901,2030,11452,19440,21543,30637,32639,29572,28783
295,2431,172,159,155,153,157,157,1399,10862,284,161,157,155,158,158,1800,10278,312,222,200,198,200,199,4383,25345,465,186,172,168,167,157,402,422,29505,26291,29701,24449,721,416,444,572,28702,25003,24777,24537,722,463,659,3828,12362,16046,26709,27933,31708,14911,2029,11480,19454,21584,30634,32673,29575,28813
299,2434,175,155,157,154,153,155,1399,10903,280,161,157,156,156,156,1802,10304,307,228,197,197,197,197,4385,25416,463,187,169,168,168,165,402,419,29551,26355,29751,24511,719,416,444,575,28741,25058,24779,24565,723,463,662,3839,12382,16087,26745,27990,31733,14925,2032,11511,19471,21640,30640,32695,29599,28842
297,2437,178,156,155,155,156,153,1397,10834,281,164,158,155,157,155,1807,10310,309,221,197,197,200,198,4400,25431,467,188,172,167,170,167,403,424,29539,26285,29714,24399,717,413,445,573,28731,25020,24774,24513,721,463,663,3830,12383,16038,26768,27940,31745,14921,2031,11503,19511,21608,30615,32622,29600,28769
296,2433,175,155,155,154,154,154,1388,10738,279,161,157,157,158,158,1809,10285,306,220,196,198,195,197,4395,25340,462,187,175,169,164,165,399,419,29479,26191,29675,24327,714,414,445,571,28695,24966,24742,24450,720,462,659,3811,12371,15997,26755,27912,31745,14923,2033,11437,19459,21527,30569,32551,29556,28724
294,2429,171,158,157,157,155,153,1385,10709,282,164,154,157,152,151,1808,10289,307,219,195,198,197,197,4397,25316,464,187,169,166,162,165,401,417,29448,26150,29665,24290,714,412,444,573,28679,24937,24705,24393,721,463,659,3809,12369,15987,26767,27917,31752,14926,2030,11399,19434,21495,30539,32489,29529,28698
298,2432,176,155,158,154,158,153,1387,10718,276,163,156,154,154,158,1808,10295,311,221,200,197,197,196,4399,25317,462,186,170,169,167,163,399,420,29450,26167,29691,24331,715,413,445,568,28683,24954,24670,24365,720,462,661,3811,12370,16004,26787,27955,31763,14934,2028,11384,19425,21501,30515,32477,29500,28708
298,2434,176,156,154,154,153,155,1387,10753,279,160,161,157,155,155,1811,10323,309,221,196,199,197,199,4401,25369,465,186,169,166,163,167,400,418,29481,26210,29714,24365,715,412,444,570,28699,24985,24643,24342,719,462,660,3823,12382,16036,26816,27991,31772,14945,2029,11401,19439,21534,30494,32460,29491,28711
301,2437,178,155,156,154,155,153,1391,10773,279,160,161,155,155,155,1815,10336,309,221,197,198,201,197,4401,25400,463,187,174,167,168,165,401,419,29499,26242,29743,24412,714,413,443,570,28711,25010,24602,24323,719,460,661,3828,12393,16062,26838,28035,31785,14957,2034,11413,19437,21549,30467,32445,29474,28723
297,2436,177,156,155,157,156,156,1391,10807,279,157,157,159,160,158,1814,10358,309,219,198,197,198,198,4403,25436,466,186,174,167,162,167,399,416,29523,26291,29792,24471,718,415,445,574,28730,25045,24575,24324,719,462,660,3839,12400,16095,26877,28103,31799,14967,2029,11429,19437,21587,30450,32449,29467,28746
295,2443,177,155,154,154,155,153,1397,10856,280,164,158,160,156,155,1818,10379,309,221,197,198,200,199,4405,25494,464,186,170,167,168,171,398,417,29569,26362,29835,24540,715,413,440,571,28762,25103,24565,24339,719,462,664,3855,12412,16123,26929,28175,31817,14979,2034,11454,19455,21636,30446,32476,29465,28769
297,2441,173,157,153,155,156,156,1403,10903,285,158,157,160,156,158,1819,10406,309,221,198,197,198,201,4411,25555,468,186,170,177,172,165,401,418,29604,26423,29892,24612,719,416,444,571,28789,25155,24551,24357,721,463,665,3867,12421,16153,26975,28241,31836,14993,2037,11483,19465,21679,30440,32497,29473,28801
295,2447,175,156,154,154,156,154,1404,10949,281,161,157,158,156,159,1824,10429,315,220,198,199,198,196,4414,25614,466,187,174,169,169,163,404,419,29647,26494,29942,24693,718,414,444,571,28822,25215,24549,24390,721,463,667,3881,12435,16188,27023,28319,31853,15007,2038,11519,19479,21728,30451,32539,29483,28834
297,2448,175,155,155,158,154,155,1405,10967,282,162,157,156,154,157,1826,10455,313,220,200,199,196,198,4423,25686,471,191,172,160,163,156,401,419,29675,26509,29953,24657,719,415,445,574,28836,25238,24559,24393,723,462,667,3891,12455,16194,27091,28340,31874,15007,2039,11546,19521,21773,30450,32524,29541,28810
299,2446,176,157,156,155,156,154,1392,10811,277,159,157,160,156,156,1827,10427,313,222,197,198,197,198,4433,25599,466,185,169,167,167,165,399,417,29603,26363,29890,24539,718,412,445,572,28789,25163,24542,24335,723,461,667,3871,12429,16105,27076,28289,31873,15008,2038,11479,19499,21659,30423,32456,29505,28767
297,2443,172,156,154,158,153,155,1390,10781,282,159,157,158,153,155,1827,10421,311,224,198,196,197,198,4430,25554,469,187,171,167,165,165,399,416,29563,26311,29876,24502,716,412,443,570,28761,25128,24513,24300,723,462,664,3870,12417,16086,27081,28284,31871,15006,2032,11438,19454,21605,30395,32415,29474,28741
296,2438,179,156,154,155,155,155,1388,10765,277,160,157,156,155,153,1830,10420,311,221,197,199,198,198,4427,25533,465,187,173,167,171,165,399,415,29548,26291,29884,24512,713,412,444,571,28749,25116,24483,24271,718,464,666,3868,12416,16082,27090,28301,31881,15014,2039,11418,19433,21584,30376,32396,29446,28738
297,2442,175,155,154,158,154,157,1396,10801,280,160,157,156,154,157,1828,10435,311,221,200,198,197,200,4424,25560,469,189,171,167,174,165,399,418,29562,26327,29925,24566,716,413,446,570,28762,25158,24454,24268,720,462,666,3881,12419,16118,27115,28351,31894,15023,2037,11433,19424,21613,30365,32397,29444,28753
295,2442,178,156,156,157,154,157,1394,10810,279,159,157,152,157,156,1831,10450,313,222,196,199,197,198,4433,25597,466,188,169,172,172,167,402,415,29579,26349,29950,24599,715,413,443,572,28770,25168,24429,24263,718,464,668,3889,12434,16139,27137,28389,31903,15035,2036,11441,19433,21629,30344,32388,29431,28757
297,2445,175,159,156,158,157,153,1396,10832,281,160,156,159,159,155,1833,10468,311,220,196,198,199,198,4434,25624,469,186,171,169,167,164,399,417,29591,26383,29989,24654,721,414,444,576,28775,25195,24408,24272,719,463,670,3893,12442,16165,27159,28429,31917,15042,2036,11458,19425,21648,30332,32400,29415,28772
296,2452,176,160,155,154,155,157,1396,10874,280,158,160,159,155,152,1838,10491,309,225,198,198,201,198,4433,25666,468,189,171,168,169,163,400,422,29621,26439,30028,24714,719,413,445,571,28793,25240,24404,24295,721,464,669,3904,12450,16195,27195,28489,31929,15054,2045,11483,19430,21685,30337,32429,29419,28805
298,2451,176,156,154,154,154,153,1400,10915,283,163,161,159,155,155,1835,10511,312,222,196,198,197,198,4435,25710,471,190,170,172,165,166,402,416,29666,26501,30073,24782,721,414,447,573,28810,25285,24403,24325,722,463,670,3916,12459,16223,27233,28547,31945,15066,2045,11509,19436,21721,30343,32455,29428,28836
295,2457,175,159,158,156,153,153,1403,10959,281,160,156,156,157,155,1839,10535,310,225,198,201,197,198,4435,25759,468,190,169,169,169,166,403,419,29698,26565,30121,24850,721,414,445,575,28840,25338,24413,24371,721,463,671,3929,12476,16257,27267,28611,31955,15079,2045,11541,19449,21767,30358,32509,29435,28874
299,2459,174,155,155,157,154,152,1404,10966,283,160,159,158,155,152,1844,10550,314,221,198,198,197,198,4449,25827,473,191,170,167,164,167,400,419,29712,26549,30121,24798,721,412,446,573,28847,25349,24428,24371,724,465,672,3938,12492,16247,27318,28609,31975,15076,2044,11561,19506,21813,30361,32493,29496,28850
300,2453,175,157,153,158,153,156,1393,10830,280,161,158,155,159,153,1842,10521,310,222,196,201,196,197,4449,25720,468,188,170,170,163,166,400,417,29629,26411,30067,24704,719,414,447,573,28795,25266,24414,24335,722,465,669,3919,12468,16175,27292,28562,31977,15075,2043,11497,19467,21699,30348,32447,29455,28814
297,2451,176,155,159,154,153,155,1391,10793,281,163,155,157,152,155,1840,10513,312,222,197,198,197,197,4444,25665,472,189,166,173,170,169,401,417,29591,26353,30059,24677,719,413,448,571,28765,25237,24406,24315,721,463,671,3915,12453,16150,27287,28546,31975,15076,2042,11468,19426,21650,30341,32429,29430,28795
297,2448,175,156,158,154,156,154,1390,10782,278,164,156,159,156,158,1842,10511,309,220,199,197,197,197,4439,25627,467,187,169,169,164,164,398,418,29578,26343,30070,24703,721,413,445,571,28756,25233,24391,24315,722,463,671,3912,12453,16154,27288,28564,31981,15085,2039,11449,19403,21633,30337,32437,29400,28810
299,2452,176,159,155,153,153,154,1391,10815,281,171,155,159,156,155,1846,10528,312,222,197,198,199,198,4437,25645,469,187,178,170,167,163,398,417,29603,26383,30097,24740,720,411,445,573,28762,25259,24383,24326,722,464,672,3923,12455,16179,27313,28602,31989,15095,2041,11470,19400,21659,30333,32458,29415,28829
298,2456,175,160,156,155,156,154,1393,10820,279,157,157,157,156,156,1845,10542,313,222,197,197,197,197,4437,25657,467,190,169,168,163,167,399,418,29607,26394,30112,24771,722,412,446,571,28756,25275,24375,24339,723,462,670,3927,12462,16194,27330,28631,31995,15098,2044,11480,19394,21666,30327,32459,29401,28844
298,2456,175,159,155,157,155,153,1393,10844,281,162,158,155,156,152,1847,10555,313,221,198,199,200,199,4433,25659,472,187,174,166,167,168,399,419,29615,26423,30145,24823,727,418,445,572,28770,25314,24374,24363,721,465,671,3938,12459,16209,27358,28687,31995,15108,2042,11498,19389,21689,30323,32496,29401,28869
298,2456,175,155,157,157,155,155,1399,10871,280,162,157,153,159,156,1849,10577,311,223,200,199,197,199,4431,25681,467,189,169,173,172,170,405,423,29626,26455,30183,24878,728,421,446,575,28803,25362,24374,24398,722,464,673,3947,12466,16231,27398,28749,32007,15115,2044,11519,19393,21723,30336,32535,29410,28899
302,2461,176,155,155,157,152,156,1397,10917,280,159,162,160,153,159,1850,10598,313,223,197,199,197,201,4432,25712,471,188,180,170,169,165,404,425,29639,26493,30218,24938,728,419,446,574,28809,25395,24389,24435,727,464,673,3959,12471,16258,27425,28797,32015,15120,2045,11550,19394,21756,30350,32587,29423,28936
299,2463,175,155,155,155,152,156,1401,10945,280,161,156,154,155,151,1854,10611,313,222,198,202,198,197,4432,25750,468,188,173,172,165,165,402,422,29674,26549,30253,25002,727,418,446,575,28827,25440,24409,24487,723,466,675,3966,12483,16285,27452,28844,32030,15134,2049,11580,19406,21799,30377,32650,29441,28975
298,2469,176,159,156,154,154,152,1404,10984,283,158,153,157,155,153,1853,10630,313,221,198,199,197,198,4433,25791,473,187,165,168,166,168,406,422,29711,26605,30280,25034,727,415,448,577,28847,25489,24438,24538,727,466,676,3975,12493,16309,27476,28880,32047,15141,2052,11613,19429,21843,30411,32711,29521,29021
301,2466,175,157,155,152,154,153,1394,10855,280,160,160,157,154,157,1859,10615,311,223,196,199,198,197,4445,25748,469,186,170,164,167,166,402,421,29666,26455,30205,24870,724,415,445,579,28803,25411,24454,24507,724,465,675,3955,12495,16223,27447,28775,32053,15135,2051,11579,19481,21789,30399,32654,29511,28943
300,2461,176,159,155,154,154,152,1386,10778,279,168,156,156,156,150,1856,10598,314,221,202,199,197,197,4431,25621,471,187,173,167,165,167,399,417,29595,26354,30161,24809,722,413,447,573,28751,25343,24444,24488,725,467,670,3940,12466,16170,27408,28721,32047,15130,2045,11522,19395,21686,30386,32630,29479,28911
304,2459,178,154,155,154,156,155,1383,10730,279,159,160,160,153,159,1855,10584,311,221,196,197,198,198,4421,25527,465,186,171,169,165,164,398,419,29554,26278,30143,24759,720,414,446,573,28709,25284,24436,24468,723,464,673,3931,12451,16135,27393,28686,32041,15129,2043,11484,19349,21615,30387,32613,29455,28891
297,2457,176,157,155,153,153,154,1382,10717,278,158,158,156,156,155,1854,10577,315,225,199,197,199,198,4413,25463,471,188,166,168,167,164,398,417,29526,26260,30150,24790,719,411,445,573,28677,25265,24426,24474,724,463,675,3934,12441,16141,27379,28702,32037,15134,2043,11473,19300,21579,30381,32619,29429,28900
298,2459,176,157,154,154,153,154,1385,10723,276,160,158,156,158,155,1853,10583,311,221,198,198,196,197,4410,25453,465,181,172,167,165,168,399,416,29525,26257,30148,24796,719,412,448,572,28662,25255,24421,24478,724,463,673,3941,12451,16152,27379,28705,32030,15133,2045,11487,19298,21582,30377,32629,29431,28908
301,2460,175,155,154,156,154,154,1383,10725,274,159,157,153,156,155,1853,10587,311,221,197,197,197,197,4403,25423,467,188,168,169,166,166,397,416,29520,26254,30158,24814,720,411,444,573,28640,25247,24414,24494,723,463,673,3940,12454,16167,27364,28707,32033,15137,2044,11492,19277,21572,30371,32645,29423,28922
294,2463,177,153,155,147,155,156,1384,10744,279,163,157,158,152,158,1852,10591,310,222,197,197,197,198,4396,25413,462,187,173,164,167,166,398,420,29530,26283,30173,24853,723,413,448,573,28639,25267,24424,24527,725,466,673,3945,12459,16186,27362,28721,32037,15144,2046,11508,19269,21584,30388,32684,29425,28949
297,2470,175,155,155,155,153,156,1385,10764,280,159,155,156,155,157,1855,10600,314,222,197,198,198,197,4389,25417,467,189,169,167,167,167,399,418,29557,26325,30189,24890,723,414,446,575,28641,25297,24438,24572,725,464,675,3952,12467,16215,27357,28734,32043,15152,2045,11531,19269,21609,30403,32733,29433,28973
299,2468,175,155,157,155,154,156,1385,10792,275,159,157,153,155,151,1856,10614,313,220,197,197,197,197,4387,25428,465,188,169,168,169,166,399,418,29587,26370,30201,24935,723,414,443,575,28661,25337,24457,24614,725,465,673,3959,12469,16233,27363,28759,32041,15159,2050,11555,19271,21639,30428,32783,29448,29010
299,2471,175,155,154,153,153,154,1389,10822,281,160,157,156,155,151,1854,10621,313,222,198,199,199,198,4384,25442,467,187,170,169,167,167,401,418,29613,26418,30215,24983,725,412,447,580,28677,25380,24482,24660,726,464,673,3967,12477,16251,27367,28787,32050,15168,2046,11582,19285,21677,30457,32847,29462,29046
298,2472,176,157,155,155,152,154,1388,10853,278,159,156,160,155,159,1858,10635,312,221,198,197,198,197,4379,25466,465,187,174,168,166,165,401,419,29647,26455,30219,24984,725,409,447,578,28699,25422,24515,24705,726,465,678,3973,12483,16266,27393,28804,32058,15168,2050,11611,19307,21726,30487,32895,29561,29082
296,2469,180,159,154,154,154,155,1381,10711,280,162,158,155,156,155,1856,10597,314,221,197,199,198,197,4386,25374,467,187,170,168,165,169,401,419,29563,26277,30125,24807,721,413,447,576,28631,25314,24532,24671,726,465,673,3953,12467,16163,27327,28659,32041,15154,2046,11563,19331,21627,30470,32822,29511,28999
297,2467,179,159,157,151,156,154,1371,10627,276,158,155,157,153,156,1853,10551,311,222,199,197,197,196,4369,25234,461,189,170,173,166,166,398,417,29488,26154,30069,24718,721,410,446,574,28574,25221,24523,24638,726,464,673,3935,12449,16113,27261,28566,32032,15141,2044,11511,19242,21511,30461,32788,29475,28954
298,2462,179,156,155,155,157,153,1369,10569,277,163,157,157,159,154,1847,10525,311,221,200,200,201,198,4356,25102,462,191,173,170,166,166,398,416,29406,26047,30022,24648,725,415,445,574,28519,25139,24514,24616,723,463,671,3921,12426,16061,27214,28503,32004,15131,2039,11465,19183,21423,30449,32759,29439,28924
301,2460,175,159,147,151,155,155,1365,10550,275,157,159,156,156,153,1846,10509,312,223,198,197,200,199,4343,25019,458,191,170,165,171,165,403,421,29363,26003,30011,24660,725,415,445,573,28505,25127,24505,24626,726,467,670,3921,12408,16053,27206,28514,31977,15121,2039,11451,19138,21385,30455,32772,29418,28936
297,2459,176,159,158,156,153,154,1367,10555,276,164,157,159,153,158,1848,10512,313,221,197,198,198,201,4340,25004,461,187,170,168,168,166,403,421,29313,25960,30001,24652,723,418,447,575,28477,25097,24506,24629,727,464,671,3926,12399,16045,27200,28505,31962,15113,2038,11458,19119,21377,30449,32775,29415,28935
298,2459,176,159,156,154,155,154,1367,10554,275,157,157,155,154,158,1845,10507,311,222,195,199,197,197,4332,24962,458,190,164,169,165,164,405,421,29292,25946,29990,24663,724,415,447,571,28451,25076,24505,24644,725,463,671,3929,12399,16053,27171,28488,31947,15115,2039,11463,19100,21366,30442,32795,29407,28948
297,2461,175,157,156,157,153,155,1367,10571,277,160,161,160,152,158,1843,10506,312,218,195,197,197,198,4327,24951,462,186,169,169,171,166,403,419,29295,25976,29997,24689,721,415,446,572,28449,25087,24522,24682,725,463,669,3931,12407,16074,27140,28481,31937,15117,2038,11478,19089,21379,30459,32835,29406,28967
297,2460,175,156,153,157,157,156,1370,10600,276,161,154,155,152,159,1843,10512,309,217,199,201,197,198,4322,24949,457,187,176,185,165,167,399,417,29325,26015,30011,24733,725,414,448,576,28462,25116,24543,24729,726,465,672,3935,12417,16095,27126,28491,31931,15121,2041,11502,19093,21405,30487,32884,29415,28991
298,2462,178,157,153,155,154,153,1371,10635,276,164,157,151,155,158,1842,10519,310,215,197,198,197,197,4315,24962,459,186,169,168,166,167,400,418,29354,26059,30031,24773,721,413,446,576,28476,25151,24569,24771,724,464,669,3936,12424,16123,27111,28490,31931,15123,2039,11529,19110,21446,30513,32948,29429,29027
298,2465,175,155,151,157,153,156,1375,10675,279,168,157,154,155,157,1841,10519,310,222,197,199,199,197,4311,24973,461,186,170,171,166,165,399,419,29386,26107,30053,24827,721,413,446,573,28503,25195,24597,24823,724,465,669,3941,12431,16148,27107,28511,31927,15129,2041,11555,19131,21495,30553,33008,29442,29060
298,2467,175,156,155,153,154,156,1378,10717,280,160,157,156,156,157,1843,10531,312,221,198,198,197,197,4308,24999,462,189,169,169,166,166,401,416,29421,26165,30078,24862,722,414,447,576,28531,25252,24631,24880,727,464,670,3948,12435,16163,27117,28548,31925,15126,2042,11583,19155,21546,30595,33090,29496,29111
298,2461,177,159,159,155,157,156,1374,10625,276,158,157,160,155,152,1843,10511,311,221,198,197,196,196,4320,24983,457,191,166,167,166,166,398,416,29395,26043,29994,24692,720,411,446,575,28507,25188,24660,24856,729,465,670,3940,12427,16071,27105,28442,31909,15105,2043,11569,19224,21514,30583,33031,29507,29033
297,2456,181,155,153,154,156,158,1363,10511,277,160,157,159,160,155,1839,10458,310,221,197,197,198,195,4305,24829,459,186,169,167,166,166,398,415,29302,25905,29919,24582,717,410,446,575,28437,25087,24653,24823,726,461,668,3919,12385,15989,27055,28358,31877,15084,2038,11501,19131,21388,30568,32975,29465,28982
295,2445,175,158,152,154,155,155,1358,10458,274,157,156,159,152,153,1836,10419,308,220,195,197,195,197,4295,24721,453,188,169,168,166,164,396,413,29243,25817,29869,24503,713,411,444,573,28384,25002,24647,24796,725,463,667,3910,12364,15941,27008,28282,31850,15067,2035,11455,19085,21305,30559,32942,29439,28943
300,2443,175,155,155,155,157,154,1357,10435,276,160,160,156,156,159,1832,10387,309,221,196,199,200,199,4289,24643,455,186,170,174,167,157,395,415,29208,25780,29849,24489,713,411,443,571,28350,24968,24645,24794,723,461,667,3906,12351,15932,26957,28242,31823,15058,2031,11434,19043,21263,30563,32944,29404,28942
298,2443,174,159,157,156,155,155,1359,10457,275,159,161,156,155,155,1829,10382,306,223,196,197,197,196,4283,24635,452,187,175,168,166,169,394,415,29214,25785,29831,24488,713,409,445,571,28349,24966,24653,24802,725,461,668,3907,12351,15938,26927,28208,31809,15051,2032,11447,19047,21275,30573,32961,29402,28945
295,2443,176,156,158,155,160,156,1358,10458,273,160,160,156,158,159,1828,10367,308,219,197,201,200,196,4275,24617,455,189,169,176,165,165,395,414,29209,25781,29820,24482,713,408,444,571,28335,24959,24655,24814,724,461,667,3906,12353,15945,26883,28177,31790,15043,2031,11449,19040,21271,30566,32971,29395,28949
297,2440,179,158,152,153,155,157,1361,10485,274,160,158,157,155,152,1825,10359,308,221,195,196,197,196,4274,24606,450,186,170,166,169,165,394,412,29226,25809,29828,24515,708,409,446,571,28345,24979,24660,24842,723,463,668,3911,12353,15963,26866,28183,31774,15043,2032,11463,19035,21286,30579,33000,29399,28971
299,2441,180,157,155,155,148,155,1364,10527,275,159,157,156,154,159,1825,10362,305,219,200,200,197,196,4270,24628,454,187,170,167,164,159,395,414,29246,25859,29841,24556,714,410,443,571,28363,25007,24676,24878,726,462,667,3914,12358,15981,26861,28199,31761,15039,2029,11490,19045,21324,30595,33043,29409,29002
297,2445,175,154,154,158,157,154,1371,10579,278,160,157,153,152,157,1823,10365,307,220,195,197,196,195,4269,24659,453,185,169,170,165,166,394,415,29285,25910,29868,24597,714,408,446,571,28393,25053,24706,24927,726,461,667,3921,12363,15999,26863,28221,31752,15039,2033,11517,19067,21367,30623,33097,29432,29036
298,2442,177,158,157,158,157,153,1370,10617,277,155,160,160,156,155,1824,10368,311,218,196,197,197,197,4271,24695,452,187,167,171,155,166,396,415,29318,25968,29885,24649,716,410,443,574,28425,25103,24739,24984,726,461,668,3928,12368,16026,26859,28237,31749,15048,2033,11544,19094,21413,30655,33160,29446,29069
297,2447,175,155,155,154,153,156,1373,10668,277,155,159,158,155,157,1825,10369,308,220,196,197,197,197,4271,24740,453,185,169,167,166,166,397,420,29374,26038,29921,24705,718,410,443,574,28469,25163,24777,25043,728,462,669,3935,12384,16059,26867,28269,31753,15050,2039,11578,19133,21478,30700,33239,29475,29111
297,2446,175,156,156,154,155,151,1379,10664,278,159,157,156,156,150,1824,10374,307,221,198,200,200,194,4279,24790,456,191,172,166,163,166,400,417,29395,26013,29885,24607,715,409,447,575,28491,25173,24818,25051,727,466,668,3936,12391,16025,26860,28199,31755,15033,2038,11599,19207,21519,30711,33229,29537,29069
298,2439,177,159,155,154,157,157,1361,10494,274,160,160,156,159,155,1819,10312,307,222,197,195,196,195,4275,24649,452,187,175,167,165,165,394,418,29295,25845,29795,24459,712,409,444,571,28431,25062,24808,24998,726,462,667,3905,12351,15930,26793,28082,31725,15011,2034,11521,19152,21379,30692,33157,29481,29010
297,2431,175,160,157,154,154,153,1358,10448,275,162,156,156,150,156,1818,10278,307,218,196,198,195,198,4269,24571,453,185,169,165,161,165,395,413,29239,25768,29751,24380,711,408,443,572,28393,24990,24806,24965,727,460,668,3897,12335,15884,26745,28011,31693,14990,2030,11476,19115,21313,30684,33119,29455,28973
296,2427,177,157,155,154,155,154,1357,10428,272,163,157,159,154,155,1814,10250,306,218,195,197,195,196,4261,24515,450,187,169,167,166,165,398,415,29220,25721,29727,24346,713,408,443,569,28366,24948,24807,24953,727,462,663,3888,12319,15867,26693,27956,31665,14978,2029,11450,19095,21277,30683,33109,29429,28966
296,2426,178,158,156,154,155,156,1361,10467,278,160,162,156,157,158,1814,10248,306,218,195,196,199,198,4255,24517,455,186,169,175,165,166,395,413,29235,25751,29720,24360,712,411,442,571,28377,24962,24805,24965,725,461,665,3889,12316,15884,26671,27936,31644,14965,2024,11457,19097,21298,30679,33124,29438,28972
296,2425,174,159,154,153,153,154,1361,10471,274,163,157,157,155,157,1814,10237,304,220,194,195,198,196,4256,24524,450,188,169,168,169,165,395,412,29232,25754,29709,24354,711,408,442,571,28386,24963,24809,24964,724,461,664,3889,12319,15887,26635,27915,31630,14957,2032,11459,19104,21306,30691,33122,29435,28975
297,2423,176,157,159,154,153,157,1363,10501,276,159,154,154,155,155,1812,10234,306,220,195,195,195,200,4255,24541,453,186,169,172,169,164,395,412,29249,25785,29717,24383,713,409,443,572,28401,24987,24822,24986,726,461,666,3890,12318,15903,26626,27915,31617,14956,2027,11475,19105,21325,30694,33146,29437,29001
296,2425,176,156,154,154,147,152,1367,10548,275,163,160,156,156,159,1814,10234,307,219,195,194,198,195,4254,24575,450,186,170,169,169,164,397,414,29290,25841,29735,24419,711,410,442,574,28433,25031,24833,25014,727,462,665,3899,12328,15930,26626,27934,31610,14959,2027,11494,19123,21367,30719,33194,29449,29021
296,2424,175,155,158,155,152,154,1371,10600,281,159,161,157,155,155,1812,10245,307,220,195,198,196,196,4257,24627,454,186,169,170,163,165,396,415,29327,25900,29762,24472,715,412,444,572,28469,25083,24851,25055,727,463,666,3901,12336,15959,26622,27953,31611,14960,2027,11521,19145,21417,30741,33241,29469,29057
291,2425,177,156,156,154,152,155,1377,10651,278,157,157,157,155,155,1814,10250,308,220,196,196,197,199,4257,24681,454,187,169,168,169,169,397,414,29373,25965,29793,24529,715,411,442,575,28515,25135,24878,25099,727,462,661,3912,12347,15991,26628,27979,31617,14965,2033,11553,19176,21472,30769,33296,29485,29098
297,2428,180,155,153,162,155,157,1379,10703,279,160,160,155,155,158,1811,10262,308,220,193,198,197,199,4267,24742,455,185,170,167,162,165,398,415,29415,26032,29811,24554,717,410,443,578,28560,25200,24911,25144,730,461,664,3918,12359,16013,26643,28001,31629,14964,2029,11585,19215,21539,30806,33352,29548,29119
299,2423,176,156,157,156,153,157,1369,10577,275,159,157,156,156,157,1811,10226,307,219,195,199,198,196,4276,24706,452,187,169,169,167,166,397,411,29373,25895,29722,24369,711,411,443,575,28534,25123,24925,25095,727,461,665,3897,12347,15917,26599,27865,31608,14939,2029,11544,19244,21466,30790,33261,29525,29031
296,2417,174,157,165,153,154,154,1364,10508,280,163,153,155,155,153,1809,10189,306,219,196,198,197,197,4263,24615,455,186,170,169,167,166,398,415,29315,25808,29659,24277,717,413,443,571,28517,25077,24922,25048,728,464,664,3879,12315,15862,26557,27795,31577,14915,2027,11489,19191,21390,30767,33209,29495,28986
300,2411,176,155,154,154,151,157,1365,10479,273,160,159,160,155,157,1807,10162,307,219,196,197,197,197,4263,24573,451,186,169,169,169,166,401,417,29267,25733,29615,24220,713,413,448,573,28499,25021,24901,25003,726,459,663,3871,12305,15834,26525,27746,31550,14895,2022,11449,19169,21343,30747,33167,29473,28957
295,2412,176,157,153,155,153,151,1364,10500,275,163,156,160,153,152,1805,10150,307,220,198,195,195,197,4258,24570,454,187,170,168,169,166,399,416,29261,25759,29614,24243,715,413,442,570,28495,25025,24889,24998,726,463,662,3868,12305,15863,26492,27729,31533,14891,2020,11442,19151,21353,30752,33177,29458,28962
293,2413,179,157,155,155,152,150,1367,10531,274,163,153,156,155,155,1804,10157,305,220,196,198,199,197,4267,24614,451,185,173,168,166,168,397,417,29293,25787,29614,24244,710,409,443,570,28507,25043,24890,24995,724,460,662,3862,12322,15884,26466,27700,31524,14880,2021,11461,19166,21381,30750,33171,29457,28959
295,2413,176,155,153,159,154,153,1369,10552,278,159,160,156,155,156,1805,10158,306,220,194,197,195,197,4265,24637,457,189,171,166,164,166,398,413,29301,25811,29620,24277,712,409,440,573,28524,25056,24884,24992,726,460,659,3861,12327,15897,26436,27693,31513,14875,2020,11469,19167,21398,30739,33179,29450,28974
294,2414,172,159,158,157,155,150,1369,10599,275,156,155,156,156,158,1806,10158,305,219,199,197,195,195,4265,24682,452,187,170,170,167,166,398,417,29339,25871,29647,24324,712,410,439,573,28549,25095,24889,25015,725,462,660,3865,12326,15918,26437,27715,31509,14877,2023,11489,19177,21437,30745,33201,29457,28999
297,2413,174,155,152,160,154,154,1375,10657,277,159,158,155,155,154,1803,10162,306,220,197,197,195,196,4268,24740,457,187,171,167,164,164,395,416,29383,25951,29680,24393,713,411,444,569,28591,25152,24906,25047,727,459,660,3873,12335,15952,26453,27751,31511,14881,2021,11516,19201,21495,30758,33241,29469,29027
297,2416,177,155,154,155,154,150,1381,10719,276,158,153,159,156,159,1804,10169,306,220,196,197,196,195,4277,24807,454,186,173,167,169,165,398,414,29441,26023,29719,24455,714,412,445,573,28643,25215,24935,25093,726,461,663,3882,12349,15985,26473,27799,31523,14890,2023,11547,19237,21561,30794,33308,29487,29062
294,2416,174,158,159,154,154,154,1385,10774,279,163,159,157,154,155,1806,10183,307,218,196,199,195,197,4278,24875,459,186,169,169,164,165,398,417,29487,26097,29762,24526,718,412,442,576,28691,25289,24961,25142,730,463,661,3893,12362,16015,26494,27841,31540,14902,2025,11581,19271,21632,30830,33371,29519,29099
296,2422,175,159,154,154,154,153,1393,10834,280,160,156,155,158,158,1805,10195,305,223,196,197,195,195,4284,24943,457,183,174,168,165,166,399,417,29541,26177,29811,24597,718,413,445,577,28750,25368,25002,25196,730,463,662,3901,12381,16057,26515,27888,31555,14913,2027,11622,19307,21707,30874,33445,29551,29148
299,2419,177,157,157,152,154,156,1387,10767,279,157,155,159,156,158,1806,10186,305,218,197,196,197,195,4301,24993,459,185,170,167,165,166,398,417,29541,26111,29758,24451,716,407,448,580,28753,25338,25022,25162,730,462,663,3893,12386,15998,26514,27795,31555,14887,2027,11616,19375,21698,30862,33383,29578,29065
296,2413,175,158,155,155,153,157,1370,10619,277,158,157,157,158,157,1803,10132,305,223,196,197,197,196,4298,24879,456,189,167,168,166,166,396,411,29462,25987,29682,24335,712,412,443,574,28711,25259,25006,25097,727,462,662,3865,12361,15930,26469,27719,31525,14867,2023,11538,19314,21591,30838,33305,29538,29005
295,2404,174,159,155,154,155,153,1370,10588,277,163,157,159,156,155,1802,10114,302,217,198,197,195,197,4301,24843,459,187,172,170,165,166,397,414,29420,25927,29643,24271,711,411,441,575,28683,25210,24987,25042,729,461,658,3852,12351,15897,26452,27667,31507,14846,2019,11494,19287,21544,30814,33249,29516,28975
295,2400,175,162,154,150,154,153,1372,10581,275,159,157,156,155,159,1798,10089,307,222,195,195,198,196,4300,24828,455,187,170,168,169,163,396,411,29407,25916,29635,24271,711,411,443,573,28683,25200,24965,25008,727,461,659,3844,12338,15894,26443,27661,31489,14838,2017,11468,19273,21533,30809,33235,29497,28973
296,2403,175,156,153,153,153,155,1375,10634,277,159,157,155,153,155,1800,10093,305,220,195,196,196,196,4299,24871,457,188,169,168,166,165,396,415,29429,25962,29648,24300,712,410,444,572,28699,25221,24955,24999,728,461,659,3849,12342,15917,26439,27670,31483,14830,2017,11483,19287,21577,30803,33234,29502,28982
296,2403,175,157,155,153,158,154,1378,10649,278,157,161,159,157,159,1798,10094,304,220,196,196,195,194,4305,24907,455,193,170,168,167,165,397,413,29436,25979,29656,24317,716,411,443,575,28708,25232,24943,24981,728,462,658,3848,12347,15927,26442,27681,31477,14830,2019,11490,19290,21594,30795,33231,29502,28994
299,2400,177,155,156,156,152,157,1379,10702,276,157,161,160,155,157,1801,10097,305,219,195,197,195,199,4307,24947,460,186,167,169,169,165,396,415,29462,26032,29684,24374,713,411,440,574,28728,25269,24937,24990,728,462,660,3854,12353,15954,26464,27720,31479,14835,2019,11511,19296,21630,30792,33249,29507,29021
294,2404,175,158,155,155,158,157,1386,10759,279,155,161,158,156,153,1800,10109,303,220,197,195,196,197,4311,25002,458,188,169,168,167,167,399,417,29497,26092,29715,24436,717,414,443,574,28763,25323,24939,25013,729,467,659,3861,12367,15986,26488,27765,31488,14838,2022,11537,19316,21682,30807,33285,29522,29049
295,2404,175,157,158,154,153,154,1391,10826,280,157,161,153,152,155,1801,10123,306,220,195,195,196,196,4312,25067,462,187,169,168,167,169,397,413,29544,26174,29758,24505,716,413,443,574,28798,25381,24959,25050,730,463,662,3870,12377,16023,26516,27823,31505,14854,2022,11569,19338,21739,30828,33332,29543,29088
295,2409,175,155,159,153,153,155,1396,10887,280,161,155,157,156,152,1801,10143,305,220,197,195,199,198,4318,25135,459,187,172,168,167,167,398,417,29601,26252,29798,24575,717,412,444,575,28834,25439,24979,25089,728,464,662,3879,12397,16068,26545,27875,31523,14866,2023,11605,19369,21803,30857,33387,29569,29136
295,2413,177,157,154,156,153,155,1401,10951,284,160,157,154,155,155,1807,10160,307,220,198,197,197,196,4323,25196,464,186,170,168,166,166,401,419,29651,26338,29840,24654,723,413,445,577,28878,25510,25005,25139,730,466,662,3888,12410,16105,26575,27933,31551,14880,2026,11637,19395,21871,30892,33453,29593,29176
296,2414,176,156,157,155,152,154,1405,10991,281,159,154,157,155,154,1804,10176,306,222,198,196,196,197,4331,25284,461,187,173,168,166,165,403,419,29713,26388,29851,24625,719,407,445,579,28925,25557,25036,25157,731,465,662,3897,12428,16112,26627,27943,31569,14873,2028,11671,19452,21931,30923,33470,29663,29158
297,2407,175,155,154,157,154,154,1386,10776,280,159,157,158,155,155,1806,10130,306,221,197,197,196,197,4345,25207,464,188,170,167,165,166,401,417,29607,26205,29750,24452,716,411,446,576,28870,25460,25023,25081,728,464,661,3864,12401,16007,26592,27843,31550,14856,2028,11604,19439,21812,30886,33372,29622,29087
295,2403,177,157,155,154,154,154,1385,10739,277,164,157,160,156,159,1801,10111,305,219,197,197,198,194,4342,25158,459,187,168,167,170,165,395,415,29567,26147,29728,24406,715,410,446,575,28849,25419,25014,25031,727,462,661,3855,12390,15978,26577,27811,31544,14838,2023,11554,19404,21767,30885,33334,29603,29062
296,2401,172,157,154,155,154,156,1383,10724,278,160,157,159,154,159,1802,10094,305,218,197,196,198,197,4343,25141,462,187,169,170,166,165,396,415,29550,26124,29709,24385,714,412,443,573,28834,25389,24995,24995,728,462,659,3844,12380,15969,26565,27794,31530,14837,2020,11522,19397,21745,30870,33300,29586,29051
294,2398,177,156,159,163,154,153,1386,10766,278,160,156,154,158,156,1801,10098,304,219,197,197,195,195,4339,25165,459,186,170,171,166,167,396,415,29564,26165,29743,24433,713,408,443,573,28848,25419,24983,24989,726,461,665,3846,12389,15996,26571,27821,31533,14837,2024,11530,19398,21778,30869,33312,29583,29069
297,2403,175,157,155,155,153,157,1388,10792,280,159,157,156,154,154,1800,10107,306,221,198,199,196,195,4347,25219,468,186,170,169,171,169,396,417,29573,26187,29750,24458,715,411,442,573,28857,25429,24965,24979,728,463,659,3849,12393,16011,26581,27844,31534,14841,2021,11543,19408,21805,30853,33308,29587,29081
293,2402,176,159,157,157,153,154,1390,10827,282,157,162,158,155,156,1801,10112,304,227,196,196,200,196,4349,25255,461,189,169,168,166,167,398,415,29592,26230,29779,24512,715,412,442,573,28871,25453,24961,24985,728,460,660,3849,12401,16039,26599,27887,31544,14847,2023,11561,19409,21832,30858,33329,29588,29100
295,2405,175,155,156,154,154,156,1398,10883,281,159,159,159,156,154,1802,10123,306,222,195,197,197,195,4351,25304,465,188,169,171,165,165,397,415,29619,26293,29816,24586,718,412,443,574,28896,25499,24963,25005,728,463,660,3856,12413,16071,26626,27935,31563,14859,2024,11589,19425,21880,30867,33363,29594,29133
293,2407,174,159,160,155,156,153,1401,10946,279,159,156,155,159,159,1802,10138,305,222,199,197,197,195,4354,25358,463,191,171,169,166,165,398,415,29672,26369,29865,24661,721,412,444,580,28937,25559,24981,25042,732,462,660,3863,12429,16109,26659,27999,31579,14871,2027,11619,19447,21937,30889,33411,29618,29174
298,2408,175,155,154,155,154,152,1406,11011,287,160,156,157,155,154,1805,10159,305,220,197,198,197,195,4359,25428,467,188,170,167,167,164,398,416,29711,26448,29912,24735,721,413,443,577,28966,25623,24997,25083,731,464,660,3875,12441,16148,26693,28065,31598,14887,2027,11653,19471,21997,30923,33469,29637,29210
295,2413,175,156,162,155,157,156,1414,11067,281,164,157,157,155,156,1807,10176,307,218,196,195,197,197,4364,25495,464,187,170,168,167,167,400,418,29758,26519,29962,24819,720,413,445,579,29011,25682,25022,25137,732,464,662,3884,12453,16183,26729,28123,31625,14907,2032,11692,19498,22067,30949,33529,29658,29255
296,2422,181,156,157,154,153,161,1416,11131,288,161,154,155,152,158,1810,10198,306,219,196,198,194,197,4367,25559,469,191,171,169,169,166,400,420,29813,26597,29997,24865,724,414,444,579,29053,25751,25055,25185,735,464,662,3895,12465,16207,26782,28190,31646,14908,2032,11729,19533,22134,30993,33590,29720,29286
298,2415,175,156,158,152,153,151,1401,10952,280,160,154,157,160,154,1812,10176,305,224,196,196,197,198,4387,25550,464,187,173,167,168,165,400,419,29746,26447,29916,24694,719,410,445,578,29019,25671,25063,25127,730,463,665,3873,12458,16116,26779,28097,31641,14895,2034,11693,19573,22055,30969,33500,29703,29204
295,2408,174,156,155,154,153,154,1393,10873,280,164,157,158,152,159,1809,10151,306,218,197,197,196,199,4378,25478,468,190,170,172,169,166,397,415,29687,26371,29883,24637,720,412,443,577,28988,25618,25044,25091,733,463,660,3857,12437,16088,26770,28081,31637,14889,2029,11629,19514,21989,30952,33460,29683,29183
296,2405,178,155,155,157,154,153,1393,10856,279,166,162,149,159,155,1811,10146,306,220,196,199,197,200,4379,25459,465,187,169,171,167,167,399,416,29675,26350,29878,24630,719,411,443,577,28975,25591,25043,25065,730,465,661,3851,12432,16072,26787,28081,31634,14888,2031,11601,19502,21971,30953,33441,29678,29172
295,2406,175,156,155,156,153,153,1398,10887,282,156,157,159,152,158,1808,10150,306,220,199,197,195,197,4376,25463,468,188,171,170,170,166,401,415,29687,26396,29909,24679,721,415,448,576,28976,25612,25033,25076,733,463,661,3852,12429,16101,26799,28121,31640,14891,2028,11602,19491,21990,30959,33467,29679,29202
295,2407,177,155,149,156,153,155,1401,10924,279,164,161,155,152,154,1810,10161,306,220,195,197,196,195,4380,25516,465,187,169,172,167,166,398,418,29719,26427,29926,24712,720,412,449,576,28982,25622,25025,25067,732,465,662,3855,12439,16119,26826,28155,31649,14898,2030,11625,19513,22017,30957,33469,29690,29213
294,2409,173,157,154,155,152,151,1403,10949,282,157,157,160,151,156,1811,10177,306,219,197,197,196,197,4383,25551,470,187,170,170,169,165,399,425,29735,26469,29950,24756,720,412,445,576,28995,25646,25029,25075,733,464,661,3859,12441,16138,26845,28197,31660,14910,2031,11637,19515,22038,30959,33486,29689,29232
295,2410,175,156,162,156,153,151,1407,11001,282,160,153,155,159,154,1812,10187,307,218,201,199,197,197,4382,25587,468,187,171,169,168,165,402,416,29773,26535,29988,24820,721,416,445,581,29011,25679,25030,25103,733,467,661,3867,12451,16168,26875,28248,31673,14918,2032,11662,19523,22079,30970,33517,29698,29269
295,2413,176,157,154,156,152,153,1409,11063,284,157,161,152,156,156,1812,10207,309,219,195,197,197,196,4384,25639,471,187,169,165,166,164,399,421,29812,26607,30026,24889,726,415,445,579,29030,25731,25044,25135,734,467,664,3875,12462,16211,26909,28308,31694,14937,2033,11689,19535,22124,30991,33570,29709,29299
295,2418,174,157,148,156,155,155,1417,11119,284,162,154,161,141,154,1815,10229,305,220,198,198,200,197,4389,25694,467,188,172,167,166,169,404,421,29855,26677,30070,24970,726,415,447,581,29060,25780,25058,25175,734,466,663,3884,12476,16242,26947,28370,31716,14949,2036,11725,19553,22180,31015,33620,29725,29341
296,2419,178,155,158,153,158,153,1420,11175,287,160,160,157,156,155,1818,10247,307,223,196,199,197,197,4393,25755,471,187,168,168,167,166,403,420,29893,26748,30118,25044,729,415,446,583,29091,25840,25081,25227,735,466,664,3895,12491,16279,26983,28433,31734,14963,2037,11762,19573,22239,31049,33687,29745,29383
296,2424,177,156,155,153,157,153,1425,11198,285,162,154,152,161,159,1822,10272,307,220,197,197,198,197,4399,25837,468,188,173,166,166,164,406,424,29934,26774,30119,24999,727,415,447,583,29111,25861,25109,25238,735,463,664,3901,12504,16274,27042,28443,31756,14964,2039,11793,19630,22292,31070,33686,29814,29349
295,2417,173,156,156,155,155,154,1404,10980,284,159,155,152,155,154,1823,10229,307,220,197,197,197,198,4406,25732,471,187,169,168,166,167,402,423,29817,26590,30029,24848,723,414,446,580,29043,25755,25099,25171,734,466,663,3875,12468,16174,27006,28373,31747,14954,2036,11711,19592,22151,31039,33611,29767,29301
296,2410,176,159,157,154,149,152,1404,10940,282,154,160,155,155,155,1820,10213,306,220,197,197,197,197,4403,25686,466,191,169,167,167,166,401,420,29785,26535,30011,24818,722,413,448,579,29017,25709,25083,25141,733,463,662,3864,12457,16151,27009,28364,31749,14953,2034,11669,19557,22099,31035,33582,29749,29276
295,2410,173,155,156,157,149,153,1402,10923,280,159,160,161,157,155,1819,10207,307,223,196,196,198,198,4399,25655,469,187,170,169,167,166,404,418,29764,26513,30012,24817,724,413,446,580,28991,25675,25069,25119,733,464,664,3860,12454,16145,27009,28366,31745,14957,2034,11647,19534,22073,31031,33573,29723,29271
296,2409,178,159,154,158,144,151,1403,10970,281,165,158,153,156,155,1819,10216,307,220,196,201,196,197,4395,25672,466,191,169,171,170,165,400,418,29782,26561,30048,24874,724,415,445,580,28997,25698,25057,25124,733,467,663,3869,12454,16170,27033,28411,31751,14963,2034,11655,19525,22095,31036,33589,29723,29291
299,2413,177,158,154,155,148,157,1403,10978,282,163,158,152,153,159,1821,10231,307,219,198,197,195,200,4401,25705,471,188,173,168,169,166,399,417,29795,26585,30061,24898,725,417,446,579,28993,25695,25046,25123,733,465,662,3869,12463,16190,27048,28439,31755,14972,2032,11669,19533,22103,31024,33588,29721,29301
296,2414,174,157,155,155,154,153,1405,11010,282,162,158,159,151,158,1823,10239,303,220,198,197,196,197,4401,25727,471,189,169,168,167,165,399,418,29806,26621,30091,24959,726,414,446,579,28990,25715,25037,25133,735,465,663,3875,12469,16212,27071,28487,31771,14984,2037,11686,19525,22127,31029,33614,29721,29321
295,2415,175,157,153,155,151,156,1410,11063,284,157,158,156,156,157,1820,10252,310,219,200,199,198,197,4401,25762,469,187,171,170,167,166,402,419,29835,26681,30125,25025,727,418,447,581,28999,25746,25039,25161,734,467,667,3883,12477,16246,27101,28538,31779,14995,2035,11711,19530,22162,31041,33652,29721,29353
298,2419,176,155,157,155,156,153,1414,11123,287,159,158,159,158,154,1825,10269,305,220,199,196,197,198,4401,25812,469,188,172,167,165,165,400,419,29881,26751,30174,25091,728,416,447,582,29019,25799,25052,25191,732,467,665,3894,12493,16283,27131,28595,31803,15005,2041,11742,19541,22206,31059,33699,29731,29383
296,2426,181,155,154,155,156,154,1419,11176,285,160,158,156,155,155,1828,10293,309,221,199,198,197,196,4405,25863,472,187,174,169,163,168,402,420,29917,26828,30209,25164,730,419,447,582,29043,25848,25064,25228,737,467,665,3904,12505,16317,27162,28651,31819,15022,2038,11779,19559,22259,31087,33751,29747,29419
297,2426,175,157,157,154,153,156,1425,11230,286,163,157,157,156,155,1827,10314,307,221,199,197,197,197,4406,25917,469,188,171,168,169,166,402,422,29954,26892,30253,25230,731,417,450,582,29069,25899,25083,25270,736,466,665,3915,12521,16351,27201,28716,31836,15036,2042,11810,19585,22308,31115,33807,29765,29455
296,2431,181,158,155,154,154,153,1428,11286,287,156,157,151,158,155,1829,10333,309,220,198,197,196,197,4409,25967,476,187,171,169,167,165,404,424,29996,26963,30295,25310,735,419,449,583,29098,25961,25106,25319,738,466,668,3929,12534,16392,27237,28780,31860,15051,2046,11843,19599,22363,31153,33875,29777,29494
295,2432,175,153,153,157,149,158,1426,11260,286,163,153,152,155,154,1835,10351,307,219,196,196,198,197,4424,26046,470,185,171,173,167,166,406,425,30038,26960,30276,25212,730,418,448,583,29121,25969,25131,25319,736,474,667,3929,12553,16364,27275,28737,31877,15049,2049,11869,19679,22410,31172,33857,29847,29446
297,2425,174,155,159,153,158,154,1404,11013,283,160,155,156,158,157,1831,10304,309,221,197,198,200,198,4426,25897,474,188,171,169,166,166,403,419,29895,26745,30172,25057,729,415,449,581,29043,25851,25118,25253,735,467,664,3897,12512,16263,27222,28652,31870,15039,2043,11767,19610,22242,31144,33777,29792,29380
296,2427,175,156,158,155,151,151,1401,10964,283,164,157,159,152,153,1830,10289,307,221,198,197,197,195,4419,25823,472,187,169,169,167,165,404,420,29846,26673,30143,25003,727,417,447,578,29009,25779,25095,25211,735,467,666,3888,12499,16230,27210,28627,31865,15039,2039,11714,19555,22163,31130,33736,29760,29340
298,2419,179,156,149,155,153,152,1399,10941,283,164,156,156,153,165,1830,10283,308,219,197,199,195,196,4409,25746,471,189,169,169,170,169,400,419,29811,26621,30128,24990,727,417,446,579,28956,25719,25078,25182,736,470,665,3881,12493,16213,27195,28607,31863,15039,2035,11680,19522,22108,31116,33716,29727,29331
298,2421,178,159,155,156,156,153,1401,10979,281,158,157,155,155,151,1830,10290,308,221,197,198,198,197,4401,25739,467,190,171,168,166,166,400,419,29836,26666,30143,25027,729,415,447,582,28945,25720,25061,25186,736,468,668,3887,12490,16235,27213,28645,31871,15045,2036,11682,19502,22112,31115,33719,29727,29345
297,2420,177,156,153,149,154,154,1402,10987,286,164,161,157,156,153,1832,10304,307,221,195,199,198,197,4404,25754,471,191,171,168,167,165,402,419,29836,26670,30145,25040,728,414,450,580,28923,25705,25044,25176,734,468,667,3892,12496,16240,27219,28662,31872,15052,2040,11693,19497,22107,31102,33713,29722,29343
296,2421,175,157,155,155,154,153,1405,11007,282,160,168,160,157,156,1834,10317,307,215,197,197,196,198,4403,25754,468,188,169,169,166,170,401,423,29847,26701,30166,25079,727,416,447,580,28915,25712,25027,25174,733,466,665,3894,12501,16259,27228,28693,31876,15057,2037,11704,19482,22110,31091,33723,29710,29356
300,2426,174,155,153,156,154,153,1405,11051,284,160,161,157,155,155,1835,10332,305,219,197,201,197,198,4400,25774,472,187,171,169,166,166,403,424,29853,26735,30187,25134,735,421,446,580,28935,25753,25025,25197,737,469,666,3903,12496,16286,27259,28744,31878,15067,2036,11727,19486,22138,31096,33750,29707,29379
297,2429,174,159,156,155,153,153,1409,11101,284,157,154,157,155,159,1840,10356,308,222,199,199,199,197,4397,25799,472,188,169,167,167,166,408,427,29888,26795,30219,25193,737,423,448,583,28960,25799,25024,25218,735,467,670,3913,12503,16310,27292,28807,31888,15077,2040,11753,19489,22169,31108,33786,29713,29401
297,2432,176,157,154,155,154,153,1415,11152,285,159,162,160,156,159,1838,10371,308,222,196,196,197,199,4398,25844,473,187,171,171,165,166,408,431,29901,26853,30241,25255,736,421,446,581,28956,25829,25025,25244,737,467,668,3924,12519,16343,27315,28853,31902,15087,2041,11784,19492,22209,31119,33818,29722,29435
297,2437,176,155,155,155,155,155,1418,11199,287,163,162,156,153,155,1843,10399,304,221,198,197,197,197,4400,25881,469,188,170,167,166,166,408,426,29949,26924,30276,25319,737,420,446,583,28977,25868,25031,25287,736,468,668,3931,12535,16375,27345,28905,31911,15097,2045,11815,19509,22249,31139,33872,29735,29469
298,2441,173,157,155,158,156,153,1422,11255,293,160,155,152,163,156,1843,10426,312,220,197,197,198,197,4399,25918,476,187,173,169,166,170,404,425,29993,26997,30316,25385,740,418,445,583,29002,25916,25054,25331,738,468,667,3939,12549,16416,27361,28957,31927,15109,2042,11851,19518,22293,31169,33931,29747,29501
299,2448,176,157,158,154,157,152,1422,11216,284,164,157,159,153,153,1851,10446,310,221,200,198,197,197,4413,25975,471,191,170,168,168,166,405,425,30012,26959,30278,25267,735,417,449,585,29007,25902,25079,25318,737,469,671,3939,12567,16380,27384,28897,31937,15103,2047,11867,19594,22326,31176,33903,29802,29445
297,2437,174,159,155,155,153,156,1402,10983,281,162,157,154,153,158,1847,10399,308,218,196,197,196,197,4409,25799,472,188,173,168,169,166,405,421,29868,26737,30165,25107,730,415,448,580,28919,25771,25048,25248,739,466,669,3907,12534,16278,27330,28811,31927,15096,2041,11759,19513,22143,31143,33813,29735,29370
297,2434,175,155,155,154,156,154,1394,10921,281,160,162,155,158,155,1847,10382,307,220,196,198,198,196,4401,25711,470,187,169,169,165,166,401,416,29804,26642,30133,25045,727,414,446,580,28874,25690,25030,25208,737,466,667,3899,12519,16247,27311,28773,31920,15090,2039,11705,19447,22051,31123,33762,29693,29319
299,2434,175,159,155,153,156,154,1392,10885,281,158,163,160,158,155,1846,10378,312,220,199,197,200,198,4398,25633,473,187,170,172,166,164,401,419,29755,26579,30107,25026,727,415,447,577,28821,25620,25003,25177,733,466,666,3891,12509,16229,27297,28760,31911,15092,2033,11672,19406,21982,31110,33734,29651,29299
297,2434,175,156,155,153,153,155,1397,10917,279,163,158,156,159,149,1845,10383,308,219,197,196,196,195,4388,25609,467,187,170,169,166,168,403,419,29760,26600,30121,25051,726,414,449,581,28811,25611,24980,25166,733,465,668,3898,12508,16245,27297,28770,31909,15093,2034,11674,19383,21979,31099,33727,29635,29303
298,2436,175,156,159,157,157,155,1395,10913,286,158,172,152,158,153,1847,10395,311,216,196,197,197,197,4389,25597,469,188,169,166,166,165,400,418,29744,26590,30111,25050,726,415,444,580,28785,25587,24958,25154,733,466,667,3900,12511,16247,27287,28771,31905,15098,2033,11675,19371,21957,31068,33701,29610,29291
300,2437,178,156,154,155,154,155,1396,10937,281,164,157,155,156,151,1846,10402,310,221,195,197,199,197,4381,25583,465,187,171,169,169,165,399,421,29742,26599,30125,25087,727,416,444,577,28777,25583,24939,25153,732,466,667,3903,12513,16258,27287,28789,31907,15099,2037,11679,19347,21952,31057,33708,29591,29299
295,2439,175,158,153,158,154,153,1401,10971,283,156,154,160,152,152,1848,10414,310,222,197,198,195,197,4379,25587,470,186,170,167,167,166,401,419,29751,26640,30144,25131,728,415,445,579,28769,25600,24933,25163,735,466,669,3911,12515,16283,27289,28817,31910,15107,2036,11699,19343,21967,31049,33716,29585,29309
299,2441,183,155,158,155,154,153,1404,11019,282,160,157,161,152,164,1847,10431,307,220,201,198,196,196,4374,25603,467,187,171,168,166,165,400,420,29778,26695,30165,25183,732,416,446,581,28780,25629,24935,25189,734,465,668,3921,12522,16308,27300,28852,31909,15117,2037,11719,19348,21998,31053,33751,29583,29333
299,2445,175,156,158,157,154,153,1408,11063,283,165,156,159,155,153,1848,10448,311,221,197,197,196,198,4375,25626,469,190,170,167,164,167,402,421,29803,26739,30185,25231,730,416,445,584,28799,25663,24932,25212,734,467,668,3927,12530,16333,27310,28886,31922,15124,2037,11745,19355,22030,31064,33780,29591,29358
300,2451,175,154,156,157,155,154,1410,11105,282,159,157,153,156,150,1850,10466,309,219,197,199,198,198,4372,25656,466,187,169,172,171,169,403,423,29829,26797,30218,25290,733,417,445,580,28822,25704,24943,25249,733,465,671,3935,12545,16363,27319,28922,31927,15131,2041,11776,19372,22069,31081,33830,29601,29388
298,2453,179,158,155,154,157,155,1415,11109,284,159,159,149,168,156,1855,10487,312,222,196,200,198,197,4378,25692,470,187,169,169,166,166,405,422,29847,26788,30187,25215,731,415,448,580,28829,25703,24952,25248,735,465,668,3940,12552,16346,27346,28886,31934,15125,2041,11795,19420,22107,31080,33809,29657,29348
297,2445,176,155,156,155,155,158,1391,10870,283,162,161,158,153,159,1854,10442,308,221,196,196,196,196,4381,25518,465,188,170,169,166,167,399,419,29700,26550,30069,25027,727,416,448,580,28742,25557,24924,25164,731,465,667,3908,12520,16233,27278,28771,31918,15116,2039,11699,19367,21928,31025,33689,29588,29263
300,2442,177,156,155,156,154,153,1388,10814,279,160,152,157,157,154,1853,10426,310,222,198,197,196,197,4365,25409,467,187,173,169,166,165,398,418,29633,26454,30015,24942,723,412,444,579,28683,25468,24894,25111,730,464,668,3899,12501,16199,27243,28714,31899,15108,2028,11642,19303,21827,30985,33621,29539,29206
298,2439,175,157,157,153,157,155,1383,10775,279,163,157,157,157,169,1855,10417,307,219,198,195,196,197,4355,25312,461,187,169,168,167,165,401,418,29582,26377,29985,24907,725,414,444,571,28631,25387,24868,25071,731,463,667,3892,12489,16174,27208,28677,31887,15102,2030,11597,19259,21752,30963,33576,29493,29177
301,2441,173,155,154,155,156,153,1385,10799,281,162,154,154,159,153,1852,10425,315,225,196,198,198,195,4347,25277,465,188,169,168,166,168,398,417,29572,26388,29983,24916,724,415,443,573,28615,25375,24838,25055,729,463,666,3901,12482,16185,27191,28672,31877,15099,2025,11592,19229,21740,30933,33551,29486,29167
297,2442,174,155,157,158,155,153,1388,10794,278,162,154,153,155,154,1853,10429,308,216,198,201,195,197,4346,25244,461,188,174,171,164,166,402,421,29553,26366,29958,24901,722,412,447,574,28593,25344,24813,25041,727,465,667,3899,12486,16181,27172,28660,31863,15096,2028,11588,19221,21714,30903,33521,29466,29157
300,2443,175,156,159,157,155,152,1386,10809,280,163,160,162,155,151,1853,10433,311,221,196,196,200,197,4341,25219,464,191,169,169,166,170,399,417,29547,26373,29956,24919,725,413,442,576,28579,25337,24791,25032,729,466,665,3904,12481,16189,27153,28658,31863,15100,2025,11587,19198,21707,30884,33511,29453,29161
297,2447,175,153,155,153,154,153,1391,10847,278,159,160,156,156,155,1854,10445,309,220,197,197,197,198,4335,25219,461,195,170,168,168,166,399,420,29558,26410,29969,24950,725,415,444,572,28585,25359,24784,25045,729,464,668,3911,12486,16207,27149,28669,31858,15097,2027,11602,19196,21718,30875,33527,29453,29172
297,2447,176,155,154,155,154,156,1393,10891,281,161,157,161,156,159,1856,10457,311,222,197,201,197,201,4335,25235,464,188,170,168,164,165,400,419,29580,26451,29982,24994,728,414,444,574,28599,25383,24783,25065,734,461,665,3921,12489,16227,27146,28691,31865,15106,2026,11620,19197,21740,30871,33549,29453,29193
296,2451,175,159,157,155,156,153,1398,10934,281,159,155,157,152,155,1855,10473,308,222,201,197,197,201,4331,25251,460,190,171,169,167,166,401,420,29613,26501,30001,25043,727,415,446,575,28618,25423,24792,25094,731,463,668,3927,12497,16253,27141,28710,31863,15111,2029,11643,19215,21783,30879,33583,29461,29215
298,2453,176,156,155,154,154,157,1400,10974,283,159,157,155,156,158,1858,10490,311,223,197,197,196,200,4330,25281,464,187,173,169,166,165,402,417,29646,26551,30003,25044,728,416,444,576,28645,25465,24796,25119,735,463,668,3936,12503,16268,27160,28733,31863,15110,2029,11672,19239,21827,30893,33605,29517,29232
298,2449,175,156,155,158,155,154,1385,10785,279,159,160,153,159,159,1859,10457,310,221,196,198,195,196,4336,25188,459,187,168,170,170,163,402,418,29555,26343,29887,24823,723,413,447,578,28589,25340,24784,25041,728,463,668,3913,12486,16153,27106,28585,31846,15085,2028,11616,19252,21705,30842,33475,29474,29111
297,2443,169,157,154,154,154,155,1379,10690,279,159,157,159,155,154,1855,10428,312,220,197,198,196,197,4319,25037,463,186,168,172,165,169,400,418,29458,26213,29812,24711,721,414,444,573,28521,25238,24739,24962,731,459,667,3898,12457,16102,27049,28500,31821,15071,2023,11534,19173,21581,30797,33382,29425,29046
298,2438,175,155,154,155,154,153,1375,10644,279,160,155,155,156,155,1852,10411,308,220,197,198,196,200,4313,24929,457,187,174,169,166,167,399,417,29399,26119,29759,24630,719,410,442,569,28471,25153,24709,24901,725,462,666,3892,12438,16063,27005,28429,31795,15057,2019,11475,19126,21493,30762,33304,29381,28989
297,2439,177,159,155,157,154,155,1372,10648,276,158,154,153,156,155,1853,10408,309,221,197,198,198,200,4302,24869,458,186,169,167,167,166,397,417,29378,26106,29744,24625,721,413,443,571,28449,25134,24673,24869,726,459,666,3893,12429,16063,26960,28401,31773,15053,2016,11452,19095,21462,30733,33271,29356,28979
299,2438,174,155,155,154,154,153,1376,10655,277,161,154,156,159,155,1853,10413,307,219,198,197,197,197,4301,24855,454,186,174,168,167,166,399,418,29364,26088,29715,24598,718,412,444,565,28434,25110,24647,24840,724,461,665,3896,12430,16061,26926,28368,31758,15045,2016,11450,19090,21447,30697,33237,29337,28957
299,2439,177,156,156,158,154,154,1376,10660,279,160,154,158,154,153,1852,10417,310,220,196,196,197,197,4297,24822,459,185,170,167,165,165,399,417,29347,26083,29704,24599,718,413,442,568,28420,25098,24615,24819,723,464,663,3897,12422,16069,26891,28342,31742,15046,2014,11442,19066,21429,30665,33209,29327,28955
298,2439,175,154,158,153,155,155,1376,10693,277,160,156,155,151,151,1855,10421,307,220,199,197,197,196,4290,24815,455,186,171,169,166,166,400,417,29363,26114,29710,24628,722,413,441,568,28427,25114,24596,24817,724,462,666,3906,12423,16079,26870,28347,31733,15044,2016,11451,19070,21442,30649,33209,29317,28969
298,2441,177,159,155,154,154,157,1381,10737,278,161,158,156,156,158,1853,10435,309,220,196,199,197,200,4287,24839,458,187,173,170,167,165,399,415,29385,26149,29727,24667,721,413,441,569,28443,25142,24587,24837,725,456,662,3913,12431,16102,26858,28356,31726,15045,2015,11470,19073,21472,30643,33232,29323,28989
300,2443,175,156,156,154,155,154,1382,10780,283,164,162,158,151,159,1853,10452,309,220,198,197,200,196,4289,24863,458,187,169,168,167,164,399,419,29420,26207,29746,24710,720,414,442,571,28471,25180,24591,24860,724,456,667,3921,12439,16126,26854,28373,31721,15047,2018,11491,19093,21512,30653,33255,29333,29014
298,2450,178,159,155,155,155,154,1390,10826,280,163,157,156,156,156,1854,10463,309,219,197,197,197,197,4288,24899,458,186,170,168,167,167,401,418,29458,26265,29777,24760,725,415,443,573,28503,25231,24601,24895,726,461,663,3929,12446,16152,26846,28398,31728,15053,2021,11521,19117,21558,30669,33305,29353,29045
298,2450,175,159,155,154,157,153,1390,10830,277,159,169,159,155,153,1857,10475,311,220,197,196,193,199,4295,24935,459,188,169,168,166,166,402,419,29484,26261,29741,24667,721,411,445,571,28525,25241,24617,24883,732,459,667,3931,12454,16130,26855,28339,31722,15039,2021,11536,19172,21589,30665,33273,29400,28991
302,2441,175,158,157,155,157,157,1369,10613,278,164,161,153,160,155,1855,10421,311,219,195,197,199,198,4292,24766,458,185,169,168,166,165,398,417,29346,26027,29619,24470,718,411,442,570,28445,25100,24578,24785,723,460,663,3898,12417,16018,26779,28197,31689,15014,2014,11436,19119,21420,30606,33136,29334,28893
298,2440,177,155,154,153,152,154,1365,10553,275,164,158,154,155,155,1854,10399,307,220,196,198,198,199,4279,24647,451,185,169,168,166,170,398,418,29283,25919,29551,24356,716,413,441,566,28403,25013,24538,24713,723,459,666,3889,12393,15959,26723,28107,31659,14991,2013,11368,19066,21320,30559,33039,29295,28826
301,2437,175,159,158,157,157,152,1362,10511,277,163,159,157,155,152,1855,10377,310,221,197,197,198,197,4273,24552,455,187,167,167,166,169,399,418,29207,25824,29501,24285,718,415,439,566,28371,24955,24498,24642,722,462,662,3880,12371,15921,26673,28041,31623,14976,2007,11314,19029,21247,30512,32970,29255,28787
298,2433,178,161,155,155,154,153,1365,10532,275,162,159,155,155,154,1850,10375,312,219,195,197,198,197,4266,24519,452,194,170,168,169,165,401,418,29187,25820,29497,24287,715,415,441,567,28364,24944,24463,24615,720,457,664,3888,12365,15933,26639,28018,31606,14969,2004,11299,19008,21238,30481,32943,29246,28784
300,2436,175,157,155,154,153,157,1365,10535,275,158,158,157,155,152,1848,10374,309,221,196,201,197,199,4267,24511,451,185,173,169,165,166,401,418,29173,25805,29475,24266,715,412,441,564,28351,24921,24430,24587,720,458,662,3886,12364,15935,26601,27981,31588,14960,2005,11295,19005,21230,30447,32905,29237,28779
297,2436,175,156,158,155,153,154,1365,10557,275,163,156,154,159,157,1852,10375,309,219,199,196,198,196,4263,24503,450,187,171,169,165,166,401,416,29182,25825,29481,24285,713,411,439,563,28352,24929,24405,24575,720,457,664,3889,12365,15948,26575,27969,31573,14952,2009,11296,19002,21233,30413,32895,29229,28786
298,2438,172,156,153,157,155,154,1370,10596,277,160,157,153,158,156,1849,10388,308,221,197,198,196,196,4262,24519,453,187,170,167,167,166,398,413,29209,25871,29497,24318,715,411,441,565,28368,24959,24398,24583,720,459,663,3895,12367,15967,26555,27970,31571,14957,2006,11309,19013,21268,30409,32904,29236,28809
297,2444,179,159,158,154,156,154,1373,10642,276,163,155,157,152,155,1851,10399,307,221,200,196,202,199,4260,24551,450,187,172,169,167,170,399,415,29251,25930,29518,24361,717,413,439,565,28409,25006,24401,24609,723,457,663,3902,12377,15993,26546,27983,31566,14958,2008,11332,19039,21311,30417,32946,29249,28837
298,2444,176,155,157,153,154,151,1376,10686,277,160,161,160,158,153,1852,10411,309,224,196,197,197,197,4268,24591,453,186,170,170,166,167,398,416,29300,25996,29546,24410,718,413,440,566,28447,25061,24406,24635,721,459,663,3910,12385,16018,26547,28007,31567,14964,2009,11359,19068,21363,30429,32976,29267,28870
298,2449,177,158,155,157,153,154,1382,10739,278,160,153,155,154,155,1850,10424,310,222,196,201,196,200,4267,24637,452,187,167,172,166,167,399,418,29344,26066,29585,24463,719,411,442,567,28497,25121,24421,24673,726,460,664,3919,12393,16050,26553,28035,31583,14971,2013,11389,19096,21425,30451,33036,29300,28911
300,2449,175,157,158,155,153,154,1380,10706,279,164,153,159,151,159,1853,10429,313,221,197,196,196,197,4279,24677,458,187,170,171,169,165,400,420,29353,26022,29541,24339,715,411,441,566,28517,25108,24429,24643,724,460,665,3916,12397,15999,26545,27952,31573,14954,2011,11397,19157,21427,30442,32981,29330,28835
299,2440,175,156,156,153,154,154,1365,10529,274,163,157,156,155,159,1848,10376,308,221,196,197,197,196,4272,24515,450,184,169,166,170,165,397,415,29251,25845,29448,24189,712,409,441,564,28466,25008,24391,24560,718,457,663,3890,12365,15908,26486,27845,31538,14926,2008,11296,19100,21284,30390,32875,29279,28765
299,2435,174,157,154,157,155,153,1359,10480,275,159,158,156,155,155,1847,10356,315,221,196,197,197,195,4266,24426,452,186,173,167,167,169,395,413,29196,25766,29398,24101,709,409,439,562,28441,24943,24357,24485,722,457,662,3879,12343,15870,26447,27775,31513,14904,2004,11239,19060,21209,30353,32798,29250,28716
296,2437,175,155,155,154,155,153,1359,10459,277,160,156,160,156,156,1844,10333,306,219,197,198,192,197,4261,24366,447,186,171,167,169,166,395,414,29161,25717,29375,24065,708,408,441,562,28414,24903,24322,24444,717,458,661,3873,12334,15855,26409,27735,31487,14890,2003,11198,19043,21171,30323,32757,29223,28706
298,2434,178,158,156,155,155,152,1363,10490,276,159,160,157,153,153,1843,10337,308,218,195,197,195,196,4255,24369,449,185,171,169,168,169,396,413,29170,25743,29381,24079,710,408,439,561,28435,24922,24295,24430,719,457,662,3880,12333,15870,26388,27721,31471,14885,2001,11199,19042,21185,30305,32746,29225,28702
298,2435,175,154,157,154,155,153,1361,10502,273,159,161,153,159,159,1842,10341,310,219,199,197,197,195,4260,24377,448,185,171,169,167,167,395,414,29169,25750,29380,24077,707,408,439,561,28438,24921,24273,24411,716,458,662,3881,12337,15876,26366,27708,31463,14879,2002,11198,19043,21189,30281,32726,29221,28709
301,2437,181,159,154,157,154,157,1364,10529,276,164,156,158,155,157,1843,10344,307,226,197,196,197,201,4258,24393,452,185,169,168,166,164,397,414,29181,25785,29401,24112,710,410,441,561,28461,24951,24256,24411,718,457,661,3887,12342,15899,26358,27720,31457,14876,2002,11205,19047,21213,30273,32730,29226,28724
298,2438,175,159,157,154,157,153,1369,10571,275,157,159,157,157,155,1841,10349,307,221,197,197,191,197,4260,24428,450,187,169,167,166,165,396,414,29216,25838,29431,24163,711,411,441,564,28504,25001,24255,24432,716,460,663,3899,12346,15929,26362,27747,31461,14884,2005,11223,19065,21257,30274,32763,29236,28755
297,2442,176,156,154,152,152,154,1373,10623,279,158,161,155,156,153,1842,10361,309,223,196,196,197,195,4260,24479,452,185,170,168,169,164,396,419,29259,25903,29474,24226,713,409,441,563,28543,25059,24261,24466,719,459,663,3905,12358,15960,26372,27781,31470,14891,2007,11252,19089,21311,30287,32807,29259,28790
297,2446,179,155,155,154,152,154,1375,10669,277,160,160,156,155,156,1843,10370,310,223,197,196,197,198,4265,24531,449,186,171,167,166,169,399,415,29304,25971,29517,24291,714,411,441,565,28597,25118,24275,24500,718,459,664,3915,12367,15987,26386,27825,31479,14897,2010,11283,19121,21372,30310,32863,29281,28830
299,2447,174,157,155,153,155,153,1378,10714,278,159,158,152,156,153,1843,10383,311,233,197,196,197,197,4269,24595,456,186,172,169,167,165,397,416,29340,26041,29561,24354,718,411,440,565,28648,25191,24293,24549,722,461,663,3926,12374,16016,26413,27875,31499,14909,2009,11315,19157,21448,30348,32932,29307,28877
299,2449,177,156,155,154,156,153,1383,10764,279,159,154,158,159,166,1842,10398,311,220,197,203,199,196,4275,24660,454,186,167,167,164,164,399,417,29399,26121,29607,24404,716,411,443,567,28717,25274,24322,24592,721,460,665,3936,12389,16047,26451,27928,31515,14914,2014,11351,19202,21518,30389,32994,29370,28910
300,2445,177,156,155,156,152,155,1371,10619,277,160,159,153,162,156,1849,10375,309,223,196,197,195,197,4295,24643,455,186,170,166,168,165,399,415,29342,25971,29527,24218,713,414,441,566,28706,25217,24325,24538,722,459,663,3919,12380,15959,26430,27805,31508,14888,2013,11319,19251,21458,30365,32903,29356,28816
297,2441,178,154,158,154,154,155,1362,10526,274,160,157,156,155,158,1841,10339,306,218,201,199,198,198,4282,24533,449,186,171,167,169,169,396,413,29271,25878,29486,24142,711,410,440,565,28691,25169,24295,24482,721,458,665,3905,12360,15915,26398,27750,31485,14873,2011,11241,19196,21373,30349,32854,29323,28775
299,2440,181,159,158,157,153,153,1362,10499,276,159,156,157,155,152,1840,10326,307,220,197,197,195,196,4281,24488,448,184,169,167,169,167,396,414,29243,25827,29454,24083,710,409,441,562,28677,25132,24266,24436,723,460,663,3897,12349,15891,26383,27709,31464,14857,2006,11199,19173,21330,30327,32803,29307,28745
296,2435,174,158,157,152,158,157,1363,10500,273,159,154,157,158,155,1838,10322,306,222,198,203,198,196,4279,24459,451,184,174,167,164,166,395,413,29247,25859,29438,24092,709,410,443,564,28665,25115,24227,24423,718,459,663,3897,12330,15884,26351,27693,31449,14851,2006,11177,19145,21313,30269,32751,29318,28772
297,2432,177,156,159,155,157,154,1365,10525,278,160,159,157,158,155,1836,10320,308,221,197,197,199,197,4273,24475,453,185,168,170,165,165,398,412,29305,25916,29421,24083,710,407,444,562,28613,25084,24219,24440,720,456,663,3897,12303,15874,26334,27685,31441,14848,2008,11187,19135,21313,30214,32713,29325,28782
298,2433,175,159,155,154,155,157,1363,10546,277,159,158,156,152,156,1841,10330,307,226,197,202,196,194,4275,24489,452,187,170,167,166,166,396,414,29339,25957,29431,24112,710,413,439,562,28604,25083,24231,24467,720,460,663,3901,12310,15889,26337,27702,31450,14849,2007,11192,19126,21321,30207,32725,29332,28799
302,2434,176,156,155,156,153,156,1367,10591,276,160,154,156,165,155,1841,10348,311,221,196,197,196,199,4279,24530,453,185,169,167,166,166,396,415,29364,26012,29469,24170,712,410,441,561,28644,25137,24253,24503,721,459,662,3913,12325,15928,26359,27745,31457,14852,2006,11203,19149,21372,30231,32772,29338,28827
297,2439,175,158,156,155,155,157,1373,10641,279,156,152,160,155,158,1842,10373,307,220,198,194,199,197,4284,24587,453,185,172,168,170,165,396,415,29407,26075,29518,24235,711,410,443,565,28707,25228,24274,24543,720,461,663,3924,12345,15971,26387,27798,31471,14866,2008,11228,19182,21442,30271,32842,29354,28866
295,2442,175,159,153,155,153,153,1374,10694,279,159,158,155,154,152,1845,10387,308,221,197,196,196,196,4290,24651,456,184,169,168,169,169,397,416,29444,26143,29562,24297,715,411,440,564,28768,25307,24286,24575,722,460,663,3934,12357,16008,26417,27850,31484,14874,2011,11262,19220,21512,30303,32898,29371,28903
300,2444,175,158,155,157,154,156,1378,10741,278,160,160,154,156,164,1844,10410,307,223,191,197,196,197,4293,24717,453,188,170,170,169,166,397,419,29489,26210,29603,24366,715,415,441,566,28821,25389,24300,24617,723,462,666,3943,12372,16044,26450,27901,31507,14892,2015,11300,19253,21583,30336,32965,29397,28943
297,2450,175,156,158,155,154,154,1383,10793,279,161,155,161,158,154,1846,10425,311,222,196,201,195,197,4295,24787,459,183,170,168,168,164,399,418,29531,26287,29655,24431,717,412,442,567,28871,25464,24328,24673,725,462,665,3952,12389,16083,26481,27955,31529,14898,2016,11333,19287,21652,30378,33035,29435,28991
298,2450,177,157,154,154,153,153,1381,10717,277,162,157,159,156,160,1849,10427,307,221,202,199,198,197,4315,24820,453,186,169,168,166,165,397,419,29537,26216,29606,24293,713,411,445,571,28886,25443,24343,24643,724,461,666,3946,12395,16025,26488,27883,31532,14883,2018,11329,19355,21641,30380,32984,29456,28916
298,2444,175,156,154,155,155,154,1370,10585,278,161,157,157,156,155,1845,10384,310,219,197,196,196,197,4307,24701,457,192,169,171,166,165,397,415,29446,26103,29548,24201,714,410,442,565,28843,25391,24330,24601,723,462,665,3925,12365,15969,26463,27821,31513,14869,2014,11249,19287,21538,30361,32931,29423,28873
298,2439,180,157,154,155,153,153,1363,10553,274,163,157,156,159,162,1844,10370,307,220,201,196,195,199,4304,24661,451,185,170,168,166,166,397,414,29427,26067,29526,24159,710,409,441,568,28833,25369,24318,24575,723,459,663,3918,12361,15958,26452,27790,31507,14857,2011,11204,19266,21497,30353,32898,29404,28846
297,2441,179,157,158,154,154,152,1364,10547,278,156,156,157,155,150,1843,10367,309,219,196,195,197,194,4305,24645,455,185,169,168,167,167,397,413,29417,26076,29533,24178,710,410,443,562,28841,25376,24303,24570,722,460,665,3915,12359,15967,26452,27804,31507,14856,2011,11184,19256,21503,30358,32908,29389,28861
299,2438,174,156,155,155,153,154,1365,10594,280,152,158,159,159,155,1845,10381,307,220,197,197,196,197,4306,24690,453,186,169,167,167,167,396,415,29453,26123,29556,24200,710,409,440,566,28864,25417,24298,24579,723,460,665,3923,12366,15993,26466,27830,31506,14855,2012,11202,19274,21541,30362,32926,29394,28873
297,2441,175,156,154,157,155,153,1367,10610,276,163,157,159,160,156,1846,10385,309,221,199,198,196,193,4313,24722,457,188,170,170,166,165,397,414,29457,26146,29573,24231,717,410,443,563,28874,25439,24294,24587,723,463,665,3926,12375,16016,26475,27847,31507,14859,2011,11209,19276,21564,30360,32938,29397,28894
296,2445,175,159,156,154,155,154,1371,10650,278,159,161,159,155,155,1850,10395,306,223,194,195,200,195,4314,24764,453,188,170,168,167,168,397,414,29486,26201,29609,24287,713,410,439,566,28900,25493,24299,24612,723,461,665,3933,12385,16048,26497,27895,31524,14869,2014,11229,19288,21605,30373,32985,29403,28925
297,2445,175,154,155,153,155,156,1377,10703,279,159,157,163,156,159,1846,10414,309,221,200,198,197,197,4318,24821,462,186,169,167,166,166,399,415,29525,26266,29651,24354,717,412,443,565,28931,25548,24308,24652,724,462,664,3942,12397,16082,26530,27946,31533,14879,2016,11258,19304,21658,30400,33033,29415,28961
300,2449,177,156,159,156,154,154,1380,10763,279,163,156,155,156,155,1848,10425,311,220,200,202,197,199,4321,24881,455,187,171,169,170,167,398,415,29575,26338,29706,24425,716,413,443,567,28970,25607,24325,24698,726,462,667,3951,12411,16115,26556,27999,31551,14889,2019,11292,19324,21717,30428,33092,29433,29001
298,2451,175,156,155,155,153,152,1384,10814,281,159,157,156,155,155,1850,10446,310,220,201,200,197,192,4328,24950,461,186,169,168,166,165,400,417,29612,26413,29742,24497,718,412,445,569,29007,25672,24347,24746,728,463,663,3961,12418,16154,26593,28055,31577,14903,2019,11329,19351,21779,30457,33157,29455,29045
298,2455,175,157,157,156,157,152,1389,10870,283,164,158,157,156,155,1851,10465,305,222,194,199,197,193,4331,25013,456,186,169,168,165,166,401,418,29661,26489,29795,24565,720,414,446,571,29048,25736,24379,24802,728,464,667,3971,12437,16187,26636,28124,31597,14918,2024,11363,19383,21843,30499,33222,29482,29087
300,2460,179,159,156,154,155,154,1393,10927,281,159,152,160,156,156,1853,10483,306,219,196,191,197,192,4337,25078,460,186,171,171,167,166,401,422,29713,26567,29849,24645,722,415,445,570,29094,25810,24416,24863,731,469,667,3980,12449,16223,26680,28188,31622,14933,2024,11402,19408,21911,30553,33306,29515,29138
298,2464,176,155,155,155,153,154,1392,10892,281,160,160,157,155,156,1857,10497,307,220,192,199,199,199,4352,25153,460,186,170,169,167,169,401,421,29738,26543,29811,24525,719,413,446,574,29108,25814,24443,24864,728,464,667,3979,12457,16187,26714,28138,31635,14920,2028,11425,19495,21952,30557,33282,29561,29077
300,2455,176,156,157,155,155,153,1372,10687,278,161,157,157,160,152,1853,10448,310,222,197,195,197,192,4349,25020,459,188,169,168,165,170,399,417,29629,26388,29724,24399,718,413,447,570,29055,25743,24435,24824,729,466,665,3949,12422,16107,26676,28069,31619,14905,2021,11331,19430,21817,30541,33233,29513,29022
297,2451,174,157,156,155,157,156,1371,10646,276,164,158,153,155,152,1851,10426,308,219,195,198,197,197,4346,24961,458,185,170,169,167,167,398,416,29595,26332,29699,24343,715,412,451,570,29031,25701,24432,24796,728,464,666,3941,12410,16078,26675,28031,31611,14898,2021,11279,19392,21763,30540,33204,29489,28999
299,2449,175,158,157,155,153,152,1367,10630,278,157,161,157,152,154,1850,10417,309,221,195,204,195,192,4342,24925,460,185,169,167,170,169,401,417,29576,26311,29690,24337,718,413,446,568,29012,25691,24425,24792,731,466,663,3931,12402,16070,26664,28028,31601,14895,2018,11252,19374,21741,30541,33204,29466,28989
298,2449,173,158,155,156,155,157,1371,10669,277,155,157,157,152,157,1850,10429,307,224,197,200,195,193,4339,24943,456,187,170,168,166,165,398,416,29602,26357,29715,24378,716,412,445,569,29026,25721,24423,24807,728,463,665,3937,12409,16100,26675,28047,31604,14898,2018,11261,19376,21775,30551,33223,29474,29007
298,2452,174,157,158,155,153,155,1373,10681,279,159,155,156,155,155,1851,10437,314,222,197,207,196,196,4342,24983,459,186,169,171,165,165,399,416,29605,26378,29733,24402,717,411,445,570,29025,25725,24419,24806,729,469,663,3933,12418,16119,26681,28063,31610,14901,2019,11272,19377,21786,30542,33235,29465,29022
298,2457,180,158,154,157,157,153,1376,10714,277,162,158,155,157,158,1853,10450,307,223,197,201,197,197,4346,25014,458,190,164,171,167,166,397,418,29614,26407,29759,24452,717,412,445,566,29032,25751,24411,24829,728,463,663,3939,12424,16142,26693,28097,31619,14906,2021,11288,19371,21818,30551,33262,29461,29042
300,2457,177,159,153,156,157,156,1377,10762,279,164,157,156,158,158,1854,10465,309,220,196,204,196,196,4349,25067,461,186,169,168,166,165,398,419,29641,26465,29798,24519,718,415,445,567,29045,25791,24425,24861,729,464,662,3943,12427,16169,26723,28155,31621,14916,2019,11317,19382,21861,30571,33305,29470,29076
301,2459,175,156,155,155,156,156,1381,10815,283,163,157,160,156,153,1855,10482,309,220,197,197,197,195,4348,25114,459,186,175,168,166,167,398,418,29681,26538,29843,24586,721,417,445,569,29073,25851,24447,24903,730,466,665,3951,12440,16208,26759,28211,31637,14928,2025,11347,19403,21919,30595,33365,29484,29117
298,2462,177,156,156,158,153,153,1386,10877,281,164,162,160,157,154,1857,10503,309,221,195,198,200,196,4351,25183,463,189,170,169,165,165,401,419,29722,26607,29879,24653,724,414,446,570,29094,25905,24466,24949,733,466,666,3960,12452,16242,26791,28266,31659,14943,2024,11385,19421,21976,30630,33422,29503,29151
298,2463,175,161,154,154,157,154,1390,10933,281,163,157,159,155,155,1862,10522,311,221,198,196,197,200,4355,25244,460,184,170,168,166,170,402,419,29765,26678,29927,24727,724,415,446,571,29129,25966,24489,25001,733,466,666,3971,12466,16277,26827,28327,31681,14954,2028,11422,19449,22044,30666,33493,29522,29193
299,2468,171,157,155,155,153,156,1395,10990,282,160,158,153,155,158,1863,10539,312,222,199,192,194,199,4359,25313,464,187,169,168,165,164,401,420,29808,26756,29970,24797,726,417,446,573,29159,26033,24521,25053,733,465,664,3979,12475,16315,26864,28385,31701,14971,2029,11463,19479,22100,30708,33566,29546,29238
299,2473,175,158,154,155,153,157,1400,11049,283,157,157,160,159,153,1861,10557,309,221,196,197,193,196,4364,25375,461,187,169,168,166,166,401,422,29857,26837,30017,24874,726,417,446,573,29199,26097,24551,25113,733,469,668,3988,12491,16349,26910,28457,31719,14987,2032,11503,19507,22173,30753,33645,29574,29284
299,2477,176,157,157,156,157,153,1406,11115,284,160,155,155,159,150,1863,10571,312,222,197,196,194,196,4367,25438,466,186,171,167,166,169,406,423,29905,26917,30073,24945,729,418,448,576,29241,26168,24587,25175,736,467,668,3999,12503,16383,26959,28525,31746,14996,2036,11548,19537,22248,30808,33729,29629,29337
300,2475,178,157,155,154,155,155,1395,10967,280,160,157,156,152,151,1867,10569,314,227,196,197,201,197,4391,25485,462,186,169,168,166,165,401,421,29875,26785,29981,24751,724,415,447,575,29223,26121,24611,25145,736,468,668,3986,12497,16287,26967,28433,31741,14978,2036,11535,19623,22223,30805,33663,29641,29244
298,2465,178,155,157,155,155,156,1379,10799,282,160,162,156,158,154,1864,10523,309,223,196,199,194,199,4380,25344,465,187,169,168,166,166,399,419,29761,26643,29907,24647,725,414,448,576,29158,26035,24601,25111,735,466,665,3959,12455,16221,26931,28377,31731,14968,2028,11441,19527,22094,30785,33621,29591,29191
299,2464,175,156,155,153,157,153,1377,10755,278,160,156,157,157,158,1861,10504,310,221,197,195,197,197,4375,25294,461,186,173,167,165,166,402,419,29722,26578,29889,24601,719,413,447,572,29128,25989,24606,25090,733,464,666,3950,12446,16191,26928,28347,31721,14957,2027,11399,19487,22038,30791,33605,29569,29162
299,2460,175,157,156,156,154,151,1375,10745,282,160,155,160,156,153,1858,10499,309,221,198,196,197,194,4373,25261,464,186,170,171,166,169,399,416,29690,26551,29887,24604,719,415,446,571,29101,25968,24606,25085,735,465,664,3946,12437,16185,26920,28351,31715,14957,2026,11376,19462,22015,30805,33614,29537,29172
299,2463,175,157,155,155,157,154,1377,10788,279,162,155,160,154,159,1858,10504,309,220,197,197,197,196,4367,25286,459,187,174,168,167,170,399,418,29708,26581,29911,24639,723,413,447,571,29102,25981,24601,25094,735,465,667,3951,12443,16203,26934,28377,31716,14959,2028,11397,19462,22036,30811,33636,29545,29177
297,2463,176,154,155,153,155,154,1378,10798,280,159,158,159,159,155,1861,10515,313,221,197,197,197,197,4375,25315,467,186,169,170,167,166,399,419,29698,26580,29917,24658,725,413,446,571,29086,25974,24591,25097,734,464,663,3952,12442,16215,26946,28393,31713,14962,2025,11404,19460,22047,30802,33638,29538,29185
298,2466,172,156,154,153,155,153,1381,10831,279,160,157,157,154,158,1859,10524,309,220,196,198,201,195,4374,25340,461,186,170,167,166,165,399,418,29705,26615,29948,24707,723,414,449,571,29083,25993,24587,25112,734,465,665,3956,12446,16233,26959,28427,31718,14968,2028,11425,19452,22067,30809,33663,29532,29206
297,2465,175,156,158,157,154,153,1385,10882,282,161,154,158,155,151,1863,10532,311,225,197,197,197,198,4372,25378,468,188,170,167,165,169,399,419,29727,26665,29979,24764,726,419,446,573,29085,26020,24597,25133,734,468,664,3963,12451,16254,26986,28479,31722,14975,2027,11451,19455,22106,30825,33695,29543,29230
299,2467,175,159,157,152,153,153,1389,10935,279,156,156,156,155,155,1863,10555,312,219,201,199,193,200,4371,25420,464,187,171,169,167,167,405,424,29742,26705,30009,24824,732,421,447,575,29115,26072,24608,25165,737,466,665,3971,12457,16283,27019,28533,31733,14987,2029,11483,19469,22154,30835,33743,29549,29267
300,2471,176,154,154,154,155,156,1393,10990,281,160,157,157,154,158,1863,10568,316,222,199,198,196,201,4375,25483,470,186,170,169,166,165,407,426,29758,26756,30042,24889,730,419,447,574,29115,26105,24618,25199,737,466,663,3983,12468,16317,27037,28579,31744,14997,2032,11514,19477,22197,30856,33793,29565,29301
303,2475,175,159,155,158,157,156,1397,11040,282,156,161,155,155,151,1865,10585,310,216,198,200,191,198,4375,25529,467,190,170,172,166,166,403,423,29793,26813,30077,24962,730,420,447,577,29132,26141,24635,25243,736,468,667,3987,12481,16342,27059,28623,31764,15013,2036,11553,19499,22245,30885,33845,29587,29334
299,2478,179,159,155,154,154,154,1403,11085,284,163,162,158,155,155,1866,10603,311,220,197,197,197,196,4382,25597,469,187,170,171,167,163,409,423,29832,26855,30084,24934,728,417,449,576,29138,26165,24658,25263,738,467,666,3996,12496,16350,27108,28643,31774,15009,2032,11586,19534,22305,30905,33872,29657,29332
298,2470,176,158,153,157,158,155,1384,10865,279,159,157,156,155,150,1866,10564,313,223,195,199,207,196,4392,25506,465,189,171,169,167,168,402,420,29731,26655,29972,24754,724,419,452,576,29057,26041,24646,25206,735,468,664,3965,12463,16235,27055,28527,31764,14994,2032,11516,19523,22171,30872,33778,29602,29252
301,2467,175,156,157,157,157,156,1378,10809,279,159,154,159,158,159,1866,10542,313,221,197,197,201,198,4379,25422,466,186,170,170,166,167,399,418,29662,26575,29931,24698,723,417,446,573,29003,25974,24638,25171,735,466,662,3957,12441,16201,27026,28488,31748,14984,2028,11465,19455,22092,30855,33745,29569,29217
298,2468,174,158,155,154,156,154,1375,10785,279,159,162,156,159,155,1863,10532,309,224,197,197,196,200,4373,25372,461,186,171,166,165,167,401,419,29635,26517,29907,24671,721,413,447,571,28956,25913,24613,25143,734,466,664,3949,12429,16175,27011,28464,31737,14980,2029,11438,19421,22041,30845,33720,29535,29203
300,2464,175,156,157,155,158,154,1377,10815,281,160,161,156,158,155,1859,10533,311,222,196,201,199,198,4366,25367,466,187,169,168,166,164,399,417,29629,26543,29918,24706,723,414,445,572,28932,25902,24603,25145,735,468,663,3953,12423,16191,27007,28486,31732,14985,2021,11446,19393,22041,30839,33732,29530,29211
297,2465,175,157,154,157,153,155,1379,10826,279,158,158,153,154,152,1861,10543,310,218,197,198,197,196,4365,25387,463,186,170,170,167,162,399,419,29618,26527,29919,24709,723,414,446,573,28911,25879,24587,25134,735,467,665,3957,12428,16198,27006,28492,31730,14986,2025,11458,19392,22038,30821,33713,29522,29214
299,2468,175,157,154,153,153,154,1382,10845,282,158,156,154,155,155,1861,10545,312,221,197,197,197,196,4366,25387,466,186,171,168,165,165,401,417,29625,26551,29920,24739,723,414,447,571,28895,25884,24582,25137,735,466,663,3959,12429,16211,27004,28512,31732,14990,2023,11468,19379,22044,30815,33725,29510,29218
302,2469,179,155,158,155,157,157,1384,10891,281,159,154,153,152,155,1863,10558,311,221,200,194,197,197,4361,25414,463,193,173,169,166,162,402,418,29653,26597,29941,24785,723,414,447,575,28895,25903,24576,25151,734,465,664,3965,12435,16231,27011,28537,31739,14994,2028,11491,19375,22069,30814,33749,29509,29242
298,2470,175,156,155,153,156,157,1386,10945,283,162,161,154,157,156,1862,10574,312,218,197,196,197,199,4363,25449,467,186,169,169,167,166,399,419,29673,26642,29962,24837,725,414,446,574,28889,25925,24579,25169,734,465,663,3975,12441,16256,27014,28566,31740,15004,2025,11520,19377,22102,30827,33776,29511,29266
297,2473,175,158,157,154,154,157,1395,10994,283,156,156,156,154,154,1863,10588,309,217,201,197,197,197,4364,25495,466,188,170,167,165,166,401,420,29706,26691,29990,24894,728,417,447,577,28907,25962,24591,25199,736,466,663,3984,12448,16281,27021,28598,31747,15013,2028,11553,19387,22143,30839,33820,29521,29297
298,2477,177,155,155,153,157,152,1393,11038,283,161,159,151,157,153,1865,10605,313,225,197,197,201,196,4365,25548,468,187,171,169,167,169,401,421,29733,26746,30015,24950,727,416,447,577,28921,26003,24602,25236,735,467,664,3991,12453,16306,27037,28632,31761,15025,2026,11589,19399,22184,30861,33867,29537,29325
299,2479,176,156,156,154,156,152,1399,11089,282,163,157,156,153,155,1865,10620,313,221,198,202,197,199,4366,25587,465,187,170,166,165,163,404,421,29777,26803,30042,24987,731,422,447,577,28950,26046,24623,25271,737,467,666,3999,12460,16325,27068,28679,31772,15027,2033,11619,19422,22234,30888,33913,29586,29357
298,2475,176,155,158,158,156,155,1387,10927,283,160,157,159,157,158,1867,10603,313,226,198,197,201,199,4376,25561,469,188,168,169,167,166,409,426,29709,26636,29925,24769,729,421,448,579,28909,25969,24626,25204,737,468,665,3980,12438,16208,27046,28561,31755,15003,2031,11591,19463,22160,30851,33815,29567,29253
301,2471,175,154,158,154,155,154,1373,10801,279,160,157,160,157,153,1867,10573,309,221,201,193,196,197,4361,25419,463,186,169,170,177,166,405,425,29578,26463,29843,24663,726,419,447,574,28817,25839,24581,25133,733,466,666,3956,12400,16145,26986,28486,31735,14997,2024,11503,19357,22010,30797,33719,29511,29196
299,2468,176,157,155,156,152,152,1370,10753,279,156,157,155,154,153,1867,10567,315,220,197,198,198,198,4353,25342,467,186,177,166,167,169,403,423,29502,26372,29782,24585,724,416,446,573,28725,25720,24548,25079,732,465,664,3943,12375,16098,26941,28415,31715,14980,2020,11460,19290,21917,30753,33647,29469,29140
298,2467,179,156,156,155,155,154,1368,10744,277,159,158,160,158,157,1863,10563,310,221,197,199,196,197,4346,25292,463,186,172,169,168,178,401,419,29483,26345,29767,24586,720,413,444,570,28685,25661,24527,25051,730,463,663,3938,12365,16094,26913,28404,31700,14975,2017,11439,19249,21877,30729,33617,29433,29132
300,2468,172,155,157,154,157,155,1372,10770,279,162,154,159,158,154,1863,10569,313,215,197,197,198,195,4343,25294,468,186,175,171,166,166,402,419,29484,26349,29752,24579,720,413,446,570,28658,25640,24507,25028,729,465,660,3945,12365,16101,26904,28395,31697,14979,2016,11449,19234,21867,30707,33587,29419,29115
301,2467,172,154,154,155,156,154,1373,10775,280,156,157,157,154,155,1863,10575,310,221,197,198,197,198,4337,25277,462,185,168,168,163,168,398,417,29474,26336,29744,24579,722,413,444,569,28633,25610,24482,25004,731,464,663,3944,12365,16099,26876,28385,31687,14975,2011,11447,19213,21843,30675,33563,29391,29104
295,2467,178,158,156,155,153,154,1374,10799,282,158,157,156,155,153,1863,10582,312,221,196,198,197,192,4333,25273,463,186,166,168,165,165,401,416,29467,26351,29748,24615,720,412,445,569,28611,25602,24459,24994,728,464,661,3951,12363,16113,26860,28394,31682,14977,2017,11460,19195,21843,30652,33551,29375,29113
298,2469,175,156,154,155,156,153,1376,10843,280,164,157,156,156,156,1865,10592,310,220,194,197,197,196,4329,25295,461,186,169,167,164,166,400,419,29484,26383,29769,24659,720,414,443,569,28607,25612,24449,25004,729,464,662,3959,12370,16139,26855,28405,31685,14984,2019,11482,19187,21861,30643,33562,29370,29127
301,2471,176,156,158,155,154,156,1380,10890,282,157,159,152,152,158,1863,10607,313,220,197,198,197,197,4329,25325,466,187,167,168,168,166,399,416,29504,26430,29782,24701,722,416,445,572,28609,25641,24448,25017,730,462,661,3967,12375,16158,26859,28430,31689,14989,2015,11507,19186,21887,30639,33579,29369,29139
297,2474,177,157,154,155,154,153,1382,10927,282,160,157,154,159,154,1868,10615,311,221,201,198,196,196,4328,25352,462,187,169,170,162,167,401,418,29532,26475,29801,24742,723,415,444,572,28623,25669,24452,25039,730,464,663,3975,12386,16181,26854,28460,31690,15000,2021,11533,19195,21920,30647,33608,29378,29162
302,2476,175,157,153,155,154,154,1388,10972,284,158,157,160,155,155,1866,10635,312,222,197,198,199,200,4325,25386,467,186,171,171,165,164,402,420,29558,26521,29827,24798,725,414,446,572,28645,25703,24463,25066,731,465,662,3985,12391,16205,26861,28486,31700,15007,2019,11563,19204,21957,30657,33642,29389,29185
300,2479,176,157,155,158,154,151,1385,10925,283,163,155,155,154,155,1867,10637,311,221,193,200,197,199,4334,25411,463,186,170,171,163,165,400,419,29545,26450,29766,24658,723,414,445,574,28629,25663,24468,25029,731,465,663,3981,12392,16150,26846,28393,31698,14986,2019,11567,19247,21942,30625,33561,29407,29106
297,2470,178,157,158,153,155,154,1365,10719,281,157,155,156,156,154,1863,10580,311,222,198,197,197,195,4326,25240,464,187,173,169,165,166,399,417,29401,26241,29659,24498,718,411,444,574,28530,25517,24425,24933,729,462,663,3947,12347,16045,26766,28282,31670,14969,2013,11468,19154,21764,30559,33441,29331,29016
299,2464,177,157,155,156,153,154,1360,10664,275,160,159,157,156,154,1862,10557,311,220,198,198,199,203,4314,25133,461,186,171,172,166,169,399,415,29341,26138,29593,24404,714,411,444,569,28467,25410,24392,24852,725,461,661,3938,12322,15994,26727,28205,31646,14951,2009,11409,19095,21667,30518,33350,29281,28946
297,2463,174,156,154,153,154,154,1359,10634,277,159,158,154,151,155,1858,10541,313,224,197,194,198,197,4307,25056,460,186,174,168,169,169,397,415,29287,26066,29543,24357,716,413,442,567,28406,25328,24345,24786,728,461,660,3929,12308,15966,26678,28159,31623,14942,2004,11373,19052,21597,30467,33275,29225,28911
294,2463,176,159,158,154,157,157,1365,10661,278,157,154,161,157,152,1859,10541,311,221,194,197,197,199,4297,25040,457,186,172,169,165,166,398,417,29293,26073,29537,24354,715,414,441,566,28390,25317,24315,24749,724,462,659,3934,12303,15977,26651,28137,31615,14940,2004,11370,19027,21586,30436,33236,29205,28901
299,2465,179,157,155,154,153,155,1360,10656,279,159,157,153,155,158,1858,10542,312,223,201,194,196,201,4299,25026,459,186,171,168,167,164,397,415,29271,26056,29507,24337,713,414,441,568,28365,25287,24276,24704,724,460,658,3933,12301,15973,26615,28109,31595,14935,2000,11365,19003,21562,30383,33180,29181,28879
296,2462,175,157,154,152,153,156,1362,10677,277,156,154,156,155,157,1855,10544,310,221,198,197,199,193,4295,25013,458,185,174,169,167,164,397,415,29273,26063,29503,24355,714,411,442,567,28350,25277,24248,24679,721,460,658,3939,12300,15980,26592,28105,31590,14934,2000,11368,18984,21553,30349,33146,29160,28874
300,2464,174,155,155,153,153,154,1366,10715,278,161,153,159,156,155,1857,10555,311,220,197,199,191,197,4288,25025,460,187,170,171,167,166,398,417,29284,26096,29512,24386,717,410,442,565,28355,25289,24225,24672,724,459,658,3945,12299,15997,26583,28120,31587,14938,2001,11384,18983,21568,30323,33143,29150,28880
301,2469,176,155,158,155,155,155,1366,10761,278,160,156,156,153,155,1855,10570,309,221,200,196,197,199,4285,25045,457,186,171,165,167,169,398,417,29317,26149,29525,24425,719,413,441,565,28378,25322,24219,24683,724,461,660,3953,12307,16021,26571,28134,31594,14943,2002,11404,18993,21604,30315,33156,29153,28899
297,2471,179,157,154,157,154,155,1373,10797,281,159,157,160,157,154,1857,10585,311,223,198,201,198,196,4286,25082,460,187,170,169,165,164,399,416,29357,26201,29535,24460,719,413,442,567,28391,25356,24213,24691,723,462,659,3956,12322,16050,26563,28150,31599,14955,2001,11429,19004,21636,30307,33163,29158,28921
300,2474,179,158,155,153,154,155,1375,10841,279,158,161,159,157,155,1858,10599,311,221,197,197,198,197,4286,25109,458,187,171,167,168,169,398,417,29395,26257,29558,24513,718,413,443,570,28419,25396,24218,24709,723,461,661,3967,12328,16076,26565,28175,31606,14959,2005,11456,19020,21678,30319,33195,29163,28947
297,2477,176,155,157,157,157,154,1380,10880,284,156,156,154,158,152,1859,10612,312,220,197,201,198,197,4288,25153,465,184,169,167,166,169,402,418,29430,26300,29562,24502,718,412,443,569,28443,25433,24225,24723,723,461,660,3975,12334,16083,26575,28172,31611,14956,2006,11483,19041,21718,30322,33194,29211,28935
299,2471,179,155,154,155,155,156,1363,10686,273,165,157,156,155,157,1858,10569,314,220,196,197,201,198,4291,25052,459,185,170,173,167,165,403,416,29328,26102,29444,24292,713,411,442,567,28377,25308,24201,24622,721,459,659,3947,12304,15963,26513,28034,31586,14933,2002,11421,19027,21578,30255,33056,29158,28829
296,2465,178,154,156,156,154,152,1357,10614,279,156,157,153,151,151,1853,10539,311,222,198,197,190,196,4279,24934,458,187,169,168,170,170,397,415,29249,25983,29372,24194,711,410,440,566,28310,25204,24158,24532,720,459,657,3933,12279,15908,26467,27959,31564,14915,1997,11350,18956,21464,30203,32952,29103,28761
298,2462,176,157,158,154,157,155,1355,10575,275,164,153,159,156,152,1850,10521,308,220,199,197,197,196,4274,24849,454,186,180,171,166,166,398,417,29197,25899,29321,24117,710,413,440,563,28256,25119,24115,24454,719,462,657,3925,12259,15869,26423,27892,31544,14903,1992,11298,18917,21381,30148,32863,29060,28707
296,2463,178,156,155,154,155,157,1354,10579,276,157,157,156,156,157,1850,10520,310,220,200,199,199,201,4264,24812,457,185,170,168,166,166,397,414,29167,25888,29302,24119,710,409,440,562,28231,25090,24069,24407,718,458,657,3925,12255,15875,26383,27873,31523,14892,1990,11279,18877,21353,30107,32811,29032,28701
300,2461,175,156,157,157,153,153,1351,10586,276,161,154,152,154,154,1850,10520,308,221,197,197,198,197,4261,24813,454,185,168,170,165,166,395,414,29161,25871,29281,24089,711,411,438,562,28211,25060,24037,24359,719,458,660,3925,12250,15872,26357,27841,31507,14890,1990,11280,18871,21339,30055,32753,29012,28688
298,2462,176,157,155,154,155,153,1353,10593,277,160,158,157,159,155,1848,10521,311,222,199,197,197,198,4258,24799,460,186,171,176,167,165,395,412,29148,25865,29265,24095,711,409,440,562,28199,25050,24001,24327,717,458,655,3928,12246,15876,26325,27826,31499,14886,1988,11275,18850,21323,30014,32710,29002,28677
298,2463,178,154,157,153,157,154,1356,10621,278,160,156,156,156,154,1848,10532,312,222,197,196,198,198,4257,24804,454,183,177,167,166,165,397,417,29164,25896,29278,24123,710,410,439,562,28205,25062,23975,24311,716,461,657,3933,12247,15889,26310,27831,31495,14887,1989,11284,18849,21334,29985,32687,28991,28686
297,2467,179,156,155,157,153,156,1359,10658,279,157,161,158,155,159,1849,10541,310,221,197,197,200,197,4254,24828,456,184,171,176,165,169,394,414,29182,25935,29290,24158,711,409,438,564,28220,25082,23962,24311,718,458,655,3939,12257,15913,26301,27846,31498,14887,1986,11301,18854,21357,29965,32690,28990,28705
296,2469,175,158,155,155,153,153,1363,10695,277,159,160,152,155,155,1849,10555,309,221,196,197,197,197,4255,24855,455,189,175,170,169,166,396,415,29218,25982,29306,24194,711,411,439,562,28243,25118,23956,24322,717,459,658,3947,12263,15938,26303,27867,31503,14898,1989,11320,18867,21388,29954,32698,28997,28720
298,2473,177,155,158,155,153,152,1363,10734,278,161,161,156,156,150,1849,10566,312,225,196,198,198,198,4253,24896,458,186,167,171,166,168,397,416,29255,26035,29333,24246,713,413,439,564,28276,25159,23962,24339,718,459,657,3953,12272,15963,26304,27890,31513,14903,1989,11344,18888,21433,29957,32718,29007,28743
296,2472,178,157,155,158,155,154,1368,10769,278,160,159,152,155,158,1850,10581,313,220,198,198,198,197,4255,24928,455,187,170,171,168,164,397,415,29303,26088,29339,24239,712,410,440,568,28314,25196,23965,24353,717,459,658,3963,12275,15977,26325,27899,31519,14901,1991,11367,18911,21467,29955,32718,29052,28735
298,2468,176,158,156,157,155,153,1354,10608,276,163,157,159,154,154,1850,10547,310,220,200,195,197,196,4260,24839,457,188,169,175,166,168,397,415,29213,25913,29236,24057,711,409,441,565,28254,25081,23941,24257,716,459,658,3936,12255,15871,26263,27771,31499,14883,1989,11307,18905,21343,29894,32581,29007,28639
296,2464,175,156,154,155,156,154,1351,10551,275,164,157,160,154,155,1847,10521,309,220,196,197,197,197,4249,24739,452,185,161,167,166,168,395,413,29151,25819,29176,23969,710,409,441,562,28206,24991,23898,24177,715,457,656,3925,12230,15827,26225,27701,31479,14868,1985,11245,18841,21246,29839,32491,28971,28578
299,2463,176,157,155,155,156,155,1345,10514,276,159,156,157,157,159,1845,10506,312,221,196,199,197,197,4243,24669,458,184,169,169,157,163,395,413,29107,25755,29130,23905,706,413,438,561,28160,24921,23854,24102,713,458,654,3916,12212,15797,26184,27640,31459,14855,1979,11196,18800,21172,29787,32404,28935,28547
298,2461,179,157,154,153,157,154,1348,10531,275,160,160,156,158,155,1843,10507,305,221,197,197,196,199,4235,24649,453,185,163,166,164,166,395,415,29109,25765,29123,23913,706,407,443,559,28150,24913,23817,24065,713,458,657,3918,12213,15813,26164,27635,31447,14851,1979,11183,18780,21160,29745,32359,28919,28535
298,2459,177,158,156,154,154,156,1348,10538,277,164,155,157,155,156,1844,10513,311,221,197,200,198,200,4235,24654,454,187,169,163,165,162,395,411,29095,25751,29105,23893,705,407,438,560,28136,24885,23783,24027,713,457,653,3923,12215,15812,26137,27612,31437,14844,1977,11180,18772,21145,29702,32301,28907,28527
298,2462,175,155,155,153,153,156,1349,10546,275,159,154,159,155,158,1841,10515,310,220,197,197,198,197,4232,24649,451,185,174,167,167,157,398,413,29099,25768,29098,23909,705,409,438,559,28138,24889,23751,24000,714,457,656,3925,12214,15824,26117,27613,31436,14847,1978,11178,18761,21136,29657,32274,28896,28527
298,2464,176,157,155,154,157,153,1351,10578,280,159,157,156,158,155,1845,10527,310,221,197,197,200,198,4232,24667,456,194,173,162,161,160,396,414,29116,25804,29119,23936,708,409,439,564,28147,24913,23730,23992,713,458,655,3931,12217,15847,26113,27625,31435,14850,1980,11188,18761,21158,29631,32260,28897,28541
297,2465,176,155,155,154,155,156,1355,10615,280,164,160,159,152,155,1843,10542,310,220,197,197,196,196,4231,24696,453,185,170,168,166,163,402,412,29152,25848,29138,23973,713,414,440,561,28183,24949,23724,24000,716,459,656,3939,12222,15867,26129,27658,31445,14857,1979,11207,18778,21193,29621,32267,28904,28563
296,2467,179,156,154,153,154,157,1355,10656,277,161,160,159,155,155,1845,10555,311,222,198,198,199,199,4229,24727,455,187,171,170,167,165,403,422,29172,25895,29157,24014,716,418,440,563,28229,24997,23724,24012,717,460,656,3950,12222,15890,26146,27698,31451,14862,1978,11226,18798,21234,29618,32276,28910,28583
296,2471,175,158,157,156,154,152,1359,10691,276,159,155,155,160,155,1847,10568,312,225,199,201,195,198,4233,24772,455,188,172,171,164,159,404,422,29190,25935,29187,24062,716,419,442,566,28262,25044,23727,24037,714,461,656,3957,12236,15913,26161,27739,31467,14872,1982,11251,18817,21270,29621,32307,28927,28616
298,2474,184,157,155,155,155,154,1362,10727,281,164,157,157,154,155,1847,10583,312,222,199,199,198,196,4235,24820,458,189,172,170,164,164,403,421,29221,25977,29197,24065,716,416,440,563,28291,25076,23730,24046,716,460,656,3967,12245,15931,26193,27755,31480,14871,1979,11274,18841,21315,29625,32317,28970,28602
297,2470,177,157,155,158,153,153,1351,10575,278,161,158,155,158,155,1846,10544,309,220,197,202,196,197,4241,24743,454,186,169,172,166,166,402,423,29146,25820,29103,23885,709,414,441,563,28241,24965,23712,23963,713,460,655,3940,12223,15830,26141,27636,31458,14852,1983,11221,18832,21196,29571,32188,28927,28512
297,2463,179,155,156,154,153,157,1345,10513,275,162,161,159,157,159,1843,10516,311,220,196,197,197,197,4231,24641,454,187,172,172,159,165,400,417,29088,25732,29041,23795,707,411,442,561,28189,24882,23668,23881,710,457,654,3925,12200,15787,26099,27560,31441,14833,1975,11149,18771,21095,29520,32087,28883,28449
296,2460,177,157,155,155,155,154,1344,10473,273,160,158,155,155,159,1841,10498,309,219,197,196,199,196,4223,24568,450,184,171,169,167,165,401,415,29048,25663,28991,23721,703,409,437,561,28154,24811,23622,23804,709,456,654,3917,12185,15754,26063,27503,31423,14822,1974,11094,18728,21013,29461,31995,28846,28396
298,2460,175,156,156,155,157,152,1341,10473,276,159,158,156,157,152,1840,10492,309,221,200,198,199,196,4224,24547,453,185,171,168,166,170,395,414,29032,25666,28980,23724,703,409,438,558,28135,24795,23585,23766,709,456,652,3919,12183,15767,26039,27499,31415,14820,1967,11073,18697,20991,29413,31951,28826,28395
296,2460,179,156,155,155,157,155,1341,10490,274,164,161,158,155,150,1839,10501,313,221,195,197,196,195,4219,24563,452,185,169,168,168,157,396,415,29040,25674,28973,23715,703,412,437,556,28133,24781,23545,23726,709,457,655,3921,12186,15775,26034,27489,31414,14819,1972,11077,18692,20984,29369,31896,28809,28376
296,2462,171,156,154,156,153,156,1343,10501,275,159,156,154,155,155,1839,10499,310,224,197,197,196,199,4219,24569,454,185,158,168,165,164,399,413,29046,25692,28972,23727,704,409,437,556,28127,24781,23515,23702,709,455,654,3922,12187,15794,26023,27493,31413,14818,1969,11071,18681,20984,29327,31859,28795,28375
295,2463,175,154,155,155,157,153,1345,10533,276,159,161,159,157,155,1838,10511,311,220,197,197,197,199,4217,24589,450,184,169,168,172,166,398,413,29078,25740,28987,23763,703,406,437,557,28153,24806,23490,23697,709,454,654,3930,12197,15817,26028,27517,31416,14826,1968,11078,18686,21005,29299,31853,28791,28401
296,2464,175,157,155,154,156,154,1349,10569,278,157,157,155,156,154,1837,10520,311,221,197,197,197,197,4221,24624,456,185,173,168,167,167,397,413,29111,25798,29017,23809,704,409,441,559,28173,24843,23482,23711,709,458,656,3940,12203,15843,26032,27549,31431,14833,1972,11100,18693,21037,29287,31867,28799,28416
297,2466,175,156,154,155,153,153,1353,10609,276,159,157,157,156,155,1840,10535,308,225,197,199,197,198,4222,24662,451,186,169,168,164,165,395,413,29156,25856,29042,23857,707,409,438,559,28204,24887,23480,23728,709,458,653,3948,12213,15875,26044,27574,31446,14846,1971,11116,18714,21082,29290,31885,28805,28447
296,2470,178,160,155,151,157,154,1354,10644,278,162,156,155,159,155,1840,10550,312,219,196,197,199,195,4222,24707,456,185,177,168,165,165,396,413,29192,25911,29073,23906,707,409,437,560,28242,24932,23479,23753,709,459,654,3954,12222,15905,26062,27613,31464,14857,1970,11143,18730,21124,29297,31911,28820,28476
297,2473,174,158,157,157,157,156,1357,10688,278,157,157,156,156,151,1839,10560,311,221,201,200,197,196,4225,24757,455,186,170,172,158,166,397,418,29243,25988,29114,23967,709,413,441,561,28284,24989,23491,23788,710,458,656,3964,12236,15937,26089,27659,31483,14866,1977,11175,18757,21180,29313,31959,28838,28508
296,2474,176,157,154,156,154,157,1358,10689,278,159,158,155,155,155,1842,10571,312,221,197,197,197,197,4233,24809,459,185,168,166,165,166,396,416,29268,25983,29094,23890,707,409,439,559,28300,24999,23506,23771,711,456,655,3971,12247,15917,26111,27624,31491,14855,1975,11193,18798,21198,29310,31924,28866,28453
296,2467,179,157,157,157,154,153,1343,10524,275,163,154,161,156,159,1838,10522,311,220,199,197,199,196,4232,24681,452,185,173,169,163,165,398,413,29172,25823,29003,23748,703,408,439,561,28237,24889,23471,23693,709,456,653,3937,12211,15823,26067,27534,31475,14841,1973,11104,18742,21055,29255,31812,28816,28377
299,2462,177,155,154,154,155,151,1337,10473,274,159,161,152,157,154,1836,10499,309,222,196,197,197,196,4223,24596,453,184,170,167,166,168,394,413,29119,25749,28955,23662,703,408,439,553,28188,24808,23435,23617,707,455,653,3927,12194,15783,26038,27470,31461,14827,1967,11044,18687,20958,29211,31725,28783,28314
299,2457,178,156,155,156,153,156,1336,10439,273,162,157,156,159,155,1833,10478,309,220,195,200,195,197,4219,24537,450,185,168,171,160,165,392,411,29085,25698,28914,23611,700,404,439,559,28145,24746,23388,23557,706,455,655,3916,12180,15761,26011,27425,31448,14819,1965,10992,18643,20887,29162,31646,28735,28272
296,2458,175,155,157,157,154,153,1336,10459,275,159,160,159,155,155,1835,10482,310,223,195,196,196,196,4218,24541,451,185,167,170,164,163,394,411,29089,25727,28918,23627,701,407,437,556,28143,24757,23357,23535,707,457,653,3919,12183,15784,26003,27439,31449,14822,1962,10986,18624,20891,29127,31622,28722,28273
297,2456,178,155,155,157,154,153,1339,10464,272,162,158,159,155,155,1832,10483,309,219,196,196,201,199,4218,24556,449,185,171,173,173,169,394,411,29093,25741,28919,23635,701,409,439,559,28137,24743,23327,23505,705,456,651,3922,12189,15799,26003,27434,31450,14823,1962,10983,18614,20881,29095,31588,28703,28267
298,2461,176,160,158,156,154,156,1339,10486,276,163,159,158,156,159,1831,10491,310,219,196,195,196,199,4217,24573,453,185,171,167,166,164,394,413,29101,25767,28934,23664,702,407,439,556,28144,24763,23295,23491,708,454,653,3929,12192,15822,26005,27460,31458,14827,1963,10988,18609,20894,29066,31574,28689,28275
295,2462,175,158,155,148,157,154,1343,10522,279,159,161,159,155,155,1831,10504,308,223,196,198,197,199,4219,24603,450,188,169,164,165,166,395,413,29133,25821,28961,23710,702,405,439,557,28164,24798,23285,23503,706,454,652,3933,12202,15852,26020,27493,31471,14837,1963,11003,18615,20926,29058,31590,28685,28300
295,2464,173,157,158,153,155,156,1347,10564,277,156,157,158,154,158,1833,10515,312,220,197,197,197,200,4221,24651,457,184,167,171,169,164,397,413,29162,25884,28993,23767,704,411,441,559,28189,24845,23280,23518,707,457,653,3943,12213,15887,26040,27534,31485,14849,1965,11032,18625,20970,29057,31610,28687,28322
299,2467,175,156,156,152,155,154,1347,10608,276,160,157,160,152,156,1834,10527,309,220,196,196,195,197,4222,24697,453,184,172,167,167,167,396,414,29215,25952,29031,23818,708,411,440,558,28225,24898,23293,23547,709,457,654,3952,12226,15915,26064,27575,31509,14858,1968,11056,18646,21017,29070,31647,28710,28351
297,2472,176,156,154,157,153,158,1352,10643,276,163,157,153,155,154,1834,10541,310,221,198,198,196,194,4227,24748,456,188,169,167,164,169,397,415,29249,26017,29073,23881,709,411,440,561,28258,24954,23295,23580,710,458,655,3961,12238,15952,26088,27619,31527,14874,1967,11084,18671,21071,29090,31693,28715,28383
297,2473,179,159,153,149,154,154,1355,10691,277,157,158,156,155,158,1833,10554,309,222,196,197,199,197,4228,24808,452,188,170,167,167,166,396,415,29301,26087,29124,23955,709,414,443,563,28302,25015,23314,23625,710,458,657,3969,12251,15987,26123,27674,31545,14888,1970,11118,18692,21127,29125,31749,28741,28427
297,2475,173,159,154,157,155,152,1358,10705,278,164,158,155,155,155,1835,10573,312,221,196,195,196,197,4239,24867,457,187,169,166,165,165,399,415,29332,26100,29115,23894,707,408,439,561,28322,25035,23332,23627,710,459,654,3976,12265,15977,26156,27654,31563,14883,1971,11146,18748,21174,29127,31738,28793,28384
296,2468,176,156,156,152,153,154,1343,10533,273,162,157,159,155,156,1835,10522,310,221,197,197,198,198,4240,24751,453,184,170,161,165,169,395,413,29229,25941,29031,23764,705,407,439,562,28263,24929,23310,23562,709,456,654,3946,12231,15887,26119,27574,31549,14868,1969,11065,18700,21035,29087,31647,28741,28311
295,2465,176,156,155,157,156,161,1340,10492,276,160,158,157,159,159,1830,10499,314,225,200,198,199,198,4233,24686,456,185,170,167,165,166,396,414,29187,25884,28997,23699,703,408,442,559,28219,24873,23288,23516,709,457,652,3939,12213,15853,26109,27535,31539,14863,1966,11014,18651,20958,29059,31589,28711,28268
296,2462,178,157,155,154,154,156,1337,10463,274,162,157,154,159,155,1831,10482,312,220,196,197,195,197,4230,24640,452,184,170,163,166,165,396,413,29166,25855,28982,23670,703,408,438,559,28193,24835,23263,23479,707,457,653,3928,12207,15839,26097,27522,31535,14860,1963,10974,18615,20903,29039,31546,28670,28244
296,2461,179,157,157,157,155,149,1339,10489,275,158,153,159,156,155,1828,10489,310,220,196,196,196,196,4227,24648,454,184,169,169,166,165,394,412,29181,25902,28996,23703,703,407,438,559,28191,24850,23247,23479,709,458,652,3933,12204,15869,26115,27549,31542,14866,1961,10975,18601,20922,29031,31551,28667,28250
297,2460,175,158,153,154,153,153,1343,10497,275,160,156,160,154,154,1827,10489,308,223,197,196,195,198,4233,24677,451,188,170,173,165,165,392,414,29192,25915,29007,23720,705,409,441,558,28193,24861,23229,23462,708,458,653,3937,12217,15883,26122,27563,31546,14869,1963,10983,18607,20928,29020,31543,28662,28257
294,2463,174,159,156,156,155,157,1345,10520,275,159,161,160,154,156,1826,10497,305,221,195,197,196,197,4228,24699,455,185,169,172,168,165,398,413,29210,25954,29026,23755,704,409,440,561,28199,24886,23210,23473,709,459,654,3942,12218,15907,26131,27594,31548,14877,1963,10992,18599,20947,29010,31553,28654,28270
295,2465,177,159,154,154,155,154,1343,10555,275,159,159,159,153,158,1828,10508,311,220,197,195,195,196,4232,24736,454,188,167,169,166,166,396,412,29240,26009,29059,23806,712,409,440,561,28215,24919,23212,23489,710,457,653,3952,12227,15943,26157,27634,31568,14880,1965,11011,18606,20983,29014,31573,28659,28297
297,2470,176,159,156,156,154,153,1347,10597,276,159,153,155,155,151,1827,10518,309,219,197,197,196,196,4234,24781,457,184,170,169,164,169,397,414,29276,26075,29095,23861,706,411,440,562,28233,24964,23221,23520,710,458,654,3959,12235,15971,26187,27684,31583,14896,1966,11038,18621,21026,29039,31615,28671,28333
299,2470,178,159,153,158,153,153,1351,10638,276,157,158,154,155,158,1828,10535,311,217,196,199,197,196,4236,24836,456,188,165,172,166,166,396,415,29313,26135,29138,23923,710,410,440,561,28263,25011,23229,23553,711,458,655,3967,12245,16007,26215,27737,31599,14907,1971,11068,18636,21074,29052,31659,28687,28366
296,2474,174,157,155,155,154,153,1355,10676,278,159,161,156,155,158,1829,10547,314,221,196,200,195,197,4241,24882,458,185,169,167,164,159,397,416,29351,26203,29181,23993,710,413,441,564,28294,25067,23249,23602,713,459,654,3977,12256,16038,26249,27795,31619,14919,1969,11101,18655,21127,29080,31719,28707,28405
297,2475,177,157,154,153,154,156,1358,10725,277,160,159,156,156,154,1829,10560,309,222,197,196,200,198,4241,24937,455,186,167,166,169,166,398,417,29407,26271,29210,24024,711,412,442,567,28330,25127,23278,23647,710,460,659,3986,12267,16065,26303,27845,31639,14926,1975,11133,18691,21190,29119,31769,28772,28434
297,2471,176,155,157,155,156,152,1349,10602,277,163,153,156,159,157,1834,10538,310,221,197,198,197,199,4257,24909,457,189,170,175,167,171,398,417,29343,26141,29133,23877,708,411,442,565,28279,25047,23288,23605,711,459,654,3967,12254,15979,26282,27757,31634,14918,1971,11102,18711,21113,29097,31699,28744,28359
295,2467,176,158,154,158,154,155,1342,10539,272,161,161,155,158,155,1827,10510,309,224,197,199,196,198,4246,24823,454,187,174,170,166,170,394,417,29297,26082,29100,23819,704,409,442,562,28241,24995,23271,23574,709,458,654,3955,12234,15946,26276,27730,31626,14911,1968,11046,18650,21039,29088,31666,28715,28322
296,2465,173,158,158,154,156,153,1342,10511,275,159,160,156,157,151,1825,10490,309,217,197,201,195,195,4243,24781,456,185,168,163,166,165,396,413,29268,26051,29084,23792,706,410,441,562,28207,24956,23263,23555,709,459,653,3947,12222,15925,26263,27707,31631,14909,1967,11013,18615,20994,29081,31651,28695,28302
293,2465,173,159,154,152,157,154,1340,10521,274,157,160,156,151,153,1823,10487,309,221,197,197,196,196,4238,24775,456,188,175,166,165,165,394,418,29278,26081,29107,23831,712,410,440,560,28209,24973,23261,23567,713,461,652,3949,12218,15949,26275,27743,31631,14916,1967,11007,18595,20997,29091,31667,28690,28323
296,2463,181,158,155,154,155,155,1342,10539,276,163,157,155,155,156,1824,10495,310,221,199,197,195,197,4242,24813,456,187,172,169,166,165,397,413,29290,26111,29121,23852,707,408,441,561,28213,24984,23258,23572,712,459,653,3956,12226,15967,26290,27763,31639,14922,1965,11023,18608,21025,29093,31676,28691,28327
295,2464,175,155,158,157,153,154,1341,10551,274,160,156,155,155,154,1822,10494,308,221,199,199,197,196,4242,24834,454,184,176,171,166,166,395,414,29302,26141,29145,23894,708,411,442,562,28215,25011,23260,23587,712,461,654,3957,12231,15986,26302,27795,31644,14930,1967,11035,18607,21042,29102,31701,28690,28351
295,2466,175,159,157,154,149,152,1345,10585,277,157,161,152,154,155,1821,10502,310,221,195,197,197,197,4242,24863,458,185,168,167,166,159,397,414,29319,26193,29173,23944,709,410,441,563,28233,25050,23265,23615,714,460,656,3966,12231,16015,26328,27839,31655,14940,1969,11063,18618,21082,29115,31739,28701,28383
295,2469,175,157,158,157,159,154,1349,10633,278,166,153,153,153,155,1820,10516,308,221,196,198,195,200,4245,24908,454,186,177,171,167,168,397,417,29365,26259,29219,24011,711,410,440,564,28263,25106,23284,23657,712,459,656,3975,12246,16047,26358,27891,31671,14948,1969,11089,18635,21135,29145,31799,28713,28419
295,2471,176,157,157,157,154,153,1352,10679,277,159,154,153,151,155,1827,10530,313,220,198,197,195,196,4248,24965,460,184,170,166,167,161,397,418,29398,26321,29262,24074,714,410,443,565,28289,25159,23310,23705,715,460,654,3984,12256,16080,26392,27945,31689,14962,1971,11123,18657,21191,29187,31861,28741,28459
295,2470,175,156,158,156,156,155,1357,10720,277,164,155,152,157,156,1824,10541,310,221,200,198,195,196,4250,25015,456,185,170,169,164,168,399,416,29443,26389,29298,24135,713,411,441,566,28323,25218,23333,23755,713,462,657,3995,12268,16111,26422,27997,31708,14973,1975,11157,18690,21255,29223,31933,28767,28505
295,2475,175,159,161,157,161,153,1360,10766,280,161,155,154,159,152,1825,10557,312,220,197,197,196,196,4253,25068,462,186,170,165,172,166,401,420,29477,26455,29350,24211,719,413,444,567,28353,25284,23371,23810,715,462,656,4001,12273,16142,26451,28054,31725,14988,1979,11197,18707,21312,29273,32011,28795,28550
295,2477,175,156,154,153,153,152,1362,10806,279,163,161,157,156,159,1825,10574,311,221,196,197,198,196,4258,25135,458,186,169,166,170,163,400,419,29524,26513,29373,24218,715,412,444,569,28397,25331,23407,23853,716,462,659,4013,12291,16167,26516,28093,31747,14992,1982,11236,18754,21387,29322,32055,28885,28565
298,2474,176,157,151,155,143,154,1348,10634,278,158,157,151,153,153,1827,10539,311,221,197,197,196,197,4270,25069,461,179,173,166,163,168,401,420,29432,26342,29272,24055,711,412,445,566,28327,25235,23411,23807,717,462,654,3986,12265,16058,26472,27996,31737,14983,1981,11183,18765,21286,29304,31987,28843,28491
295,2465,176,158,154,155,151,151,1342,10570,275,159,156,159,155,156,1826,10507,308,222,197,196,198,196,4258,24983,459,190,170,168,166,169,399,418,29378,26269,29244,24003,711,411,443,566,28291,25181,23413,23791,716,463,655,3973,12243,16021,26455,27961,31735,14972,1978,11133,18701,21211,29301,31969,28817,28463
298,2462,175,155,161,154,152,154,1340,10535,277,159,157,159,152,155,1821,10486,310,221,196,197,195,197,4255,24924,460,185,170,171,163,167,396,416,29340,26232,29233,23972,712,409,445,564,28253,25145,23418,23776,715,463,653,3966,12233,16000,26448,27939,31726,14967,1973,11098,18667,21163,29307,31958,28793,28443
294,2460,177,158,154,152,159,160,1340,10537,274,159,159,155,156,155,1820,10475,309,224,197,197,197,196,4250,24906,453,187,169,166,165,166,397,415,29342,26249,29251,24011,710,412,442,566,28248,25142,23413,23798,714,461,655,3963,12231,16012,26445,27959,31725,14974,1975,11099,18644,21164,29321,31986,28785,28468
289,2462,180,158,155,152,155,154,1340,10558,277,159,154,160,155,155,1822,10482,309,222,197,196,196,197,4254,24935,456,187,170,167,183,167,397,415,29345,26260,29262,24033,711,412,443,567,28255,25161,23427,23808,718,465,653,3966,12235,16025,26461,27982,31724,14979,1973,11113,18668,21193,29338,32014,28796,28481
297,2463,175,157,153,154,151,161,1343,10572,275,163,157,160,156,155,1818,10483,309,221,197,197,197,197,4253,24946,457,186,170,168,169,165,397,418,29351,26287,29290,24068,711,413,444,566,28263,25183,23432,23828,715,463,657,3972,12237,16044,26467,28010,31733,14986,1977,11127,18668,21215,29355,32047,28797,28507
297,2465,175,156,156,153,154,153,1346,10611,276,159,155,157,153,151,1820,10491,313,220,197,198,197,196,4252,24971,458,185,170,167,169,169,399,418,29365,26330,29318,24124,714,411,443,565,28273,25223,23449,23861,719,461,657,3976,12240,16071,26486,28048,31743,14991,1976,11155,18671,21251,29387,32095,28811,28541
295,2464,176,157,154,154,152,157,1350,10652,275,162,156,156,155,155,1819,10497,309,220,197,195,197,199,4251,25004,456,186,170,168,167,165,398,415,29395,26383,29351,24187,714,411,445,570,28294,25264,23467,23907,719,463,655,3980,12248,16093,26500,28090,31753,15001,1980,11185,18685,21297,29415,32155,28830,28577
295,2468,179,157,155,153,157,153,1353,10699,279,155,159,158,157,151,1821,10510,310,221,197,197,197,195,4250,25051,457,185,173,167,166,169,400,417,29429,26441,29391,24253,715,414,444,565,28317,25319,23497,23957,717,464,654,3988,12258,16120,26530,28143,31766,15011,1981,11219,18707,21351,29453,32219,28851,28615
