 EMG Channel 
2317.071237
2323.329726
2321.362772
2313.89729
2316.557147
2323.217967
2323.329726
2314.210214
2319.932261
2329.588214
2331.912796
2327.621261
2319.373467
2326.660136
2334.349136
2332.426886
2329.297641
2333.164493
2330.705801
2326.771894
2321.921566
2324.693182
2331.085781
2327.420095
2324.402609
2321.116903
2321.496883
2321.094551
2321.675697
2333.857397
2339.378278
2334.14797
2324.983755
2328.202406
2331.689278
2326.101342
2330.258766
2329.02942
2325.94488
2331.219891
2327.956537
2317.831197
2321.608641
2324.737886
2327.934185
2332.024554
2325.699011
2321.58629
2319.865205
2316.691258
2326.503673
2333.11979
2324.223795
2324.603775
2324.313202
2326.526025
2323.64265
2321.541586
2324.827293
2337.187807
2326.59308
2313.941993
2312.019743
2319.149949
2318.747618
2315.908947
2318.479397
2322.61447
2329.007069
2329.543511
2332.873921
2326.950708
2322.994449
2327.621261
2334.907929
2328.671793
2335.869054
2328.202406
2324.089685
2326.07899
2326.548377
2328.180054
2319.149949
2318.635859
2313.226737
2317.182996
2319.149949
2313.718476
2315.014877
2318.971135
2317.406513
2307.281173
2314.590194
2324.492016
2314.187862
2318.166473
2319.820502
2319.529929
2319.105246
2316.244223
2318.322935
2321.049848
2325.386086
2325.967232
2323.620298
2325.05081
2330.482284
2327.643612
2324.760237
2320.602813
2321.20631
2324.424961
2322.815636
2323.553243
2330.169359
2329.543511
2318.121769
2322.010973
2330.661098
2337.344269
2327.464798
2321.854511
2327.643612
0.0
2520.472112
2499.193251
2485.60339
2484.552858
2487.950324
2496.555745
2496.511042
2501.204908
2508.044542
2509.81033
2514.213623
2533.056144
2538.398211
2544.053202
2548.411792
2550.021118
2553.060955
2551.362223
2555.541999
2553.262121
2555.698461
2551.272816
2544.656699
2544.343775
2552.703327
2553.195066
2549.104696
2543.941443
2548.724717
2543.561464
2539.605205
2536.990051
2534.79958
2533.167903
2541.862731
2550.646967
2552.725679
2551.898664
2543.963795
2547.249502
2551.58574
2545.282548
2539.091115
2541.214531
2543.00267
2546.556598
2541.125124
2534.888987
2537.146513
2543.561464
2539.381688
2539.627557
2537.75001
2543.963795
2547.22715
2543.092077
2539.694612
2541.147475
2542.35447
2535.850112
2533.7714
2539.068763
2544.343775
2535.470132
2532.184426
2541.438048
2537.191217
2530.016307
2525.680068
2523.981336
2521.321478
2521.85792
2518.259289
2517.164054
2509.765626
2504.535318
2506.681085
2505.07176
2509.989144
2505.787016
2494.879364
2494.18646
2496.064007
2499.863803
2499.416768
2502.411902
2509.497405
2502.143681
2504.110635
2502.031923
2502.881289
2506.770492
2507.552803
2504.803539
2512.24667
2513.721885
2505.20587
2503.730655
2511.643173
2515.040638
2516.247632
2509.452702
2511.419655
2515.845301
2513.610126
2515.845301
2519.0416
2516.493501
2513.14074
2515.107693
2517.365219
2518.236937
2518.058123
2517.253461
2512.984277
2510.033847
2509.497405
2508.603335
2514.124216
2520.986202
2515.398266
2514.593603
2510.190309
2516.202929
2524.987164
2526.7306
2523.109618
2525.18833
2533.614937
2533.302013
2521.924975
2521.500292
2530.619804
2530.910376
2524.271908
2527.24469
2526.127103
2519.667449
2513.27485
2515.06299
2521.880272
2524.115446
2527.289394
2527.62467
2530.530397
2531.156246
2528.116408
2524.853054
2528.854016
2531.692687
2528.563443
2523.869577
2536.118333
2538.487618
2521.209719
2520.852091
2525.233033
2518.639269
2509.989144
2500.422597
2499.014437
2503.328324
2504.267097
2499.975562
2501.406074
2504.892946
2509.899737
2500.623763
2495.661675
2496.823966
2495.929896
2497.539222
2497.51687
2498.075664
2496.555745
2497.718036
2500.735521
2503.775359
2501.406074
2495.527565
2494.991123
2493.761777
2497.136891
2495.862841
2492.64419
2489.82787
2494.70055
2496.891021
2495.795786
2492.040693
2496.48869
2497.539222
2497.293353
2503.551841
2512.537242
2509.251536
2510.011495
2510.190309
2506.055237
2507.843376
2507.619859
2510.547937
2508.893908
2509.877385
2511.576117
2511.196138
2508.91626
2512.157263
2505.898774
2507.284583
2508.625687
2511.48671
2509.229184
2504.244745
2502.858937
2503.596545
2504.937649
2506.569327
2508.178652
2506.323458
2510.279716
2509.989144
2501.629591
2497.248649
2494.387626
2491.973638
2494.275867
2503.507138
2510.793806
2500.243783
2497.628629
2502.076626
2503.730655
2491.75012
2488.553821
2492.063045
2493.582963
2492.465376
2493.359446
2496.466338
2505.138815
2502.546013
2503.194213
2513.900699
2522.819045
2517.834606
2512.201966
2513.811292
2515.621783
2505.563498
2510.749103
2511.531414
2518.371048
2527.401153
2520.695629
2512.76076
2520.360353
2525.613013
2520.494464
2517.298164
2518.01342
2520.896795
2514.772417
2518.058123
2521.656754
2525.389496
2520.852091
2519.667449
2524.718943
2529.256347
2530.485693
2536.431257
2531.402115
2530.038658
2536.20774
2536.051278
2536.274795
2538.308804
2538.957004
2539.180522
2535.157208
2531.133894
2537.347679
2540.923958
2538.64408
2541.750972
2544.053202
2538.532321
2533.637289
2541.773324
2551.652795
2554.133839
2543.315595
2542.779153
2544.857865
2545.617824
2543.583816
2540.253406
2538.308804
2546.489542
2548.232978
2548.970586
2554.826743
2552.435106
2552.457458
2550.982243
2558.045394
2559.408851
2555.162019
2556.234903
2556.860752
2554.469115
2550.445801
2548.747068
2546.176618
2549.819952
2550.937539
2545.170789
2548.903531
2549.261159
2548.836475
2540.454571
2535.067801
2539.202874
2540.879254
2547.204798
2545.997804
2539.985185
2544.589644
2542.466228
2534.956042
2534.978394
2532.922033
2531.60328
2534.665469
2537.079458
2532.474999
2534.263138
2532.050315
2532.251481
2536.833589
2539.761667
2535.157208
2531.60328
2529.993955
2529.323403
2524.361315
2524.204853
2538.621728
2546.511894
2538.621728
2541.996842
2538.800542
2543.226188
2550.289339
2551.652795
2560.638197
2559.252388
2565.488525
2565.108545
2565.220304
2565.890856
2566.337891
2566.762575
2563.074537
2568.528362
2574.295112
2571.434089
2569.936522
2570.495316
2568.193086
2567.366072
2567.187258
2569.802412
2568.483659
2562.672205
2556.97251
2557.039566
2562.180467
2565.957912
2566.360243
2569.936522
2564.840325
2566.874333
2564.90738
2562.962778
2571.478793
2565.756746
2558.425374
2553.664452
2556.45842
2557.799525
2554.782039
2558.112449
2559.230037
2565.756746
2562.98513
2557.933635
2554.469115
2562.22517
2559.475906
2553.37388
2555.229074
2557.620711
2559.364147
2546.780115
2529.54692
2536.028926
2542.041545
2532.609109
2528.406981
2524.428371
2535.336022
2533.056144
2528.496388
2527.468208
2526.7306
2528.898719
2526.149455
2528.116408
2525.210682
2527.669373
2529.010478
2524.026039
2524.584833
2527.915243
2524.093094
2524.428371
2532.005612
2534.441952
2530.195121
2526.663545
2527.512911
2535.671298
2536.498313
2530.619804
2536.766533
2536.878292
2539.247577
2540.141647
2538.957004
2540.834551
2543.762629
2544.835513
2550.155228
2542.555635
2539.02406
2544.27672
2547.964757
2542.332118
2534.665469
2536.453609
2538.085286
2532.407943
2529.591623
2530.709211
2528.027001
2524.16015
2532.810275
2536.967699
2526.171807
2526.350621
2529.077533
2531.804446
2528.384629
2531.98326
2528.786961
2529.770437
2524.338964
2522.8861
2532.251481
2527.334097
2525.389496
2529.144589
2527.62467
2522.126141
2520.025077
2523.26608
2522.081437
2521.85792
2514.213623
2504.669428
2513.207795
2527.222339
2518.102827
2515.666487
2523.579004
2526.283565
2530.932728
2531.08919
2531.200949
2535.17956
2527.289394
2524.227205
2526.909414
2529.41281
2525.680068
2524.271908
2528.205815
2534.374897
2530.150417
2520.58387
2522.439065
2528.697554
2526.372972
2522.528472
2517.63344
2524.070743
2527.870539
2531.871501
2536.006574
2540.968661
2538.241749
2530.642155
2528.339926
2529.345754
2532.586757
2533.994917
2534.509007
2536.185388
2531.692687
2526.7306
2532.095019
2534.173731
2537.10181
2534.553711
2527.24469
2531.715039
2534.620766
2530.798618
2532.139722
2531.960908
2530.262176
2531.33506
2530.820969
2528.362278
2531.916205
2536.72183
2529.859844
2528.474036
2530.820969
2539.582853
2532.385592
2518.460455
2518.035772
2519.756856
2516.717019
2515.934708
2517.365219
2517.253461
2522.707286
2515.957059
2515.107693
2520.539167
2518.639269
2516.22528
2517.074647
2523.422542
2520.270946
2512.805463
2516.046466
2518.706324
2515.845301
2510.950269
2509.340943
2517.722847
2522.416714
2521.813216
2523.891929
2522.014382
2517.789902
2516.60526
2518.192234
2513.230147
2516.73937
2517.320516
2516.024115
2514.414789
2517.856958
2517.834606
2518.348696
2517.409923
2522.997859
2521.947327
2516.895833
2522.081437
2520.762684
2526.887062
2523.579004
2515.71119
2517.856958
2519.510987
2518.169882
2520.360353
2526.954118
2528.809312
2529.792789
2520.31565
2517.275812
2526.127103
2521.075609
2519.466283
2521.47794
2520.874443
2521.768513
2517.298164
2521.85792
2517.901661
2502.523661
2500.690818
2494.499385
2487.90562
2490.610181
2480.507193
2471.432384
2472.9076
2475.232181
2473.354634
2473.354634
2481.423614
2482.697664
2479.814289
2477.042672
2480.551896
2478.29437
2476.796803
2475.835678
2473.600504
2475.031015
2471.186515
2465.375062
2466.850277
2472.684082
2477.445004
2474.494573
2477.534411
2476.215658
2472.460565
2470.717129
2470.60537
2472.237047
2479.479012
2481.065986
2483.815251
2484.552858
2485.692797
2484.776376
2480.529544
2474.360463
2477.534411
2479.233143
2475.723919
2477.713225
2484.016417
2483.368216
2482.451794
2478.786108
2470.73948
2468.236085
2463.653977
2456.546123
2459.898884
2475.85803
2484.95519
2486.586867
2493.985295
2498.835623
2507.731617
2507.12812
2496.823966
2495.885193
2501.987219
2505.96583
2507.105769
2508.893908
2504.535318
2501.87546
2498.79092
2505.764664
2511.151434
2514.526548
2508.558632
2505.876423
2506.837548
2506.211699
2504.647077
2502.143681
2504.110635
2501.294315
2494.56644
2495.393454
2502.546013
2508.804501
2505.07176
2498.27683
2507.329286
2507.441045
2501.093149
2500.020266
2507.038713
2513.990106
2509.251536
2506.591678
2505.20587
2508.893908
2507.955135
2503.216565
2505.898774
2509.229184
2502.143681
2502.434254
2508.91626
2509.29624
2510.32442
2512.76076
2513.990106
2515.957059
2514.81712
2507.731617
2506.99401
2510.011495
2513.721885
2509.855033
2510.592641
2514.705362
2509.184481
2503.216565
2503.775359
2500.981391
2503.104806
2516.873481
2524.227205
2529.54692
2528.608147
2522.483769
2527.132932
2527.512911
2528.965775
2526.574138
2530.016307
2527.579966
2523.757818
2527.065876
2529.725734
2532.385592
2528.675202
2527.714077
2529.569272
2527.24469
2525.881234
2524.964812
2520.807388
2519.309821
2520.650926
2519.600394
2517.924013
2520.360353
2518.080475
2515.666487
2514.906527
2512.671353
2508.737446
2514.794769
2513.386609
2510.771455
2511.397304
2512.090208
2519.466283
2522.662583
2519.019248
2523.78017
2521.299126
2511.799635
2517.342868
2518.683972
2514.459492
2514.325382
2521.768513
2523.891929
2516.918184
2508.893908
2515.1971
2515.264155
2515.733542
2516.940536
2520.717981
2521.232071
2521.813216
2528.295222
2530.485693
2535.268967
2551.943368
2547.584778
2529.390458
2528.921071
2541.058068
2540.409868
2538.912301
2535.648946
2530.150417
2531.245653
2529.502217
2534.106676
2537.75001
2531.670336
2521.701458
2518.505158
2522.103789
2523.310783
2521.701458
2517.566385
2522.662583
2531.111542
2516.381743
2502.054274
2512.671353
2515.420618
2515.867652
2514.034809
2520.58387
2529.055182
2517.521681
2506.703437
2509.072722
2509.989144
2508.826853
2508.02219
2510.257365
2513.498367
2512.537242
2514.884176
2513.721885
2516.448798
2513.476016
2513.990106
2516.046466
2518.929841
2522.595527
2522.416714
2516.381743
2512.358429
2518.505158
2518.169882
2509.631516
2513.096036
2513.051333
2503.864766
2506.971658
2508.625687
2507.731617
2508.737446
2506.636382
2506.368161
2510.614992
2514.839472
2502.63542
2501.808405
2499.863803
2495.371103
2500.400245
2506.211699
2512.470187
2506.412864
2498.500347
2495.527565
2499.506175
2512.604298
2512.358429
2505.429388
2501.763702
2508.648039
2507.217527
2497.941553
2490.476071
2492.845356
2490.85605
2493.493556
2491.168975
2489.291428
2492.1301
2492.26421
2493.717074
2496.891021
2496.309876
2490.409015
2490.274905
2489.17967
2488.442062
2485.893963
2485.625742
2486.609219
2489.783167
2496.064007
2485.648094
2485.961018
2487.01155
2488.240896
2487.01155
2491.794824
2492.375969
2489.917277
2485.737501
2489.783167
2489.559649
2494.208812
2496.555745
2492.577135
2496.041655
2494.611143
2492.420672
2490.453719
2487.749158
2492.532431
2494.879364
2494.834661
2499.394417
2500.623763
2496.443986
2500.534356
2499.237955
2496.153414
2502.881289
2503.864766
2505.988181
2506.569327
2509.095074
2503.015399
2497.829795
2500.512004
2502.25544
2503.507138
2499.796748
2502.925992
2500.444949
2497.181594
2497.293353
2500.288487
2498.634457
2494.94642
2496.48869
2505.943478
2509.162129
2507.150472
2509.184481
2507.306934
2503.261269
2501.406074
2500.176728
2499.014437
2508.111597
2510.883213
2505.898774
2507.12812
2516.158225
2515.398266
2506.882251
2506.837548
2504.490614
2503.596545
2503.931821
2498.477995
2501.428425
2505.228222
2502.747178
2504.803539
2507.619859
2506.010533
2500.802577
2497.00278
2500.064969
2506.859899
2507.172824
2498.187423
2497.047484
2505.474091
2508.692742
2491.504251
2487.324475
2491.23603
2493.515908
2487.615047
2481.468318
2475.768623
2478.272018
2473.913428
2477.78028
2477.467355
2480.462489
2475.813326
2474.986312
2468.660768
2463.94455
2471.141812
2471.655902
2473.131117
2470.851239
2471.521791
2471.588847
2465.017434
2467.140849
2473.689911
2476.461527
2476.729748
2476.327416
2472.52762
2465.48682
2466.559704
2477.847335
2480.73071
2476.238009
2475.925085
2480.462489
2482.541201
2478.182611
2478.383777
2478.16026
2481.848297
2475.567457
2466.269131
2469.353672
2474.338111
2478.80846
2484.664617
2484.105824
2482.429443
2478.473184
2479.233143
2480.127213
2466.984387
2467.163201
2464.168067
2457.373137
2457.462544
2450.287634
2438.396506
2432.763867
2435.334317
2434.86493
2430.662803
2436.161332
2431.735686
2437.323622
2441.481047
2430.685154
2422.727933
2429.835788
2434.172026
2434.641413
2440.005832
2439.335279
2432.003907
2428.941718
2434.261433
2438.977651
2441.503399
2440.296404
2434.060268
2432.361535
2432.115666
2435.982518
2432.562701
2429.09818
2425.030163
2428.204111
2420.448055
2420.828035
2417.94466
2424.09139
2429.835788
2423.689058
2420.805683
2420.828035
2415.664782
2403.08075
2411.574413
2429.880491
2435.334317
2433.300308
2430.953375
2436.071925
2427.399448
2423.353782
2440.899901
2441.503399
2429.612271
2422.504416
2427.868834
2431.378058
2435.021393
2441.078715
2445.102029
2451.092297
2451.606387
2447.426611
2445.884341
2452.254588
2455.674405
2441.39164
2436.608367
2448.141867
2442.308061
2437.927119
2449.997061
2464.32453
2459.451849
2453.796858
2453.260416
2461.977597
2461.307044
2461.843486
2461.731727
2461.329396
2465.777393
2470.404204
2471.63355
2478.853164
2478.719053
2481.021283
2480.887172
2475.47805
2478.003797
2479.858992
2479.233143
2485.491632
2483.636437
2478.651998
2488.576172
2487.235068
2485.312818
2483.077643
2480.238972
2484.038768
2490.431367
2489.69376
2481.691835
2479.858992
2485.916315
2492.465376
2496.064007
2486.810385
2487.793861
2498.075664
2501.696646
2497.89685
2493.404149
2494.477033
2493.381797
2493.314742
2496.198117
2503.574193
2502.456606
2497.807443
2500.802577
2500.512004
2500.735521
2507.686914
2511.151434
2507.329286
2504.781187
2506.658734
2508.670391
2515.934708
2518.840434
2518.639269
2511.956097
2513.453664
2514.794769
2508.960963
2501.964867
2502.367199
2511.643173
2514.995934
2513.386609
2508.670391
2508.849205
2515.286507
2517.029943
2522.37201
2526.909414
2529.368106
2521.053257
2520.136836
2517.745199
2515.599431
2509.452702
2511.151434
2510.749103
2510.503234
2510.32442
2512.76076
2511.017324
2498.120367
2497.449815
2506.032885
2511.48671
2522.8861
2527.334097
2526.440028
2534.28549
2545.774286
2549.730545
2537.861769
2537.6159
2543.315595
2547.070688
2541.438048
2548.300034
2547.182446
2548.568255
2549.484676
2555.340833
2551.183409
2550.579912
2554.02208
2549.104696
2548.210627
2547.025984
2549.104696
2551.630444
2548.031813
2542.86856
2542.957967
2539.918129
2543.472057
2547.338909
2555.005557
2560.213513
2557.710118
2556.525476
2555.832571
2565.063842
2564.482697
2556.726641
2553.709156
2548.210627
2542.332118
2545.774286
2548.814124
2548.63531
2545.774286
2550.132877
2556.391365
2556.123144
2552.815086
2549.998766
2551.764554
2553.262121
2554.469115
2550.155228
2561.442859
2562.962778
2557.196028
2553.820914
2559.878237
2561.666377
2558.671243
2558.134801
2563.186295
2566.807278
2565.04149
2559.028871
2556.8384
2552.09983
2551.250464
2545.886045
2550.132877
2558.291263
2554.782039
2540.834551
2536.788885
2546.064859
2552.61392
2542.600339
2542.779153
2555.117316
2558.067746
2553.060955
2546.288377
2550.04347
2551.764554
2548.948234
2555.318481
2558.984167
2557.821877
2554.714984
2552.658624
2549.238807
2553.083307
2561.644025
2546.735411
2528.943423
2527.535263
2523.422542
2518.840434
2514.660658
2511.263193
2503.037751
2495.304048
2495.661675
2495.46051
2498.232126
2487.123309
2481.915353
2492.331265
2492.688893
2489.224373
2492.554783
2492.286562
2489.023207
2489.470242
2488.687931
2490.587829
2507.284583
2496.533393
2489.000856
2489.716111
2494.432329
2492.800652
2491.928934
2491.705417
2493.046521
2494.141757
2485.201059
2481.691835
2483.68114
2477.355597
2483.144699
2485.648094
2488.822042
2493.270039
2485.312818
2477.78028
2487.52564
2493.53826
2493.314742
2488.687931
2486.832736
2486.206888
2490.900754
2485.424576
2481.490669
2485.357521
2490.274905
2484.485803
2472.348806
2476.819155
2483.368216
2481.133042
2472.572323
2479.300198
2481.356559
2478.16026
2482.563553
2487.480937
2486.564515
2472.840544
2469.487783
2467.811402
2475.612161
2475.031015
2470.180687
2469.845411
2472.818193
2474.427518
2472.237047
2470.471259
2476.483879
2481.848297
2481.870649
2484.418748
2489.470242
2493.582963
2488.866745
2483.703492
2479.18844
2476.50623
2476.729748
2483.301161
2492.286562
2489.671408
2481.870649
2477.132079
2478.272018
2479.233143
2479.680178
2477.802632
2470.426556
2478.786108
2482.854126
2481.378911
2467.006739
2462.91637
2462.335224
2460.457678
2464.659806
2464.592751
2465.308006
2463.586922
2458.55778
2464.615102
2463.273998
2462.692852
2461.664672
2464.413937
2465.375062
2462.804611
2460.748251
2458.289559
2461.284692
2465.106841
2465.218599
2464.771565
2458.781297
2456.367309
2457.261378
2455.987329
2455.316777
2458.468373
2462.648149
2465.173896
2465.665634
2454.892094
2452.232236
2458.781297
2464.749213
2462.670501
2452.321643
2447.717184
2447.873646
2453.841562
2454.445059
2450.757021
2450.041765
2451.181704
2459.183628
2456.613178
2453.930969
2449.147695
2446.554893
2445.482009
2444.85616
2448.05246
2451.606387
2456.613178
2460.591788
2463.206942
2461.955245
2457.551951
2455.652053
2461.284692
2462.670501
2462.40228
2465.48682
2472.237047
2472.482916
2467.453774
2465.553876
2469.219562
2472.348806
2470.538315
2469.130155
2474.472222
2470.806536
2471.588847
2462.53639
2456.791992
2467.118498
2466.716166
2455.920274
2462.089355
2465.039786
2457.507248
2461.731727
2460.971768
2457.931931
2458.848352
2462.759908
2460.189457
2459.898884
2467.386719
2460.457678
2450.824076
2462.424631
2474.427518
2471.834716
2470.247742
2479.076681
2488.084434
2489.671408
2485.446928
2481.803594
2484.485803
2486.072777
2479.83664
2480.954228
2487.346826
2493.180632
2487.570344
2484.329341
2486.832736
2487.883268
2481.870649
2480.954228
2482.854126
2488.732635
2488.151489
2478.026149
2481.870649
2487.503289
2483.234105
2484.888135
2484.329341
2478.741405
2480.261323
2478.540239
2477.020321
2488.307951
2490.051388
2486.586867
2485.178707
2483.859954
2492.823004
2493.381797
2488.822042
2487.369178
2487.90562
2490.118443
2491.459547
2489.17967
2489.738463
2486.408053
2492.867707
2497.852146
2499.95321
2501.070798
2500.802577
2505.496443
2497.226298
2490.967809
2491.258382
2500.735521
2500.444949
2494.834661
2497.181594
2501.093149
2497.38276
2498.433292
2495.773434
2488.129138
2487.503289
2493.985295
2496.376931
2498.343885
2491.548954
2488.129138
2495.795786
2492.375969
2480.21662
2486.072777
2480.171917
2471.007701
2472.706434
2476.88621
2482.183574
2481.848297
2484.217582
2488.822042
2484.776376
2488.039731
2479.791937
2484.217582
2483.658789
2490.185498
2490.34196
2481.62478
2493.761777
2495.684027
2490.386664
2486.408053
2495.393454
2494.365274
2486.229239
2484.485803
2486.609219
2486.229239
2478.607294
2481.356559
2484.932838
2479.83664
2466.135021
2462.782259
2462.312873
2464.480992
2461.195285
2456.791992
2462.91637
2459.07187
2455.540294
2453.461582
2454.243893
2451.405221
2453.707451
2455.339128
2453.43923
2459.273035
2458.088393
2455.115611
2446.26432
2449.773544
2450.555855
2450.712317
2446.219617
2456.099088
2456.926102
2447.15839
2449.326509
2455.942626
2456.903751
2450.466448
2448.275977
2448.633605
2449.102992
2448.544198
2449.170047
2453.193361
2456.568474
2452.723974
2445.996099
2441.436343
2443.872684
2452.187532
2447.784239
2442.397468
2447.583073
2441.995137
2442.106896
2440.296404
2438.329451
2442.084544
2442.956262
2438.9553
2437.994175
2439.938776
2446.912521
2450.555855
2445.079678
2445.303195
2441.682213
2440.408163
2440.788143
2442.129247
2442.41982
2439.827018
2446.756059
2446.800762
2441.39164
2440.721088
2444.029146
2442.710393
2438.9553
2439.715259
2437.636547
2440.251701
2440.832846
2434.037916
2437.03305
2434.194378
2432.339183
2430.573396
2423.71141
2420.626869
2415.821244
2410.970916
2401.270259
2403.304267
2405.740607
2405.718256
2405.561794
2402.723122
2400.331485
2392.776596
2395.436453
2402.097273
2403.617192
2403.550137
2407.30523
2407.908727
2405.986477
2402.074921
2395.928192
2391.703712
2396.978724
2397.381055
2404.645372
2406.388808
2400.197375
2406.589974
2404.444206
2394.810604
2399.213898
2405.874718
2405.13711
2402.253735
2405.427683
2406.075884
2405.472387
2400.219727
2399.616229
2400.219727
2406.03118
2406.835843
2407.461692
2409.22748
2414.144863
2409.763921
2412.960221
2417.341163
2416.469445
2421.453884
2422.549119
2421.40918
2419.062247
2416.134169
2409.74157
2413.183738
2412.82611
2411.28384
2414.278974
2418.481102
2422.280898
2414.256622
2405.919421
2409.629811
2419.621041
2416.692962
2409.965087
2408.892203
2414.346029
2417.587032
2417.765846
2417.095294
2415.083637
2422.482064
2418.637564
2416.938831
2416.5365
2417.184701
2420.403352
2425.097218
2422.772637
2417.765846
2398.141014
2400.800872
2416.603555
2419.710448
2416.357686
2416.5365
2421.543291
2427.712372
2426.550082
2421.610346
2424.292555
2422.68323
2421.185663
2412.356724
2417.542329
2420.604518
2414.524843
2414.033105
2415.754189
2420.381
2424.627832
2424.069038
2414.904823
2418.056419
2422.347954
2420.224538
2417.810549
2415.530672
2420.291593
2428.360573
2418.190529
2411.060323
2421.029201
2420.179834
2415.597727
2417.475273
2412.17791
2412.759055
2424.314907
2424.672535
2413.675477
2415.016581
2417.162349
2419.397523
2422.906747
2423.912576
2426.773599
2420.403352
2420.626869
2425.521901
2432.786218
2428.539387
2425.834826
2418.503454
2416.357686
2442.330413
2455.719108
2460.457678
2463.81044
2462.335224
2481.200097
2486.49746
2491.057216
2492.465376
2494.544088
2496.935725
2503.842414
2502.478957
2503.417731
2510.793806
2510.570289
2504.132987
2506.681085
2509.005667
2509.877385
2505.541146
2502.076626
2507.172824
2514.772417
2509.787978
2501.897812
2507.12812
2515.331211
2519.488635
2510.816158
2512.716056
2516.404094
2516.717019
2512.581946
2508.849205
2507.619859
2510.212661
2508.245708
2504.021228
2512.313725
2515.644135
2504.110635
2493.650018
2496.734559
2496.6228
2492.711245
2486.005722
2488.062082
2502.344847
2502.434254
2501.406074
2498.500347
2499.260306
2502.166033
2507.597507
2504.714132
2500.221431
2497.136891
2497.963905
2497.561574
2495.996952
2506.055237
2502.478957
2489.604353
2493.806481
2497.472167
2504.915298
2506.882251
2509.81033
2516.493501
2516.337039
2511.240841
2504.848242
2508.804501
2511.464359
2512.827815
2516.046466
2513.699533
2513.476016
2510.905565
2503.79771
2503.909469
2521.433237
2525.009516
2515.264155
2520.807388
2530.597452
2533.436124
2533.637289
2536.118333
2534.710173
2529.457513
2527.691725
2533.167903
2535.559539
2538.174693
2541.169827
2535.492484
2536.520664
2536.498313
2533.793751
2536.386554
2533.838455
2532.050315
2533.302013
2535.604243
2533.883158
2536.051278
2533.212606
2531.022135
2529.233996
2528.13876
2527.311746
2523.646059
2528.228167
2534.039621
2534.263138
2532.430295
2534.844283
2541.08042
2536.408906
2528.764609
2525.970641
2535.31367
2544.41083
2540.789847
2537.75001
2542.890911
2543.673223
2542.510932
2541.862731
2545.282548
2538.085286
2536.34185
2541.862731
2539.739315
2537.10181
2531.871501
2533.570234
2544.075554
2540.521627
2533.860807
2532.385592
2534.710173
2541.616862
2543.606167
2534.531359
2536.118333
2545.550769
2548.948234
2541.616862
2542.019193
2540.611034
2540.141647
2541.259234
2544.589644
2539.605205
2536.543016
2531.312708
2525.054219
2528.272871
2515.554728
2511.263193
2512.76076
2508.469225
2511.129083
2512.336077
2512.984277
2514.705362
2520.673277
2523.064914
2517.365219
2512.492539
2514.68301
2517.789902
2516.828777
2514.213623
2519.175711
2511.084379
2503.775359
2499.841452
2502.881289
2507.977487
2506.882251
2501.964867
2506.278754
2512.023152
2502.38955
2490.677236
2495.102882
2504.088283
2504.512966
2501.36137
2503.551841
2505.652905
2505.496443
2503.417731
2504.758835
2502.478957
2506.949306
2503.037751
2498.075664
2507.552803
2520.159187
2513.990106
2505.898774
2502.25544
2504.937649
2505.608202
2503.641248
2509.095074
2510.033847
2507.284583
2504.356504
2507.351638
2503.529489
2504.132987
2500.489652
2499.684989
2498.701513
2497.203946
2499.036789
2505.608202
2512.716056
2508.625687
2496.309876
2499.416768
2506.345809
2515.599431
2505.049408
2499.528527
2506.368161
2507.88808
2500.780225
2497.740388
2492.018341
2494.70055
2493.627667
2494.94642
2492.711245
2492.554783
2495.952248
2495.795786
2506.47992
2519.198062
2523.511949
2516.247632
2506.278754
2508.223356
2505.697609
2503.708303
2503.216565
2506.792844
2517.320516
2515.71119
2504.490614
2508.513928
2515.554728
2508.960963
2503.28362
2506.345809
2516.068818
2511.777283
2497.136891
2500.355542
2507.329286
2499.081492
2495.259344
2498.746216
2496.846318
2495.952248
2490.85605
2485.893963
2483.479975
2484.329341
2482.988236
2482.898829
2479.076681
2478.383777
2481.513021
2476.841507
2475.746271
2484.195231
2487.346826
2480.976579
2488.464414
2492.286562
2486.49746
2483.591733
2484.552858
2488.620876
2487.369178
2480.641303
2482.675312
2486.318646
2480.08251
2476.215658
2478.562591
2474.673387
2473.533448
2473.488745
2472.572323
2479.858992
2473.153469
2468.437251
2471.566495
2476.37212
2477.959094
2477.735576
2479.32255
2480.909524
2485.670446
2485.268114
2488.218545
2492.64419
2495.840489
2493.627667
2496.600449
2497.271001
2496.823966
2487.77151
2486.944495
2488.9338
2492.018341
2491.124271
2488.330303
2492.621838
2499.595582
2492.1301
2485.826908
2487.235068
2488.375007
2492.197155
2494.56644
2499.528527
2499.170899
2494.18646
2485.625742
2488.240896
2490.788995
2493.851184
2488.911449
2491.727768
2496.086359
2499.483824
2489.872574
2479.411957
2484.619914
2484.932838
2486.385701
2487.570344
2487.100957
2491.817175
2489.023207
2489.134966
2488.553821
2490.632533
2486.072777
2482.51885
2477.020321
2483.748196
2488.509117
2483.658789
2478.540239
2485.201059
2486.676274
2480.373082
2479.18844
2474.06989
2473.958132
2481.915353
2482.094167
2475.634512
2478.048501
2481.267152
2482.630608
2475.321588
2475.031015
2476.88621
2466.045614
2458.870704
2470.694777
2478.741405
2473.689911
2469.688948
2480.507193
2489.850222
2479.411957
2480.797765
2486.87744
2492.532431
2484.619914
2481.2448
2486.184536
2486.117481
2492.197155
2491.727768
2488.844393
2487.279771
2491.973638
2485.715149
2481.334207
2483.144699
2483.323512
2485.893963
2482.027111
2484.999893
2492.711245
2492.823004
2496.935725
2505.451739
2503.305972
2496.6228
2493.560611
2497.874498
2506.99401
2505.764664
2504.110635
2507.016362
2505.228222
2512.827815
2513.610126
2513.319554
2508.960963
2515.71119
2519.689801
2517.365219
2517.49933
2517.096998
2509.631516
2506.99401
2505.339981
2508.111597
2506.122292
2506.032885
2501.674295
2495.281696
2495.125234
2495.371103
2494.812309
2501.294315
2498.969734
2498.433292
2503.909469
2505.96583
2500.579059
2502.501309
2502.523661
2502.25544
2501.942516
2506.457568
2495.348751
2495.616972
2504.334152
2515.532376
2508.40217
2520.762684
2526.842359
2522.997859
2523.534301
2533.838455
2539.627557
2534.754876
2530.128065
2537.481789
2540.163999
2535.604243
2530.083362
2531.98326
2537.168865
2532.095019
2532.609109
2538.465266
2540.074592
2538.174693
2534.978394
2537.593548
2535.492484
2537.861769
2541.438048
2546.33308
2549.52938
2552.189237
2546.355432
2545.751935
2548.322385
2546.891874
2535.023097
2531.60328
2537.481789
2541.773324
2535.514836
2531.804446
2535.134856
2536.297147
2537.638251
2543.293243
2542.265063
2540.231054
2534.374897
2530.977432
2533.056144
2539.471095
2526.663545
2519.063952
2522.014382
2517.11935
2511.598469
2501.718998
2498.522699
2487.056254
2482.429443
2485.759853
2481.535373
2482.071815
2487.972675
2492.174803
2486.273943
2483.703492
2488.330303
2490.140795
2490.923106
2498.723864
2498.075664
2488.956152
2490.096091
2489.805518
2490.811347
2492.733597
2495.527565
2496.958077
2501.249612
2498.522699
2492.107748
2486.385701
2489.17967
2486.922143
2491.146623
2484.709321
2487.056254
2496.421635
2493.448853
2489.224373
2491.660713
2494.70055
2495.706379
2488.687931
2488.218545
2495.259344
2503.037751
2506.47992
2505.630553
2494.924068
2492.465376
2491.347789
2487.570344
2492.375969
2492.688893
2491.325437
2489.224373
2492.085396
2501.160205
2502.881289
2490.654885
2487.860917
2491.884231
2494.633495
2487.324475
2490.520774
2494.320571
2495.169937
2495.549917
2490.990161
2489.000856
2483.524678
2480.797765
2478.875515
2483.815251
2482.675312
2483.144699
2478.272018
2483.211754
2487.413882
2479.121385
2484.530507
2490.900754
2492.152452
2481.893001
2479.479012
2486.788033
2493.918239
2488.509117
2478.316722
2485.737501
2497.852146
2495.035827
2478.741405
2481.982408
2479.18844
2474.092242
2466.157373
2459.809477
2446.711355
2444.364422
2429.165236
2419.151654
2426.885358
2427.377096
2426.952413
2425.812474
2417.877605
2421.297422
2422.750285
2421.990326
2426.14775
2422.862044
2424.404314
2424.001983
2423.465541
2422.973802
2420.89509
2415.709485
2423.84552
2423.689058
2426.393619
2421.386829
2414.055456
2419.464579
2423.063209
2425.588957
2426.214805
2426.773599
2429.031125
2419.598689
2411.172081
2413.407256
2413.228442
2420.381
2426.594785
2420.24689
2418.771674
2422.951451
2423.33143
2431.288651
2435.423724
2435.557835
2428.137055
2425.454846
2431.333355
2432.897977
2427.399448
2422.593823
2425.25368
2424.627832
2429.008773
2430.327526
2428.047648
2430.75221
2428.338221
2418.369343
2421.900919
2431.02043
2431.646279
2427.824131
2431.959204
2434.887282
2432.093314
2429.880491
2427.980593
2433.635585
2433.18855
2433.032087
2432.629756
2431.445114
2428.44998
2422.124436
2417.698791
2434.082619
2446.13021
2449.170047
2451.561684
2453.282768
2456.233198
2454.579169
2454.310948
2457.060213
2460.502381
2455.987329
2449.684137
2456.38966
2461.463506
2466.112669
2462.692852
2459.563608
2463.94455
2465.062137
2459.541256
2457.037861
2455.160314
2465.218599
2463.855143
2455.696756
2458.267207
2458.624835
2459.96594
2462.961073
2459.831829
2458.1778
2444.587939
2448.94653
2456.277902
2459.496553
2460.815306
2451.695794
2446.487838
2450.220579
2459.049518
2459.384794
2459.429498
2459.049518
2456.032032
2454.646224
2456.881399
2465.330358
2465.73269
2460.278864
2459.340091
2465.285655
2463.385756
2459.07187
2458.624835
2459.854181
2459.496553
2457.14962
2471.812364
2481.62478
2477.310893
2482.988236
2483.099995
2484.329341
2498.634457
2501.584888
2490.476071
2493.873536
2498.522699
2495.326399
2495.862841
2491.861879
2498.768568
2504.535318
2498.835623
2491.37014
2492.197155
2494.70055
2495.326399
2496.6228
2507.88808
2510.123254
2510.167958
2514.034809
2516.672315
2515.845301
2515.264155
2513.878347
2513.699533
2527.334097
2527.177635
2509.229184
2514.504196
2518.594565
2523.333135
2523.668411
2517.231109
2512.291373
2515.06299
2512.850167
2516.627612
2515.308859
2515.890004
2513.990106
2510.614992
2516.940536
2516.98524
2519.086304
2525.210682
2526.238862
2521.656754
2503.529489
2502.993048
2512.693705
2510.793806
2512.671353
2519.712152
2513.565423
2504.512966
2505.429388
2513.878347
2515.867652
2519.354525
2517.678144
2514.414789
2512.716056
2514.258327
2510.771455
2510.749103
2509.072722
2510.123254
2509.698571
2513.65483
2497.159242
2499.193251
2508.044542
2509.229184
2507.5081
2501.74135
2500.780225
2491.481899
2495.169937
2489.716111
2483.077643
2486.452757
2496.041655
2498.880327
2502.322495
2495.058178
2491.191327
2489.470242
2493.202984
2498.746216
2503.730655
2498.947382
2504.289449
2515.733542
2510.905565
2505.96583
2504.423559
2500.556707
2504.825891
2507.664562
2510.413827
2519.510987
2505.831719
2496.175766
2491.928934
2493.448853
2505.161167
2505.630553
2503.305972
2498.500347
2497.315705
2499.193251
2493.359446
2486.542164
2486.229239
2491.481899
2492.823004
2491.124271
2495.035827
2490.297257
2482.943533
2480.797765
2484.709321
2488.732635
2490.029036
2496.220469
2494.544088
2490.140795
2494.141757
2493.270039
2498.567402
2501.093149
2486.899792
2482.720015
2494.477033
2503.596545
2501.696646
2497.673332
2500.176728
2504.132987
2500.444949
2494.655847
2496.6228
2500.668466
2502.054274
2495.147585
2498.746216
2511.307897
2502.25544
2491.928934
2496.48869
2493.918239
2497.092187
2502.009571
2498.500347
2502.948344
2514.504196
2512.358429
2500.936687
2505.541146
2510.704399
2508.066894
2502.300144
2506.904603
2502.702475
2498.008609
2501.830757
2510.056199
2507.441045
2504.244745
2505.20587
2510.279716
2509.407998
2510.83851
2503.753007
2503.216565
2507.575155
2509.787978
2503.954173
2507.530452
2512.201966
2513.386609
2515.152397
2513.587774
2505.71996
2511.21849
2508.066894
2511.062027
2514.504196
2516.024115
2509.966792
2504.490614
2490.811347
2495.996952
2516.60526
2519.533338
2514.861824
2520.31565
2520.360353
2519.220414
2522.953155
2527.356449
2526.149455
2518.683972
2512.693705
2515.286507
2518.460455
2518.125179
2518.125179
2521.030905
2522.662583
2517.700495
2510.793806
2509.542109
2508.156301
2508.133949
2512.291373
2517.298164
2514.638306
2517.745199
2518.52751
2512.805463
2515.666487
2516.717019
2519.846263
2524.003687
2525.098923
2526.395324
2522.975507
2521.030905
2519.801559
2520.472112
2520.762684
2516.180577
2519.600394
2525.076571
2528.742257
2525.635365
2523.26608
2527.915243
2531.893853
2528.474036
2522.573176
2521.410885
2517.879309
2520.628574
2524.450722
2525.009516
2523.601356
2515.442969
2521.567347
2528.362278
2530.865673
2526.7306
2528.049353
2528.161112
2523.310783
2524.093094
2521.679106
2529.792789
2534.531359
2528.585795
2525.300089
2525.791827
2529.010478
2536.118333
2532.944385
2537.928824
2545.371955
2533.816103
2533.726696
2530.798618
2531.156246
2530.150417
2527.222339
2526.238862
2528.742257
2528.272871
2529.591623
2527.334097
2520.852091
2526.305917
2532.296185
2526.752952
2522.081437
2528.943423
2531.737391
2532.474999
2531.715039
2531.08919
2531.871501
2534.598414
2542.935615
2531.111542
2533.480827
2528.921071
2522.707286
2524.137798
2529.904548
2523.981336
2524.696591
2534.620766
2536.051278
2530.329231
2523.534301
2521.790865
2517.968716
2511.307897
2510.793806
2519.689801
2522.260251
2519.510987
2524.540129
2529.859844
2534.263138
2530.597452
2523.511949
2527.267042
2532.87733
2523.958984
2519.242766
2522.908452
2527.982298
2530.195121
2528.898719
2529.390458
2534.620766
2533.704344
2528.854016
2531.513874
2538.062935
2532.273833
2531.111542
2532.452647
2536.297147
2535.917167
2527.557615
2527.915243
2533.793751
2539.806371
2533.302013
2520.539167
2516.761722
2522.2379
2521.85792
2521.656754
2523.958984
2522.439065
2517.186405
2514.839472
2515.264155
2510.033847
2510.123254
2510.614992
2515.554728
2512.336077
2506.882251
2497.963905
2492.018341
2491.504251
2496.779263
2494.611143
2492.934763
2497.159242
2504.55767
2510.860862
2505.630553
2508.268059
2510.994972
2508.804501
2501.093149
2504.937649
2508.335115
2510.45853
2510.97262
2507.843376
2504.512966
2504.155338
2502.434254
2511.598469
2512.76076
2519.890966
2512.514891
2507.396341
2504.982353
2504.468263
2501.182556
2500.154376
2506.278754
2518.080475
2519.086304
2513.118388
2516.359391
2521.924975
2516.337039
2511.620821
2513.386609
2514.504196
2518.236937
2512.38078
2510.480882
2518.572213
2526.909414
2518.371048
2511.754931
2510.346772
2515.264155
2511.978449
2508.335115
2510.391475
2516.895833
2518.639269
2516.60526
2513.252498
2515.934708
2517.029943
2512.000801
2508.893908
2508.670391
2518.01342
2516.09117
2508.357466
2511.285545
2513.14074
2511.889042
2508.53628
2513.878347
2517.409923
2510.45853
2500.020266
2501.495481
2515.510024
2517.63344
2508.960963
2496.332228
2500.154376
2499.170899
2491.973638
2486.385701
2489.000856
2499.103844
2498.835623
2498.008609
2503.395379
2501.629591
2504.110635
2501.339019
2500.579059
2506.926955
2511.196138
2509.29624
2508.91626
2512.291373
2505.809367
2503.887117
2505.608202
2506.457568
2506.703437
2501.070798
2498.768568
2505.496443
2510.637344
2502.076626
2501.629591
2498.701513
2501.137853
2499.595582
2493.67237
2497.628629
2498.723864
2492.465376
2491.794824
2495.728731
2488.889097
2488.889097
2489.917277
2495.684027
2498.567402
2494.208812
2488.240896
2493.091225
2498.679161
2492.487728
2491.437196
2496.064007
2502.367199
2498.768568
2492.331265
2501.249612
2505.652905
2503.887117
2497.449815
2490.140795
2492.375969
2489.470242
2489.403187
2494.231164
2492.64419
2495.728731
2490.677236
2486.005722
2487.547992
2488.844393
2489.82787
2488.397358
2493.962943
2496.578097
2495.326399
2486.050425
2486.49746
2484.306989
2476.595637
2473.980483
2483.323512
2483.971713
2480.753062
2475.388643
2485.759853
2494.521736
2486.206888
2477.288541
2476.215658
2486.117481
2494.70055
2493.068873
2489.984332
2494.745254
2494.275867
2493.247687
2495.08053
2499.863803
2505.20587
2503.842414
2501.204908
2501.584888
2502.434254
2506.390513
2504.200042
2502.546013
2499.282658
2491.481899
2483.658789
2489.17967
2498.120367
2496.712207
2501.651943
2505.831719
2510.011495
2504.55767
2492.420672
2490.409015
2495.281696
2499.863803
2496.399283
2485.84926
2483.211754
2485.98337
2489.269076
2496.064007
2496.667504
2498.008609
2498.477995
2493.068873
2485.98337
2491.526603
2492.26421
2482.65296
2483.099995
2489.961981
2494.812309
2494.611143
2490.476071
2486.184536
2486.229239
2484.865783
2478.696701
2481.960056
2481.691835
2482.205925
2480.909524
2475.835678
2472.125289
2476.640341
2476.170954
2481.200097
2486.385701
2482.429443
2474.785146
2474.896905
2475.634512
2473.42169
2473.779318
2471.007701
2474.092242
2474.248704
2475.701568
2474.606332
2469.174858
2467.118498
2473.265227
2473.600504
2478.406129
2480.440137
2480.08251
2472.639379
2465.933855
2469.510134
2466.783222
2464.369233
2464.369233
2469.465431
2476.50623
2478.517887
2469.890114
2464.101012
2466.872629
2476.685044
2484.709321
2482.049463
2483.122347
2469.420727
2469.286617
2465.531524
2466.537352
2477.936742
2478.249666
2474.427518
2472.505268
2482.407091
2485.536335
2473.868725
2470.292445
2467.27496
2470.538315
2475.545105
2467.900809
2464.07866
2466.89498
2466.38089
2469.219562
2471.342977
2470.001873
2476.707396
2479.411957
2473.198172
2468.459602
2470.538315
2471.879419
2474.874553
2478.16026
2477.467355
2475.366291
2475.880382
2471.164163
2473.578152
2474.405166
2477.221486
2476.930914
2471.342977
2470.583018
2473.019358
2479.613123
2478.607294
2477.981446
2479.858992
2476.260361
2473.444041
2475.835678
2478.607294
2479.344902
2468.057271
2473.242876
2474.740443
2471.790012
2470.471259
2462.223466
2468.727823
2475.366291
2475.209829
2465.397413
2462.849315
2467.878457
2466.000911
2461.463506
2465.151544
2464.32453
2466.000911
2465.553876
2471.63355
2470.09128
2473.019358
2474.740443
2473.868725
2472.348806
2469.219562
2474.494573
2479.814289
2482.429443
2483.658789
2483.591733
2479.344902
2479.635475
2486.050425
2481.468318
2477.623818
2476.439175
2476.193306
2477.377948
2476.550934
2473.93578
2471.186515
2467.990216
2458.937759
2462.178762
2464.391585
2471.342977
2485.0893
2481.691835
2487.570344
2488.978504
2481.088338
2473.511097
2473.399338
2472.929951
2475.031015
2477.042672
2480.373082
2482.496498
2486.542164
2481.736539
2475.053367
2474.472222
2475.947437
2477.288541
2475.880382
2476.416823
2475.500402
2468.012568
2470.381852
2472.929951
2476.103899
2480.328379
2479.121385
2474.82985
2467.140849
2462.290521
2474.807498
2489.604353
2488.017379
2480.574248
2482.407091
2490.543126
2501.36137
2509.072722
2504.17769
2498.567402
2505.541146
2505.876423
2498.835623
2497.51687
2495.035827
2499.282658
2501.920164
2501.137853
2502.858937
2505.116463
2505.496443
2497.718036
2494.097053
2501.651943
2502.031923
2500.19908
2502.098978
2508.335115
2509.072722
2502.344847
2502.188385
2499.014437
2502.411902
2502.702475
2508.491577
2503.730655
2499.237955
2495.371103
2491.928934
2490.118443
2500.735521
2504.423559
2498.522699
2504.200042
2516.694667
2508.513928
2497.941553
2502.970696
2512.693705
2510.860862
2502.456606
2504.982353
2504.401207
2502.188385
2497.449815
2497.963905
2498.388588
2493.337094
2489.358483
2486.609219
2492.934763
2494.342922
2496.10871
2492.040693
2492.107748
2489.000856
2488.2856
2489.69376
2491.973638
2491.37014
2482.295332
2483.189402
2491.191327
2489.805518
2477.668521
2480.551896
2484.4411
2485.804556
2484.821079
2489.17967
2497.561574
2482.250629
2466.738518
2461.910541
2467.543181
2472.393509
2459.742422
2445.929044
2446.309024
2447.493666
2449.237102
2447.985404
2442.911558
2447.381907
2449.818248
2444.632643
2444.967919
2449.751192
2453.640396
2451.852256
2445.660823
2446.979576
2455.540294
2458.714242
2454.936797
2461.351748
2461.552913
2458.401317
2454.780335
2456.948454
2457.261378
2453.528637
2453.595692
2462.134059
2466.269131
2460.23416
2457.753117
2448.387736
2446.532541
2452.656919
2451.852256
2445.951396
2447.940701
2452.589864
2453.685099
2458.378966
2461.150582
2454.84739
2457.596655
2459.496553
2448.901826
2450.667614
2462.871666
2461.64232
2459.161277
2461.977597
2459.675367
2452.276939
2461.687024
2456.948454
2455.093259
2452.92514
2448.097163
2454.757983
2454.757983
2447.337204
2442.531579
2446.085506
2448.745364
2450.332338
2447.828942
2453.841562
2463.56457
2458.669538
2458.781297
2460.457678
2461.396451
2457.954283
2452.522809
2460.055346
2464.995082
2469.241913
2465.844448
2461.016472
2466.291483
2462.469335
2460.48003
2456.926102
2457.440192
2463.452812
2459.742422
2458.758945
2460.278864
2461.396451
2455.87557
2453.595692
2457.239027
2464.950379
2460.167105
2453.841562
2458.960111
2460.524733
2462.067003
2460.010643
2456.747288
2456.032032
2457.350785
2461.687024
2456.657881
2455.540294
2457.171971
2453.148657
2449.058288
2452.478105
2453.863913
2454.266245
2454.646224
2459.742422
2454.534466
2458.155448
2463.899847
2461.239989
2458.580131
2455.272073
2450.4888
2449.102992
2451.405221
2454.221541
2457.574303
2457.440192
2456.367309
2446.800762
2448.343032
2448.454791
2449.125343
2448.499495
2444.967919
2444.923215
2444.945567
2447.448963
2444.967919
2449.617082
2451.338166
2446.040803
2443.537407
2451.293463
2453.193361
2453.126306
2450.689966
2453.81921
2455.294425
2459.161277
2461.64232
2454.46741
2453.238064
2458.110745
2453.81921
2447.225445
2453.103954
2452.79103
2453.618044
2449.013585
2450.354689
2452.679271
2447.2925
2446.756059
2446.376079
2452.433402
2456.009681
2452.656919
2451.472277
2455.674405
2457.440192
2451.069945
2454.176838
2457.619006
2460.815306
2453.483934
2453.126306
2456.322605
2453.014547
2450.511152
2451.51698
2451.204056
2455.249721
2457.574303
2456.054384
2452.232236
2450.354689
2451.069945
2459.58596
2451.204056
2443.068021
2453.640396
2453.975672
2448.544198
2449.102992
2451.248759
2447.493666
2437.234215
2442.732745
2448.723012
2451.651091
2446.13021
2444.85616
2451.718146
2460.949416
2455.048556
2449.550027
2448.208922
2450.332338
2449.505323
2451.472277
2458.155448
2455.339128
2446.733707
2444.297367
2448.343032
2447.53837
2447.717184
2446.286672
2445.794934
2441.413992
2436.228387
2436.496608
2440.318756
2442.956262
2439.491742
2435.177855
2435.870759
2439.201169
2442.129247
2439.223521
2436.295442
2430.260471
2428.025297
2428.092352
2429.187587
2434.283785
2434.708468
2431.869797
2426.035991
2423.19732
2428.517035
2426.930061
2437.256567
2445.102029
2447.940701
2448.633605
2442.553931
2438.821189
2440.855198
2446.26432
2446.823114
2448.410088
2456.568474
2448.477143
2441.458695
2443.716221
2445.705527
2445.012622
2442.196303
2442.28571
2446.487838
2447.985404
2452.321643
2457.931931
2440.989308
2432.160369
2431.512169
2433.18855
2431.825093
2424.359611
2419.531634
2409.428645
2396.129357
2392.486023
2400.912631
2397.492814
2388.999151
2392.038988
2393.178927
2389.513241
2391.390788
2393.737721
2399.392712
2398.319828
2395.592915
2395.145881
2394.676494
2392.173099
2392.217802
2401.493776
2402.611363
2406.835843
2409.518052
2408.556927
2404.824186
2409.473349
2403.371323
2392.687189
2394.967067
2393.737721
2387.367474
2381.108985
2387.121604
2389.334427
2383.567677
2386.741625
2386.898087
2387.747453
2380.393729
2376.906857
2379.320846
2379.387901
2377.488002
2378.270314
2374.872848
2377.264485
2377.398595
2377.376244
2380.729005
2374.112889
2372.727081
2371.117755
2371.721252
2367.027386
2357.371432
2357.371432
2349.771839
2347.871941
2351.403517
2348.520142
2346.754354
2353.057546
2356.946749
2353.661043
2348.363679
2344.407421
2347.916645
2348.251921
2339.735906
2342.172246
2351.44822
2352.901084
2351.157648
2354.063374
2347.804886
2344.966214
2342.73104
2345.54736
2345.212083
2345.793229
2341.345232
2339.646499
2344.541531
2344.675642
2344.742697
2342.060488
2335.399668
2335.287909
2335.220854
2332.762162
2342.082839
2342.932206
2338.305394
2339.847665
2341.769915
2346.240264
2349.39186
2337.590139
2333.388011
2335.466723
2335.623185
2335.287909
2338.975947
2341.188769
2341.83697
2344.362717
2340.272348
2342.239301
2347.268444
2343.043964
2349.39186
2355.248017
2350.352985
2354.733927
2355.940921
2356.477363
2356.924398
2346.352022
2356.745584
2374.962255
2369.64254
2375.632808
2381.354854
2395.90584
2405.695904
2410.523881
2416.514148
2422.124436
2423.622003
2426.035991
2424.918404
2422.437361
2431.333355
2434.373192
2425.767771
2424.583128
2421.744456
2419.509282
2418.414047
2417.318811
2421.900919
2421.856215
2422.035029
2418.235233
2419.509282
2415.374209
2413.116683
2412.043799
2418.235233
2423.040858
2419.956317
2419.129302
2415.888299
2420.045724
2422.16914
2419.710448
2415.016581
2415.150692
2407.998134
2403.59484
2408.914555
2415.776541
2421.565643
2431.40041
2426.594785
2421.163311
2424.873701
2417.408218
2412.714352
2417.542329
2424.73959
2426.617137
2418.123474
2416.357686
2417.408218
2411.574413
2410.009791
2409.562756
2408.646334
2406.791139
2408.825148
2413.228442
2423.84552
2424.73959
2417.94466
2417.005887
2415.910651
2417.877605
2424.270204
2426.550082
2424.940756
2422.191491
2421.722105
2424.672535
2426.304212
2411.619116
2416.625907
2421.252718
2415.463616
2423.443189
2415.575375
2412.647297
2423.174968
2425.432494
2426.863006
2416.201224
2412.133206
2414.524843
2415.776541
2417.922308
2423.487893
2430.483989
2430.104009
2428.271166
2424.09139
2420.649221
2422.415009
2420.783331
2420.850387
2420.805683
2422.593823
2418.659916
2414.033105
2419.263413
2423.018506
2420.850387
2418.861081
2418.995192
2420.89509
2427.578262
2422.929099
2429.768733
2437.703602
2434.708468
2425.544253
2417.698791
2422.750285
2428.606442
2425.007811
2425.030163
2428.159407
2430.014602
2431.109837
2427.198282
2426.952413
2422.616175
2421.543291
2424.538425
2421.565643
2422.772637
2422.079733
2419.509282
2416.178872
2426.930061
2424.180797
2419.710448
2421.051552
2422.973802
2428.025297
2426.952413
2428.271166
2432.696811
2424.806645
2423.733762
2426.706544
2425.63366
2424.583128
2423.867872
2421.632698
2431.221596
2432.763867
2426.14775
2422.459712
2426.594785
2436.13898
2435.043744
2427.824131
2424.784294
2428.651146
2430.796913
2421.587994
2421.722105
2424.381962
2419.844558
2420.537462
2418.570509
2420.358648
2421.900919
2422.347954
2422.437361
2421.140959
2426.326564
2425.656012
2420.738628
2417.341163
2421.297422
2423.443189
2425.276032
2425.097218
2423.912576
2425.588957
2424.359611
2425.49955
2423.800817
2428.271166
2424.985459
2422.191491
2423.71141
2425.767771
2422.437361
2420.179834
2422.660878
2425.946584
2430.059305
2434.484951
2428.204111
2418.056419
2415.105988
2421.230366
2423.689058
2419.285765
2413.921346
2407.037009
2413.139035
2418.32464
2413.809587
2414.122512
2414.569547
2417.05059
2416.603555
2419.48693
2414.971878
2411.79793
2408.33341
2409.652163
2414.211919
2412.200262
2409.026314
2416.089465
2415.865948
2409.383942
2411.887337
2407.461692
2399.906802
2401.739645
2401.29261
2401.024389
2397.604572
2400.465596
2401.314962
2399.012732
2396.084654
2392.664837
2394.49768
2392.463671
2386.093424
2397.157538
2398.498642
2394.587087
2390.675532
2388.552116
2389.870869
2390.116738
2388.105081
2388.395654
2398.520994
2398.789215
2390.720235
2396.174061
2400.890279
2400.443244
2401.784349
2398.498642
2394.788253
2394.967067
2399.817395
2401.896107
2402.946639
2408.087541
2405.047703
2408.199299
2409.473349
2409.205128
2410.143901
2404.757131
2401.717293
2403.46073
2399.839747
2400.823224
2399.951506
2398.297477
2399.772692
2404.332448
2399.392712
2398.833918
2404.399503
2408.825148
2408.422817
2402.991343
2401.627886
2406.92525
2406.277049
2399.727988
2403.505433
2404.019523
2402.164328
2403.97482
2410.412122
2411.440302
2408.378113
2408.534576
2410.725046
2413.317849
2418.615212
2411.172081
2410.747398
2414.949526
2412.580241
2400.107968
2407.931078
2420.537462
2420.850387
2410.032142
2409.87568
2427.891186
2427.779428
2423.242023
2428.137055
2438.351803
2443.783277
2440.832846
2440.564625
2441.950433
2442.7998
2441.279881
2436.831884
2439.938776
2448.991233
2442.531579
2435.915462
2438.910596
2446.77841
2445.325547
2442.173951
2444.811457
2449.840599
2451.00289
2441.235178
2443.760925
2449.728841
2450.444096
2452.075774
2451.89696
2447.940701
2441.212826
2433.859102
2430.618099
2429.85814
2434.306137
2434.440247
2429.835788
2436.071925
2438.620024
2430.014602
2432.227425
2426.751247
2429.724029
2431.109837
2429.34405
2433.859102
2443.984442
2443.69387
2440.721088
2435.580186
2437.54714
2437.949471
2436.250739
2440.452867
2444.543236
2443.559759
2441.637509
2440.430515
2439.715259
2443.31389
2438.932948
2437.234215
2440.028183
2445.102029
2449.393564
2449.415916
2457.708413
2453.238064
2448.18657
2438.865893
2441.90573
2446.085506
2451.785201
2454.802687
2456.702585
2456.38966
2452.232236
2449.102992
2449.885303
2446.711355
2454.579169
2453.640396
2448.812419
2445.549064
2451.852256
2452.478105
2448.544198
2453.729803
2458.401317
2461.374099
2458.937759
2458.624835
2457.261378
2452.567512
2448.365384
2454.378003
2450.399393
2447.426611
2453.908617
2460.412974
2459.027166
2456.277902
2449.952358
2450.734669
2461.150582
2463.05048
2452.969844
2447.694832
2444.610291
2453.30512
2464.637454
2466.89498
2464.346881
2465.240951
2467.453774
2467.230256
2462.089355
2466.447945
2464.525695
2454.601521
2456.63553
2461.731727
2460.591788
2453.841562
2448.097163
2447.627777
2448.499495
2449.661785
2450.131172
2451.405221
2452.254588
2443.96209
2444.744402
2450.332338
2450.064117
2450.064117
2447.53837
2456.25555
2459.116573
2449.259454
2445.414954
2450.354689
2451.539332
2447.53837
2452.54516
2452.388698
2447.963053
2455.272073
2456.38966
2446.26432
2444.766753
2444.677346
2442.308061
2442.151599
2450.801724
2451.807553
2445.794934
2436.764829
2433.255605
2431.802742
2434.35084
2441.346936
2439.268224
2438.485913
2430.215768
2429.276994
2435.714297
2435.311965
2433.32266
2432.450942
2436.429553
2441.838675
2440.139942
2441.972785
2440.609329
2432.026259
2438.530617
2444.498532
2444.878512
2444.185608
2443.403297
2443.403297
2442.375117
2442.732745
2445.102029
2447.873646
2444.699698
2435.580186
2435.490779
2443.783277
2444.543236
2442.643338
2443.582111
2443.045669
2439.067058
2434.574358
2430.394582
2432.138018
2428.382925
2426.058343
2426.818302
2431.087486
2432.585053
2439.156465
2436.027221
2437.077753
2437.055401
2433.590881
2435.066096
2439.111762
2440.251701
2435.356669
2440.408163
2440.385811
2436.362497
2434.060268
2437.100105
2432.920329
2431.489817
2430.685154
2432.607404
2434.462599
2433.590881
2430.953375
2422.057381
2432.652108
2438.843541
2433.590881
2431.065134
2430.014602
2429.99225
2431.243948
2428.494683
2431.78039
2431.668631
2429.768733
2431.959204
2432.875625
2439.670556
2435.200207
2439.111762
2442.263358
2432.249776
2426.371268
2421.40918
2415.396561
2412.379076
2406.433512
2395.52586
2386.562811
2382.114814
2380.371378
2375.006959
2367.452069
2366.17802
2367.295607
2363.607569
2360.880656
2366.960331
2368.346139
2365.641578
2364.233418
2366.267427
2370.938941
2375.92338
2372.101232
2368.144973
2368.077918
2366.423889
2362.042947
2364.725156
2375.453994
2375.92338
2371.743604
2370.335444
2370.268389
2372.101232
2363.138183
2359.025462
2365.28395
2370.044872
2370.000168
2359.718366
2360.835953
2365.730985
2358.913703
2355.717403
2355.985624
2359.986587
2365.239247
2368.502601
2363.585217
2363.451107
2367.139145
2363.182886
2359.584255
2365.41806
2370.357796
2367.005034
2370.782479
2378.918514
2377.912686
2372.123584
2362.668796
2364.345177
2368.033215
2365.015729
2358.824296
2359.494848
2359.830124
2367.921456
2372.637674
2371.587142
2380.930171
2386.026369
2380.259619
2383.701787
2385.53463
2383.567677
2384.104119
2381.936
2389.602648
2395.145881
2390.317904
2382.96418
2390.072035
2387.32277
2380.14786
2385.177003
2381.913648
2387.389825
2390.094386
2392.843651
2392.463671
2388.887392
2390.720235
2381.287799
2385.758148
2385.40052
2383.835898
2387.680398
2387.211011
2383.679436
2373.174116
2385.91461
2406.813491
2399.057436
2403.572488
2411.775578
2415.485968
2421.945622
2439.894073
2446.711355
2442.844503
2441.883378
2447.717184
2446.13021
2441.39164
2447.448963
2450.198227
2451.047593
2456.590826
2459.138925
2462.134059
2468.012568
2467.990216
2465.933855
2471.49944
2478.070853
2467.006739
2464.145716
2469.398376
2476.819155
2472.9076
2477.355597
2483.256457
2481.937704
2482.027111
2473.779318
2472.192344
2479.099033
2472.080585
2470.359501
2478.964922
2482.161222
2475.388643
2473.198172
2471.342977
2479.389605
2479.70253
2477.847335
2475.746271
2475.209829
2470.873591
2467.207905
2470.806536
2472.639379
2469.845411
2470.940646
2472.549972
2482.787071
2487.77151
2481.222448
2481.2448
2482.854126
2490.923106
2494.320571
2493.381797
2496.779263
2503.641248
2501.987219
2489.403187
2486.005722
2496.645152
2502.098978
2499.640286
2502.791882
2505.049408
2500.757873
2497.427463
2499.796748
2501.629591
2500.355542
2501.607239
2504.647077
2499.863803
2499.774396
2499.193251
2495.59462
2493.650018
2492.800652
2489.738463
2490.453719
2485.938667
2484.619914
2487.52564
2483.189402
2477.512059
2479.724882
2477.042672
2476.103899
2477.377948
2483.748196
2481.848297
2472.974655
2467.923161
2475.053367
2471.901771
2469.621893
2472.818193
2473.756966
2472.997007
2471.454736
2470.851239
2471.700605
2473.801669
2472.259399
2467.65494
2471.700605
2476.975617
2480.417786
2472.192344
2469.599541
2474.44987
2475.165126
2471.164163
2467.118498
2467.364367
2470.583018
2469.152506
2469.040748
2475.545105
2476.036844
2471.611198
2471.63355
2476.461527
2473.04171
2471.186515
2461.999948
2463.631626
2461.977597
2466.984387
2468.347844
2466.045614
2469.778355
2464.145716
2460.256512
2465.35271
2465.151544
2464.257474
2467.856105
2474.762794
2477.489707
2469.286617
2462.15641
2463.005777
2466.492649
2465.039786
2467.990216
2462.424631
2464.413937
2471.745309
2467.945512
2463.139887
2459.787126
2462.15641
2466.649111
2461.195285
2463.765736
2467.364367
2465.442117
2465.464469
2468.370195
2468.973693
2464.033957
2460.345919
2459.809477
2468.794879
2471.611198
2466.202076
2467.565533
2466.671463
2464.637454
2460.055346
2465.375062
2466.76087
2461.418803
2461.798783
2464.123364
2468.236085
2466.492649
2460.502381
2461.664672
2459.764774
2460.636492
2464.07866
2463.542219
2460.882361
2466.135021
2465.643283
2459.451849
2463.363405
2464.503344
2459.831829
2461.664672
2462.826963
2460.927065
2457.529599
2457.171971
2457.954283
2464.145716
2465.978559
2461.016472
2459.273035
2461.463506
2463.475163
2467.476126
2462.648149
2464.860972
2465.978559
2459.07187
2457.708413
2466.157373
2468.81723
2462.983425
2461.955245
2461.575265
2458.244855
2459.451849
2455.428535
2453.416878
2455.853219
2456.926102
2459.451849
2460.971768
2463.43046
2461.172934
2455.36148
2456.300253
2458.624835
2456.479067
2453.81921
2460.10005
2466.425594
2461.530562
2452.455753
2455.070907
2454.892094
2452.858085
2450.511152
2448.544198
2450.242931
2449.907655
2444.453829
2441.615157
2445.772582
2448.074811
2447.53837
2440.341108
2439.402335
2445.929044
2452.969844
2450.421745
2448.611253
2451.740498
2456.859047
2455.249721
2450.399393
2453.618044
2454.556817
2449.661785
2448.275977
2447.136038
2449.706489
2447.314852
2440.609329
2444.029146
2447.113686
2445.727878
2441.570454
2441.346936
2441.324585
2448.499495
2449.393564
2451.807553
2451.964015
2449.885303
2445.861989
2432.920329
2429.008773
2438.128285
2444.990271
2441.413992
2441.101067
2452.343995
2450.757021
2442.41982
2441.995137
2444.476181
2443.939739
2445.660823
2450.444096
2453.662748
2451.204056
2450.511152
2452.589864
2457.507248
2458.893056
2455.070907
2459.630663
2458.937759
2457.261378
2452.343995
2447.314852
2446.77841
2453.103954
2458.244855
2453.573341
2457.060213
2458.781297
2452.656919
2445.996099
2450.086468
2455.763812
2455.696756
2449.058288
2440.184646
2451.092297
2457.66371
2460.167105
2458.937759
2455.786163
2455.652053
2448.119515
2449.550027
2452.075774
2454.266245
2449.281806
2448.544198
2453.148657
2455.205018
2448.611253
2447.426611
2451.606387
2450.019413
2454.757983
2456.143791
2454.243893
2456.836695
2455.160314
2449.21475
2449.192399
2451.181704
2447.359556
2449.035936
2446.6443
2446.107858
2452.142829
2453.171009
2442.956262
2442.151599
2443.492704
2439.514093
2435.021393
2439.178817
2442.866855
2443.805628
2446.26432
2452.723974
2452.433402
2447.493666
2435.379021
2432.965032
2445.079678
2449.795896
2443.760925
2440.944605
2446.353727
2446.286672
2440.832846
2450.466448
2463.475163
2460.681195
2450.332338
2448.834771
2455.763812
2459.854181
2457.551951
2458.356614
2459.563608
2456.702585
2456.546123
2449.326509
2449.907655
2459.273035
2460.524733
2454.601521
2453.260416
2453.014547
2447.53837
2443.626814
2448.678309
2456.210846
2462.469335
2461.687024
2458.110745
2459.228332
2464.97273
2468.727823
2462.871666
2462.178762
2456.903751
2453.081602
2457.820172
2463.139887
2466.984387
2466.872629
2463.519867
2460.211809
2456.970806
2451.718146
2451.360518
2453.126306
2459.295387
2457.261378
2449.997061
2448.94653
2454.445059
2453.483934
2448.544198
2446.867817
2452.03107
2452.813381
2453.43923
2452.299291
2457.395489
2456.233198
2458.334262
2459.004815
2461.195285
2461.418803
2457.440192
2460.010643
2460.748251
2452.92514
2448.70066
2456.099088
2457.440192
2457.104916
2453.148657
2452.075774
2453.036899
2454.579169
2454.780335
2449.751192
2445.638471
2451.740498
2460.792954
2461.731727
2460.457678
2457.440192
2458.378966
2455.942626
2449.952358
2452.567512
2454.780335
2456.948454
2456.814344
2454.757983
2453.707451
2450.891131
2446.331375
2445.482009
2448.611253
2447.203093
2447.493666
2453.975672
2454.981501
2448.56655
2452.075774
2453.707451
2455.026204
2453.416878
2448.991233
2450.801724
2457.328434
2460.770602
2459.183628
2462.938722
2462.804611
2462.134059
2461.195285
2455.473239
2452.343995
2450.779373
2450.689966
2448.432439
2452.768678
2459.049518
2459.831829
2460.569437
2463.542219
2461.061175
2461.64232
2458.088393
2447.761887
2447.650128
2457.574303
2457.350785
2460.725899
2463.877495
2471.834716
2477.467355
2480.08251
2474.58398
2471.25357
2471.074757
2471.186515
2472.460565
2475.410995
2483.16705
2480.261323
2475.99214
2480.238972
2472.259399
2467.990216
2467.878457
2473.376986
2469.934818
2464.257474
2462.067003
2466.447945
2462.469335
2463.251646
2465.978559
2462.514038
2461.999948
2461.083527
2460.077698
2461.284692
2458.468373
2458.1778
2452.858085
2448.678309
2449.326509
2454.46741
2462.581094
2465.777393
2465.263303
2459.138925
2452.79103
2456.009681
2456.344957
2458.848352
2462.53639
2460.167105
2461.709376
2459.429498
2455.763812
2456.970806
2458.602483
2460.23416
2463.698681
2460.055346
2460.99412
2461.575265
2460.055346
2455.786163
2451.472277
2460.278864
2463.296349
2462.134059
2463.184591
2464.860972
2466.157373
2460.412974
2449.952358
2452.701623
2454.601521
2451.852256
2451.89696
2458.066041
2463.028129
2464.860972
2462.044652
2461.798783
2466.962036
2460.591788
2457.060213
2455.652053
2457.998986
2469.621893
2472.684082
2471.11946
2470.851239
2471.857068
2466.671463
2464.883323
2469.174858
2470.180687
2470.895943
2469.778355
2467.833754
2465.553876
2465.464469
2464.302178
2468.727823
2468.727823
2469.599541
2465.464469
2463.94455
2470.918294
2471.454736
2474.181649
2477.377948
2473.645207
2469.979521
2469.621893
2466.045614
2466.313835
2466.202076
2469.57719
2469.688948
2471.901771
2468.280788
2465.643283
2465.308006
2462.53639
2464.436288
2458.267207
2461.50821
2460.010643
2455.093259
2448.410088
2443.112724
2445.191436
2448.298329
2450.62291
2447.314852
2446.465486
2447.448963
2447.873646
2445.012622
2445.683175
2448.164218
2451.651091
2451.159352
2451.673442
2454.959149
2458.155448
2455.137963
2460.345919
2462.53639
2453.595692
2451.025242
2454.802687
2454.310948
2452.768678
2453.215713
2446.443134
2452.276939
2456.322605
2453.349823
2448.745364
2449.147695
2445.839637
2439.536445
2430.88632
2428.382925
2429.053477
2430.685154
2433.456771
2434.59671
2439.067058
2440.743439
2436.429553
2435.401372
2433.814399
2431.109837
2426.885358
2422.794988
2434.820227
2435.535483
2423.5773
2420.872738
2424.09139
2434.909634
2440.229349
2425.812474
2423.934927
2429.232291
2428.025297
2430.662803
2435.602538
2441.302233
2443.850332
2441.615157
2440.251701
2438.083582
2438.284747
2438.038878
2437.882416
2443.246835
2444.006794
2433.076791
2428.785256
2432.003907
2434.797875
2429.232291
2422.973802
2425.521901
2426.080695
2431.02043
2429.299346
2430.193416
2430.841616
2435.803704
2435.379021
2440.162294
2447.225445
2443.380945
2441.481047
2448.18657
2444.878512
2440.721088
2436.586015
2436.362497
2434.306137
2436.898939
2441.972785
2445.593768
2448.007756
2446.376079
2444.029146
2440.654032
2447.203093
2455.182666
2456.926102
2454.936797
2454.087431
2453.282768
2455.853219
2456.859047
2451.472277
2446.152561
2449.572378
2448.611253
2448.879474
2449.013585
2452.835733
2449.527675
2444.096201
2446.599596
2450.287634
2447.873646
2444.20796
2447.203093
2450.645262
2446.26432
2444.967919
2445.660823
2448.074811
2452.209884
2450.980538
2457.239027
2462.0223
2456.76964
2449.013585
2446.554893
2451.785201
2457.395489
2459.407146
2465.173896
2466.962036
2460.435326
2455.205018
2457.104916
2456.76964
2451.449925
2447.448963
2449.795896
2451.628739
2443.068021
2438.731782
2440.631681
2441.481047
2438.508265
2436.161332
2440.832846
2444.297367
2441.056364
2442.196303
2442.352765
2442.956262
2440.609329
2440.274053
2440.721088
2440.36346
2442.576282
2448.387736
2448.588902
2440.586977
2442.509227
2444.543236
2443.559759
2440.274053
2437.636547
2440.654032
2445.705527
2443.380945
2441.90573
2446.621948
2448.410088
2442.017489
2443.895035
2445.75023
2442.620986
2440.028183
2435.356669
2437.614195
2443.984442
2446.890169
2441.861027
2437.971823
2442.397468
2437.569492
2435.155503
2436.384849
2437.636547
2443.202131
2443.135076
2438.821189
2446.063154
2444.140904
2436.943643
2438.552968
2444.85616
2442.531579
2439.827018
2442.911558
2446.979576
2438.9553
2440.49757
2441.39164
2443.224483
2442.509227
2435.356669
2434.395544
2437.234215
2432.585053
2431.02043
2435.602538
2440.050535
2443.291538
2441.01166
2436.004869
2428.628794
2432.29448
2445.414954
2446.197265
2440.631681
2452.746326
2454.310948
2448.007756
2448.723012
2453.796858
2457.171971
2453.193361
2452.835733
2450.511152
2450.377041
2442.173951
2443.984442
2453.126306
2454.087431
2449.102992
2448.164218
2442.777448
2447.113686
2442.28571
2440.005832
2444.632643
2449.997061
2448.18657
2442.844503
2443.135076
2443.671518
2441.615157
2438.396506
2440.36346
2437.793009
2439.894073
2439.782314
2446.711355
2454.400355
2452.03107
2445.191436
2441.503399
2441.324585
2437.68125
2442.598634
2445.884341
2446.286672
2451.069945
2451.740498
2445.996099
2448.678309
2453.461582
2455.272073
2452.858085
2453.483934
2461.910541
2465.643283
2463.363405
2457.931931
2455.205018
2449.795896
2447.516018
2447.918349
2457.060213
2461.731727
2452.142829
2446.487838
2451.427573
2452.79103
2450.578207
2450.600559
2451.449925
2455.87557
2454.534466
2452.299291
2459.451849
2462.0223
2463.05048
2458.848352
2459.004815
2460.681195
2460.122402
2460.055346
2454.266245
2452.634567
2444.386774
2447.359556
2451.472277
2452.902788
2451.89696
2454.109782
2453.171009
2452.209884
2443.515056
2437.994175
2440.162294
2446.376079
2448.94653
2452.366346
2445.593768
2448.991233
2449.281806
2447.113686
2444.364422
2444.230311
2452.165181
2448.924178
2444.029146
2441.52575
2446.219617
2446.309024
2442.956262
2442.486875
2449.997061
2450.10882
2448.030108
2444.34207
2442.509227
2449.818248
2444.386774
2436.65307
2437.368326
2440.586977
2436.496608
2436.831884
2432.383887
2435.736649
2441.279881
2438.754134
2443.246835
2446.398431
2441.637509
2442.352765
2446.666652
2450.734669
2453.461582
2450.242931
2450.734669
2461.016472
2465.263303
2453.707451
2453.595692
2456.702585
2447.448963
2443.068021
2444.610291
2447.985404
2452.098125
2450.935835
2442.308061
2445.303195
2453.729803
2456.613178
2458.1778
2454.623873
2451.137
2451.38287
2454.199189
2450.712317
2456.099088
2459.407146
2458.893056
2453.215713
2454.176838
2454.422707
2445.213788
2446.26432
2454.310948
2460.23416
2451.584035
2443.135076
2448.164218
2453.349823
2450.131172
2445.772582
2445.549064
2449.728841
2450.220579
2437.770657
2429.142884
2430.640451
2434.59671
2437.211864
2434.820227
2439.536445
2440.229349
2440.072887
2443.179779
2447.113686
2447.873646
2445.504361
2442.084544
2441.793971
2444.364422
2445.772582
2449.952358
2452.008718
2450.712317
2454.959149
2454.936797
2449.661785
2449.192399
2449.572378
2450.265282
2450.354689
2447.270149
2445.973747
2438.396506
2433.143846
2435.982518
2444.699698
2441.52575
2444.051497
2443.738573
2441.01166
2440.095239
2435.311965
2426.460675
2426.237157
2427.600614
2432.160369
2436.27309
2440.586977
2434.619061
2430.729858
2432.048611
2431.847445
2430.327526
2433.210901
2432.227425
2430.059305
2427.712372
2429.880491
2435.1108
2430.595747
2430.774561
2432.160369
2430.171064
2438.642375
2444.677346
2440.005832
2434.484951
2437.234215
2435.513131
2431.601576
2438.016526
2434.976689
2431.936852
2435.401372
2432.517997
2431.869797
2431.825093
2428.695849
2424.09139
2432.406239
2430.863968
2425.320736
2422.057381
2423.644355
2433.389715
2435.602538
2428.852311
2422.012677
2424.985459
2429.388753
2427.377096
2423.622003
2427.153579
2432.741515
2438.262396
2435.62489
2430.998079
2434.462599
2432.696811
2426.728896
2434.21673
2442.129247
2438.977651
2431.9145
2424.158445
2422.772637
2421.520939
2417.743494
2424.069038
2425.164273
2424.292555
2424.784294
2416.692962
2414.144863
2414.793064
2414.837767
2411.440302
2412.803759
2416.357686
2416.424741
2412.356724
2413.384904
2414.681305
2412.937869
2412.736703
2416.357686
2419.464579
2421.833863
2428.651146
2422.862044
2420.828035
2421.297422
2418.235233
2419.241061
2424.136093
2421.722105
2422.750285
2420.693925
2413.742532
2411.440302
2407.685209
2401.717293
2407.931078
2406.187642
2407.43934
2405.159462
2399.951506
2396.55404
2399.996209
2402.365494
2401.337314
2399.526823
2404.466558
2404.041875
2408.892203
2417.989363
2420.805683
2419.956317
2420.291593
2414.636602
2414.61425
2413.988401
2416.201224
2418.905785
2415.731837
2421.230366
2426.259509
2421.677401
2412.468483
2417.363515
2429.053477
2434.708468
2441.503399
2437.323622
2438.597672
2446.577245
2447.650128
2441.995137
2437.68125
2435.200207
2439.84937
2443.671518
2431.802742
2430.88632
2430.774561
2432.473294
2431.333355
2431.9145
2434.954337
2446.845466
2447.359556
2444.006794
2445.593768
2442.7998
2442.263358
2441.52575
2444.476181
2447.717184
2446.554893
2442.464524
2444.85616
2447.381907
2452.723974
2447.046631
2442.531579
2448.343032
2444.811457
2438.888244
2440.028183
2436.27309
2437.368326
2438.664727
2440.788143
2442.41982
2443.917387
2436.295442
2436.764829
2441.034012
2435.803704
2437.144808
2433.859102
2440.184646
2444.185608
2434.306137
2433.501474
2440.274053
2440.184646
2437.614195
2430.841616
2433.18855
2433.970861
2433.814399
2429.09818
2426.304212
2436.697774
2435.960166
2436.407201
2434.59671
2434.999041
2434.060268
2432.070962
2428.785256
2429.880491
2428.651146
2424.985459
2418.391695
2421.051552
2425.857177
2434.239082
2431.109837
2423.398486
2422.794988
2414.793064
2417.117645
2425.968936
2425.030163
2423.443189
2422.973802
2420.850387
2432.450942
2432.182721
2424.337259
2420.291593
2422.571471
2423.867872
2425.879529
2428.315869
2424.985459
2430.841616
2426.930061
2420.00102
2422.526768
2427.086523
2417.631736
2417.654087
2423.353782
2429.388753
2432.205073
2427.667669
2424.60548
2429.187587
2433.054439
2429.232291
2417.94466
2415.195395
2421.208015
2419.643393
2414.10016
2410.076846
2407.931078
2404.175985
2396.241116
2387.009846
2395.481157
2403.796006
2408.042837
2406.366456
2406.835843
2407.081712
2400.823224
2403.773654
2408.378113
2410.568584
2403.72895
2399.325657
2406.701732
2406.902898
2407.551099
2411.686171
2413.854291
2414.278974
2412.244965
2409.093369
2414.569547
2413.854291
2411.909689
2411.887337
2414.726009
2415.977706
2414.346029
2409.540404
2408.199299
2415.821244
2418.525805
2413.250794
2406.634677
2404.958296
2403.930116
2404.980648
2404.891241
2405.293573
2402.968991
2404.846538
2403.192509
2405.51709
2403.281916
2403.572488
2405.450035
2413.630773
2420.716276
2417.229404
2419.263413
2418.503454
2422.280898
2425.879529
2420.157483
2424.650183
2431.02043
2426.773599
2428.561739
2431.825093
2434.417896
2430.729858
2426.192454
2423.689058
2425.320736
2430.014602
2431.40041
2424.694887
2428.114704
2435.915462
2428.606442
2429.500512
2429.008773
2430.50634
2425.25368
2420.224538
2416.983535
2420.939794
2423.733762
2419.509282
2413.116683
2411.641468
2415.709485
2410.993267
2409.87568
2418.101122
2422.102084
2416.02241
2413.429608
2412.267317
2413.630773
2413.809587
2420.962145
2419.509282
2416.849424
2414.971878
2413.161387
2409.003962
2409.495701
2407.148767
2410.657991
2411.462654
2413.407256
2420.045724
2426.483026
2423.353782
2419.397523
2415.843596
2415.12834
2415.754189
2416.268279
2413.742532
2407.148767
2416.02241
2420.336297
2416.603555
2415.64243
2414.882471
2406.299401
2408.601631
2408.311058
2403.013695
2405.51709
2401.851404
2400.286782
2400.510299
2402.209032
2407.081712
2404.846538
2401.113796
2409.339238
2416.223576
2411.529709
2407.931078
2406.992305
2420.537462
2425.097218
2409.763921
2403.103102
2404.198337
2410.009791
2412.848462
2406.165291
2406.433512
2410.926212
2405.628849
2401.650238
2407.729913
2422.16914
2405.762959
2390.407311
2392.776596
2389.692055
2384.841726
2375.856325
2361.730023
2358.377261
2359.919531
2357.97493
2350.889427
2345.860284
2337.232511
2333.231548
2337.746601
2341.725211
2342.149894
2337.679546
2335.444371
2341.814618
2343.088668
2336.941938
2339.91472
2342.35106
2344.407421
2337.411325
2331.622223
2333.209197
2336.405496
2333.857397
2336.629014
2336.517255
2337.880711
2339.132409
2336.047868
2334.01386
2336.003165
2337.970118
2341.32288
2340.42881
2341.546397
2340.138237
2338.998299
2343.490999
2344.809752
2343.75922
2344.072145
2339.311223
2341.144066
2347.246092
2340.987604
2340.384107
2347.626072
2350.598854
2352.789325
2348.587197
2351.001185
2355.382127
2355.695052
2352.319938
2351.492924
2360.54538
2363.026424
2361.282988
2345.636767
2349.995357
2357.840819
2354.13043
2354.890389
2351.492924
2356.142087
2355.695052
2353.437525
2354.488057
2355.426831
2358.086688
2358.578427
2358.265502
2362.154706
2355.136258
2354.085726
2357.863171
2356.477363
2352.498752
2353.795153
2357.818467
2359.159572
2362.288816
2358.153744
2357.818467
2349.794191
2345.726174
2359.696014
2372.056529
2369.106098
2374.805793
2383.34416
2395.52586
2399.839747
2400.175023
2406.746436
2413.228442
2413.474311
2416.760017
2413.563718
2404.064227
2409.629811
2422.213843
2422.929099
2418.235233
2417.251756
2423.286727
2427.377096
2423.487893
2420.738628
2421.833863
2424.918404
2423.5773
2417.587032
2421.498587
2430.238119
2425.678364
2414.323677
2417.765846
2422.504416
2422.638526
2415.865948
2413.876642
2417.095294
2421.006849
2426.01364
2424.873701
2424.60548
2424.404314
2415.977706
2415.776541
2427.846483
2433.635585
2425.767771
2421.722105
2423.890224
2422.705582
2413.519015
2416.760017
2424.113741
2419.933965
2417.296459
2421.498587
2422.571471
2420.515111
2420.157483
2417.318811
2421.811512
2426.997116
2420.381
2419.48693
2421.230366
2420.559814
2423.33143
2422.437361
2418.704619
2422.549119
2418.682268
2413.58607
2419.174006
2421.677401
2420.157483
2414.346029
2409.003962
2400.800872
2411.105026
2420.537462
2413.809587
2410.546233
2413.787235
2416.089465
2414.23427
2416.044762
2417.609384
2413.519015
2411.14973
2408.400465
2412.244965
2410.300363
2408.311058
2404.779482
2405.271221
2409.540404
2405.584145
2403.036046
2403.505433
2407.975782
2407.573451
2398.476291
2398.252773
2401.851404
2398.20807
2395.861136
2396.375227
2405.628849
2409.003962
2409.540404
2406.187642
2405.047703
2402.007866
2403.684247
2405.114759
2408.46752
2410.143901
2406.791139
2404.801834
2404.019523
2402.05257
2399.504471
2405.472387
2403.237212
2406.344105
2407.014657
2409.160424
2407.104064
2403.751302
2402.589012
2399.437416
2401.784349
2408.221651
2409.920384
2411.127378
2404.019523
2405.204166
2405.070055
2405.539442
2401.382017
2401.314962
2402.365494
2402.857232
2395.369398
2399.504471
2405.874718
2403.751302
2398.476291
2402.477253
2409.071017
2412.781407
2405.360628
2399.951506
2398.364532
2397.157538
2408.221651
2405.941773
2398.945677
2402.745474
2409.629811
2421.073904
2420.448055
2417.05059
2410.76975
2406.478215
2405.740607
2410.076846
2411.79793
2410.63564
2411.909689
2412.222613
2408.936907
2413.027276
2423.286727
2426.885358
2420.738628
2418.212881
2422.035029
2422.392657
2420.157483
2417.497625
2416.223576
2419.106951
2416.804721
2415.307154
2415.463616
2423.174968
2424.203148
2426.214805
2424.203148
2419.039895
2423.085561
2416.268279
2411.216785
2410.367419
2404.712427
2405.673552
2402.18668
2406.142939
2412.736703
2411.507358
2412.781407
2409.182776
2407.104064
2409.585108
2405.13711
2405.271221
2409.518052
2414.368381
2414.346029
2410.434474
2405.472387
2401.739645
2402.611363
2409.36159
2406.54527
2402.812529
2412.110855
2420.559814
2421.900919
2419.576337
2403.416026
2400.912631
2410.434474
2410.233308
2404.645372
2401.024389
2403.147805
2407.662857
2404.287744
2407.238174
2413.58607
2417.721142
2417.654087
2411.239137
2407.528747
2410.702695
2416.804721
2416.804721
2412.31202
2408.914555
2404.913593
2406.500567
2407.998134
2404.220689
2397.246945
2407.640506
2420.381
2419.35282
2416.134169
2422.280898
2430.461637
2438.418858
2436.295442
2425.812474
2419.48693
2424.136093
2434.686117
2432.540349
2432.629756
2434.909634
2433.233253
2428.405276
2421.610346
2423.957279
2431.78039
2427.220634
2422.236195
2426.773599
2429.008773
2425.365439
2422.392657
2422.415009
2416.938831
2418.570509
2418.794026
2425.11957
2430.88632
2430.931023
2429.209939
2425.097218
2425.924233
2428.718201
2425.63366
2430.416933
2426.14775
2424.694887
2428.114704
2423.934927
2421.744456
2420.068076
2428.941718
2427.980593
2424.247852
2425.186625
2423.689058
2423.398486
2423.398486
2421.431532
2421.945622
2422.459712
2427.667669
2435.535483
2433.590881
2427.220634
2418.861081
2420.783331
2429.455808
2427.108875
2417.899956
2420.828035
2427.533558
2433.792047
2429.075829
2422.750285
2423.465541
2428.561739
2425.544253
2423.84552
2424.404314
2424.73959
2426.66184
2422.191491
2424.471369
2420.76098
2416.223576
2417.475273
2418.212881
2422.035029
2425.186625
2424.314907
2420.582166
2426.035991
2426.52773
2422.929099
2425.432494
2425.410143
2422.16914
2422.191491
2420.559814
2425.924233
2427.757076
2421.699753
2423.867872
2427.198282
2427.846483
2428.628794
2428.58409
2423.689058
2420.89509
2423.174968
2418.861081
2417.095294
2413.474311
2412.446131
2406.366456
2410.25566
2413.474311
2415.530672
2409.115721
2407.282878
2408.601631
2412.066151
2411.440302
2409.562756
2409.160424
2410.76975
2415.553023
2410.76975
2407.260526
2406.478215
2404.801834
2402.678418
2403.259564
2401.829052
2402.454901
2399.526823
2398.588049
2395.861136
2389.669703
2385.981665
2392.888354
2400.219727
2402.164328
2397.917497
2394.140052
2395.637619
2392.374264
2387.83686
2390.630828
2399.057436
2399.75034
2400.64441
2405.070055
2410.657991
2403.21486
2395.481157
2397.984552
2410.926212
2413.407256
2411.66382
2405.271221
2409.652163
2412.133206
2407.372285
2400.979686
2404.332448
2407.662857
2402.834881
2395.414102
2395.078825
2401.627886
2402.924288
2406.075884
2407.461692
2417.676439
2410.926212
2401.8067
2403.863061
2405.450035
2405.852366
2404.667724
2411.596765
2414.591898
2406.455863
2407.260526
2403.46073
2400.398541
2405.718256
2407.484044
2407.774616
2405.718256
2404.041875
2404.310096
2400.957334
2399.124491
2404.511262
2403.840709
2401.627886
2399.415064
2402.812529
2410.032142
2409.786273
2406.54527
2406.277049
2403.661895
2402.879584
2404.734779
2411.596765
2421.386829
2413.474311
2406.92525
2410.25566
2411.574413
2411.127378
2408.042837
2409.272183
2410.881509
2409.450997
2403.259564
2401.896107
2408.8475
2412.356724
2412.334372
2413.161387
2416.804721
2420.112779
2411.753227
2402.030218
2403.103102
2415.016581
2414.524843
2410.210956
2410.479177
2412.759055
2412.17791
2413.362552
2412.31202
2412.624945
2416.894128
2420.783331
2421.096256
2419.151654
2415.575375
2409.652163
2411.507358
2416.15652
2416.15652
2415.083637
2412.401427
2410.657991
2406.008828
2409.093369
2410.859157
2413.630773
2421.677401
2419.330468
2419.241061
2422.280898
2421.967974
2421.699753
2420.023372
2417.072942
2425.208977
2433.724992
2429.99225
2425.834826
2424.73959
2427.712372
2427.019468
2428.695849
2432.853273
2433.143846
2435.066096
2435.803704
2433.568529
2426.751247
2426.058343
2429.008773
2425.767771
2432.406239
2432.696811
2433.300308
2435.669593
2432.406239
2429.880491
2421.230366
2419.509282
2428.651146
2424.516073
2422.862044
2421.185663
2421.520939
2422.526768
2417.207052
2417.721142
2424.046686
2425.320736
2419.196358
2422.794988
2421.833863
2420.626869
2418.123474
2414.971878
2414.256622
2420.00102
2416.983535
2414.927174
2424.069038
2424.538425
2424.359611
2422.079733
2421.476236
2421.163311
2420.358648
2423.510244
2428.58409
2427.198282
2422.794988
2416.827073
2415.575375
2422.616175
2422.280898
2420.448055
2418.503454
2417.810549
2417.721142
2416.692962
2416.245927
2415.754189
2421.722105
2422.347954
2421.40918
2419.777503
2418.816378
2418.391695
2420.045724
2422.862044
2423.130265
2421.565643
2419.442227
2418.279936
2418.592861
2421.342125
2420.157483
2415.173044
2421.811512
2422.750285
2416.491797
2420.00102
2429.187587
2435.490779
2427.4218
2427.466503
2432.562701
2426.773599
2422.459712
2424.314907
2422.079733
2417.028238
2409.696866
2413.921346
2425.231329
2430.059305
2427.04182
2422.191491
2425.588957
2428.293518
2428.673497
2427.198282
2422.392657
2430.238119
2434.104971
2428.092352
2425.656012
2427.220634
2429.388753
2425.611308
2421.073904
2428.382925
2430.774561
2430.707506
2428.919366
2426.572433
2425.812474
2425.678364
2427.913538
2424.516073
2426.304212
2427.93589
2427.712372
2428.159407
2427.198282
2424.069038
2415.798892
2419.710448
2421.565643
2424.381962
2424.247852
2422.079733
2426.818302
2430.75221
2423.018506
2423.040858
2420.89509
2415.12834
2419.062247
2421.543291
2418.414047
2419.174006
2420.448055
2422.638526
2426.885358
2422.280898
2416.692962
2415.217747
2414.010753
2413.116683
2407.95343
2411.842634
2421.230366
2424.404314
2418.548157
2415.64243
2408.176948
2411.350895
2420.24689
2422.794988
2415.64243
2411.79793
2411.082674
2403.036046
2402.879584
2409.607459
2416.91648
2419.464579
2415.307154
2407.998134
2412.222613
2415.50832
2407.618154
2405.807663
2414.547195
2418.592861
2412.110855
2413.004924
2414.927174
2411.395599
2403.684247
2406.724084
2410.702695
2412.848462
2415.798892
2410.90386
2407.841671
2408.087541
2405.159462
2407.685209
2412.55789
2414.033105
2416.469445
2410.501529
2410.546233
2416.424741
2419.285765
2415.553023
2404.801834
2404.757131
2403.013695
2402.633715
2405.986477
2402.276087
2401.627886
2397.917497
2398.923325
2400.219727
2403.147805
2398.275125
2393.4695
2397.246945
2404.265392
2404.131282
2399.593878
2401.67259
2402.454901
2400.957334
2399.258602
2403.438378
2409.942735
2405.405331
2402.209032
2399.23625
2403.863061
2406.03118
2403.773654
2405.718256
2403.952468
2405.338276
2404.287744
2403.773654
2403.930116
2407.416988
2405.293573
2405.360628
2406.187642
2412.133206
2406.142939
2403.281916
2406.098235
2407.148767
2409.473349
2406.03118
2404.287744
2407.037009
2404.131282
2404.958296
2409.093369
2411.105026
2408.758093
2405.964125
2408.601631
2411.440302
2409.003962
2404.064227
2404.48891
2409.786273
2412.736703
2408.780445
2404.779482
2407.752264
2406.567622
2401.694942
2396.196413
2390.094386
2392.284857
2392.821299
2396.308171
2399.280953
2394.072997
2392.664837
2388.775633
2382.383035
2394.855308
2403.572488
2397.358703
2390.65318
2392.508375
2389.937924
2391.279029
2395.235288
2399.683285
2399.862099
2398.543346
2397.314
2395.302343
2389.222668
2387.032197
2391.815471
2400.376189
2414.860119
2417.698791
2414.74836
2406.209994
2403.639543
2404.533613
2405.919421
2403.706599
2410.121549
2408.154596
2405.695904
2405.539442
2404.645372
2408.199299
2406.835843
2409.719218
2411.775578
2411.306192
2408.936907
2407.707561
2410.702695
2409.518052
2409.696866
2412.692
2420.626869
2422.504416
2425.320736
2420.693925
2414.569547
2407.886375
2423.599651
2425.968936
2430.260471
2427.824131
2442.28571
2448.901826
2450.287634
2458.513076
2465.218599
2463.743384
2458.378966
2459.407146
2467.029091
2465.822097
2463.005777
2465.419765
2474.494573
2476.014492
2468.236085
2464.548047
2466.336187
2469.353672
2469.510134
2465.375062
2463.206942
2463.095184
2462.782259
2459.138925
2456.613178
2456.881399
2459.094221
2459.831829
2464.011605
2470.381852
2464.950379
2459.96594
2462.53639
2468.549009
2467.498477
2459.094221
2458.937759
2463.184591
2458.69189
2462.357576
2459.988291
2462.357576
2461.396451
2455.920274
2456.926102
2461.731727
2463.542219
2458.088393
2459.384794
2462.245817
2459.943588
2456.993158
2458.826001
2459.898884
2461.195285
2458.624835
2452.41105
2452.388698
2447.471314
2451.584035
2452.567512
2452.120477
2459.58596
2467.27496
2462.312873
2458.289559
2462.424631
2465.8668
2462.089355
2460.48003
2461.329396
2462.849315
2458.110745
2461.284692
2465.173896
2466.783222
2468.392547
2461.12823
2460.211809
2464.592751
2467.297312
2467.565533
2465.889152
2449.818248
2442.777448
2443.559759
2438.016526
2431.579224
2419.375172
2413.831939
2407.595802
2407.193471
2401.583183
2393.4695
2398.878622
2401.247907
2407.05936
2404.354799
2401.426721
2404.086578
2404.868889
2407.484044
2406.187642
2402.633715
2409.853328
2411.887337
2407.238174
2408.087541
2410.792102
2408.668686
2404.041875
2404.019523
2403.304267
2406.813491
2407.193471
2407.707561
2407.081712
2401.717293
2399.705636
2404.421855
2406.947602
2402.499605
2400.77852
2395.347046
2395.123529
2391.882526
2394.855308
2398.364532
2397.515166
2393.424796
2401.53848
2404.645372
2404.399503
2402.812529
2397.761035
2398.923325
2404.10893
2409.540404
2413.854291
2410.009791
2408.869852
2413.183738
2411.105026
2409.652163
2410.032142
2413.295497
2419.799855
2416.357686
2411.619116
2408.802796
2408.355762
2412.110855
2418.97284
2425.298384
2423.130265
2421.118608
2414.74836
2418.369343
2420.045724
2417.94466
2411.909689
2408.109892
2414.413084
2416.603555
2411.037971
2414.390733
2418.481102
2420.023372
2419.151654
2418.83873
2418.391695
2424.918404
2423.152616
2425.097218
2429.187587
2426.930061
2424.940756
2424.516073
2425.611308
2425.141922
2420.626869
2423.040858
2420.693925
2424.694887
2422.794988
2420.157483
2423.398486
2426.14775
2421.632698
2418.034067
2421.565643
2421.766808
2420.090427
2421.744456
2423.554948
2422.16914
2421.722105
2423.353782
2420.492759
2419.710448
2424.694887
2426.080695
2423.018506
2421.990326
2418.235233
2414.256622
2417.721142
2422.459712
2425.656012
2431.713335
2427.667669
2425.052515
2417.989363
2420.403352
2421.990326
2419.665744
2427.533558
2427.645317
2418.279936
2413.966049
2413.519015
2423.19732
2425.834826
2424.828997
2428.092352
2428.986422
2430.998079
2422.884395
2414.681305
2420.515111
2425.49955
2428.338221
2428.785256
2425.074866
2419.621041
2419.553986
2422.862044
2425.544253
2420.381
2422.347954
2423.398486
2421.163311
2425.63366
2426.125398
2421.029201
2420.783331
2423.689058
2417.587032
2412.110855
2415.888299
2419.062247
2420.112779
2422.079733
2425.991288
2424.650183
2419.889262
2421.431532
2424.650183
2426.997116
2419.464579
2410.345067
2416.938831
2420.604518
2417.989363
2418.503454
2418.414047
2421.744456
2416.245927
2414.033105
2415.262451
2416.692962
2418.883433
2412.334372
2412.423779
2413.742532
2408.98161
2410.657991
2418.481102
2426.572433
2426.706544
2427.868834
2424.761942
2424.60548
2416.692962
2421.498587
2417.408218
2414.323677
2420.738628
2427.712372
2422.236195
2420.492759
2425.365439
2424.381962
2417.139997
2409.249831
2411.261488
2415.485968
2415.150692
2415.485968
2412.066151
2406.142939
2403.863061
2409.22748
2411.820282
2414.904823
2417.497625
2414.033105
2416.648259
2425.812474
2422.794988
2411.350895
2411.529709
2420.112779
2415.262451
2410.590936
2409.607459
2418.369343
2420.00102
2416.827073
2413.295497
2410.143901
2408.959259
2411.686171
2409.138073
2413.183738
2418.369343
2409.540404
2414.971878
2424.963108
2430.014602
2427.153579
2423.085561
2421.163311
2422.370305
2417.542329
2415.709485
2419.933965
2427.690021
2426.885358
2420.24689
2416.000058
2422.459712
2425.521901
2420.358648
2414.346029
2414.413084
2421.520939
2422.794988
2419.688096
2425.946584
2423.353782
2420.336297
2423.33143
2425.611308
2426.192454
2425.544253
2415.038933
2416.201224
2413.451959
2418.391695
2424.985459
2423.756114
2431.690983
2427.153579
2422.772637
2419.397523
2422.213843
2420.939794
2419.308116
2415.374209
2417.162349
2421.073904
2425.365439
2431.02043
2426.035991
2406.120587
2401.851404
2404.466558
2409.562756
2413.004924
2405.919421
2403.863061
2409.562756
2410.63564
2408.288706
2401.694942
2398.275125
2406.679381
2408.378113
2408.020485
2405.6512
2405.852366
2411.105026
2407.081712
2408.109892
2407.30523
2401.717293
2407.037009
2408.959259
2409.965087
2412.066151
2406.165291
2403.304267
2402.477253
2411.686171
2411.932041
2407.685209
2411.79793
2410.590936
2401.650238
2396.911668
2401.180852
2408.780445
2410.166253
2408.825148
2414.591898
2410.278012
2402.119625
2395.749378
2398.968029
2401.739645
2406.522919
2402.991343
2399.415064
2400.733817
2403.393674
2404.801834
2409.87568
2416.760017
2417.117645
2408.8475
2402.879584
2406.522919
2416.044762
2420.850387
2420.850387
2422.280898
2426.438323
2424.09139
2411.485006
2410.814453
2412.222613
2417.587032
2419.397523
2418.592861
2418.481102
2424.449018
2420.112779
2414.524843
2417.005887
2413.697828
2405.561794
2405.584145
2407.864023
2412.289669
2412.692
2415.463616
2417.721142
2417.385866
2409.495701
2402.007866
2400.599706
2403.863061
2411.954392
2414.301326
2413.228442
2414.949526
2413.384904
2404.153634
2395.659971
2396.755206
2393.827128
2406.008828
2406.746436
2405.13711
2403.684247
2403.684247
2407.416988
2406.657029
2406.791139
2407.148767
2404.980648
2406.701732
2409.898032
2409.495701
2407.260526
2407.707561
2413.340201
2415.575375
2412.82611
2407.752264
2408.109892
2407.998134
2408.042837
2405.159462
2405.181814
2406.478215
2410.63564
2408.065189
2406.612326
2406.701732
2403.72895
2404.310096
2406.567622
2417.028238
2416.067113
2410.143901
2413.07198
2419.509282
2416.894128
2411.127378
2413.451959
2417.162349
2424.404314
2418.525805
2412.289669
2416.245927
2414.636602
2407.43934
2409.22748
2410.546233
2408.936907
2405.338276
2401.851404
2409.383942
2412.602593
2405.114759
2395.481157
2403.013695
2408.311058
2414.144863
2411.172081
2407.864023
2407.104064
2409.383942
2403.572488
2393.760072
2396.710503
2402.410198
2397.135186
2403.147805
2403.281916
2399.213898
2395.347046
2391.390788
2394.274163
2396.531689
2401.918459
2394.520032
2392.329561
2392.307209
2392.351913
2393.894183
2395.972895
2398.431587
2394.520032
2397.425759
2407.43934
2402.857232
2396.241116
2402.164328
2406.41116
2407.95343
2406.455863
2405.472387
2404.734779
2406.567622
2415.351858
2410.76975
2409.093369
2403.840709
2398.677456
2403.304267
2403.907764
2398.811567
2397.939849
2397.381055
2400.376189
2405.6512
2407.260526
2406.634677
2402.141977
2399.37036
2405.718256
2412.17791
2412.222613
2409.160424
2408.489872
2408.623983
2406.209994
2405.025352
2409.830977
2409.763921
2409.115721
2408.378113
2412.803759
2410.345067
2408.355762
2408.8475
2405.986477
2411.79793
2412.31202
2418.101122
2422.370305
2418.346991
2415.977706
2414.591898
2415.284802
2417.922308
2418.503454
2412.781407
2410.859157
2410.546233
2412.401427
2417.832901
2420.090427
2416.581204
2410.523881
2407.975782
2415.083637
2419.755151
2418.883433
2415.955355
2414.457788
2419.889262
2421.811512
2423.867872
2415.50832
2416.648259
2419.084599
2416.111817
2418.503454
2422.616175
2426.304212
2421.92327
2415.776541
2422.124436
2424.560776
2418.101122
2416.670611
2421.498587
2425.11957
2428.718201
2427.377096
2422.191491
2422.347954
2424.136093
2424.024334
2428.539387
2426.058343
2424.985459
2423.532596
2422.839692
2421.208015
2425.186625
2428.919366
2426.080695
2424.516073
2426.483026
2424.359611
2420.381
2421.230366
2427.913538
2431.40041
2432.249776
2431.869797
2430.595747
2426.795951
2422.482064
2417.139997
2419.419875
2426.259509
2426.483026
2420.828035
2426.818302
2422.727933
2424.560776
2421.610346
2421.319773
2424.828997
2426.52773
2426.907709
2422.280898
2416.245927
2415.351858
2420.559814
2417.139997
2410.121549
2408.109892
2401.449073
2393.670665
2389.356779
2393.357741
2388.663875
2386.80868
2388.708578
2389.177965
2386.383997
2383.34416
2382.025407
2383.165346
2383.433567
2385.512279
2379.879639
2380.103157
2379.387901
2370.335444
2368.659063
2365.172191
2368.279084
2367.742642
2360.254808
2357.572598
2366.982683
2367.317959
2363.138183
2359.539552
2359.807773
2362.937017
2360.813601
2363.339348
2365.373357
2361.484153
2363.205238
2359.740717
2361.662967
2362.84761
2348.073107
2353.661043
2380.706654
2387.412177
2381.17604
2390.094386
2398.409235
2405.718256
2411.127378
2415.016581
2420.984497
2428.092352
2426.594785
2429.411105
2433.523826
2429.455808
2422.280898
2416.91648
2414.793064
2417.162349
2420.157483
2418.704619
2422.280898
2429.276994
2429.008773
2426.773599
2431.355707
2433.143846
2430.349878
2425.968936
2423.84552
2422.68323
2422.415009
2426.930061
2425.410143
2419.822206
2415.843596
2413.630773
2412.848462
2417.698791
2423.666707
2420.76098
2419.576337
2420.157483
2414.681305
2407.037009
2407.551099
2410.523881
2416.469445
2417.363515
2421.744456
2417.654087
2417.207052
2417.274108
2411.507358
2409.540404
2416.134169
2426.125398
2422.862044
2418.212881
2420.828035
2419.062247
2414.010753
2411.820282
2416.02241
2415.418913
2409.719218
2410.456826
2416.469445
2416.692962
2413.362552
2406.098235
2388.909744
2387.389825
2395.212936
2395.838785
2405.584145
2415.307154
2421.78916
2422.392657
2418.726971
2424.180797
2425.25368
2418.101122
2421.118608
2428.58409
2432.920329
2428.517035
2422.236195
2426.885358
2433.881454
2431.758038
2426.907709
2426.259509
2433.32266
2431.892148
2427.511207
2430.774561
2432.361535
2431.512169
2429.075829
2431.579224
2436.608367
2433.076791
2425.030163
2426.438323
2429.634622
2432.517997
2430.215768
2427.242986
2433.635585
2435.24491
2437.077753
2433.769695
2436.161332
2432.696811
2432.94268
2436.809532
2433.367364
2435.580186
2440.184646
2441.101067
2437.860064
2439.447038
2446.309024
2444.096201
2435.222558
2439.84937
2444.476181
2438.664727
2436.921291
2441.39164
2441.77162
2433.367364
2434.037916
2440.139942
2445.191436
2446.040803
2437.122457
2434.172026
2434.529654
2428.829959
2424.985459
2424.314907
2427.04182
2432.406239
2433.926157
2435.155503
2431.534521
2420.850387
2415.038933
2411.932041
2416.491797
2413.563718
2411.037971
2409.205128
2407.662857
2394.922363
2392.620133
2391.837822
2392.642485
2393.60361
2392.843651
2382.517145
2380.66195
2386.451052
2383.657084
2383.724139
2380.840764
2376.012787
2374.917552
2372.011825
2375.811622
2376.102194
2371.520087
2366.669758
2368.167325
2370.089575
2371.162459
2367.183848
2371.318921
2375.833973
2377.912686
2376.996264
2371.609494
2376.660988
2386.026369
2383.970008
2382.517145
2382.561848
2388.082729
2390.65318
2391.68136
2396.755206
2392.687189
2387.367474
2386.249886
2391.927229
2398.878622
2393.178927
2393.938886
2392.329561
2393.916535
2398.252773
2391.16727
2391.122567
2394.967067
2398.610401
2386.540459
2381.243096
2384.551154
2386.29459
2384.50645
2381.936
2385.26641
2397.9622
2399.37036
2410.121549
2414.971878
2418.034067
2422.772637
2416.961183
2424.113741
2430.662803
2434.060268
2426.259509
2422.906747
2426.035991
2432.205073
2428.181759
2427.533558
2428.829959
2429.209939
2437.368326
2435.021393
2428.740553
2425.030163
2417.765846
2415.307154
2415.910651
2418.436398
2420.515111
2417.43057
2425.879529
2425.521901
2421.632698
2424.426666
2425.320736
2425.343087
2429.366401
2432.003907
2429.075829
2425.186625
2421.722105
2429.165236
2429.411105
2424.650183
2425.298384
2429.187587
2431.512169
2428.271166
2428.986422
2433.412067
2431.199244
2432.920329
2434.328489
2432.585053
2428.941718
2426.952413
2422.81734
2417.877605
2414.74836
2418.034067
2426.348916
2439.111762
2431.2663
2407.707561
2408.825148
2406.835843
2399.593878
2392.307209
2390.519069
2383.165346
2365.261598
2352.945787
2353.616339
2357.21497
2358.533723
2354.957444
2355.382127
2359.5172
2358.712537
2350.218874
2345.927339
2349.503618
2354.331595
2357.147915
2356.656177
2358.332557
2358.779592
2352.386993
2349.145991
2345.972043
2353.214008
2358.578427
2354.39865
2355.717403
2359.025462
2356.767935
2354.890389
2358.153744
2353.973967
2352.319938
2349.548322
2346.95552
2350.755316
2351.157648
2352.901084
2355.29272
2359.248979
2359.338386
2358.980758
2361.417098
2363.786383
2366.714462
2359.472496
2356.410307
2359.405441
2362.042947
2350.04006
2348.430735
2355.918569
2362.445278
2357.460839
2358.265502
2360.321863
2368.435546
2367.2062
2346.083802
2336.740772
2339.735906
2335.623185
2330.415229
2329.431752
2335.913758
2338.283043
2336.830179
2340.473514
2340.697031
2335.399668
2337.008993
2335.645537
2338.193636
2343.692165
2341.859322
2335.801999
2334.505598
2336.919586
2337.590139
2340.719383
2334.393839
2330.929319
2332.985679
2331.689278
2333.320955
2337.299566
2337.210159
2335.377316
2340.987604
2338.819485
2341.121714
2338.350098
2333.343307
2337.165455
2330.884615
2326.280156
2333.2539
2331.309298
2328.00124
2326.391915
2330.526987
2332.784514
2336.338441
2330.035249
2329.722325
2336.092572
2333.499769
2329.588214
2331.264595
2336.561958
2339.378278
2335.578482
2333.544473
2331.801037
2335.734944
2333.879749
2329.230586
2331.108133
2332.404534
2333.790342
2332.762162
2325.631955
2329.632918
2329.767028
2326.906005
2331.376354
2337.970118
2341.278176
2341.45699
2338.640671
2334.885578
2333.946804
2330.370525
2329.364697
2330.035249
2338.283043
2334.326784
2333.209197
2335.354964
2335.444371
2332.002203
2331.376354
2327.800075
2328.51533
2327.35304
2331.376354
2335.399668
2326.347211
2317.339458
2337.388973
2343.781572
2346.754354
2357.483191
2365.216895
2369.150802
2372.83884
2374.448165
2371.43068
2368.904933
2365.172191
2367.988511
2370.827183
2366.535648
2364.278122
2366.267427
2365.172191
2364.836915
2369.597837
2369.955465
2369.195505
2375.141069
2375.364587
2373.621151
2371.453031
2362.758203
2364.658101
2371.475383
2377.420947
2378.516183
2377.488002
2373.554095
2371.43068
2367.183848
2366.267427
2366.736813
2373.330578
2373.218819
2373.397633
2374.023482
2369.933113
2371.296569
2372.615322
2372.123584
2378.382072
2382.137165
2377.800927
2376.370415
2372.436508
2371.765956
2371.609494
2375.051662
2380.01375
2379.052625
2375.766918
2370.715424
2375.096366
2372.727081
2367.832049
2368.256732
2368.815526
2381.17604
2382.830069
2382.360683
2378.940866
2383.411215
2379.298494
2377.800927
2380.170212
2378.426776
2371.788308
2367.295607
2370.894238
2375.78927
2374.582276
2370.313093
2367.697938
2371.162459
2380.930171
2382.248924
2374.269351
2370.804831
2377.085671
2378.7397
2379.678473
2379.209087
2386.585162
2387.970971
2376.81745
2373.643502
2382.137165
2380.483136
2376.124546
2378.7397
2373.040005
2373.688206
2369.419023
2369.977816
2368.010863
2366.580351
2366.423889
2374.805793
2374.336407
2377.085671
2373.285875
2371.922418
2373.911723
2374.224648
2377.867982
2375.40929
2374.448165
2374.76109
2376.124546
2375.319883
2374.336407
2377.800927
2373.419985
2366.401537
2364.166363
2371.229514
2375.118718
2368.279084
2368.636712
2372.950598
2375.632808
2375.319883
2372.123584
2360.165401
2372.749433
2377.979741
2377.040968
2382.003055
2381.846593
2376.124546
2379.276142
2378.359721
2377.242133
2384.618209
2387.501584
2395.704674
2391.770767
2385.355817
2394.162404
2397.515166
2398.520994
2396.084654
2394.520032
2383.299456
2390.966104
2395.90584
2391.010808
2392.106043
2391.994285
2383.053587
2372.727081
2375.699863
2380.170212
2374.626979
2371.609494
2372.101232
2379.365549
2378.896162
2371.654197
2373.621151
2386.138128
2388.261543
2385.422872
2387.993322
2391.457843
2392.553078
2399.146843
2407.327581
2415.195395
2418.056419
2414.457788
2410.702695
2415.463616
2415.865948
2425.25368
2435.177855
2435.960166
2430.573396
2430.796913
2438.9553
2437.502436
2434.462599
2436.831884
2440.385811
2446.219617
2461.64232
2458.960111
2457.417841
2458.826001
2462.514038
2464.659806
2468.504306
2463.899847
2464.749213
2471.834716
2470.918294
2467.006739
2467.766698
2472.66173
2467.811402
2465.240951
2470.962998
2479.121385
2479.858992
2472.058233
2467.27496
2467.051443
2474.695739
2473.04171
2473.913428
2478.29437
2476.796803
2476.528582
2470.247742
2471.454736
2474.695739
2473.086414
2474.82985
2483.792899
2484.95519
2483.54703
2475.835678
2472.795841
2480.753062
2488.553821
2485.491632
2487.950324
2491.168975
2488.576172
2485.201059
2480.08251
2477.109728
2478.473184
2483.278809
2495.706379
2493.202984
2485.893963
2483.54703
2489.291428
2488.375007
2490.006684
2494.544088
2490.923106
2479.009626
2465.553876
2476.238009
2492.420672
2488.464414
2488.151489
2492.085396
2486.206888
2474.919257
2479.568419
2487.212716
2487.793861
2493.314742
2494.18646
2491.124271
2493.918239
2490.431367
2482.205925
2482.13887
2487.01155
2492.219507
2494.655847
2492.621838
2483.703492
2490.654885
2497.181594
2489.067911
2482.876478
2481.513021
2473.153469
2471.410033
2470.135983
2459.340091
2461.552913
2468.906637
2464.592751
2462.91637
2463.139887
2470.98535
2466.38089
2456.479067
2451.561684
2449.237102
2461.418803
2464.905675
2465.889152
2460.256512
2458.31191
2457.484896
2456.344957
2457.261378
2462.134059
2467.051443
2467.342015
2463.989254
2460.167105
2455.584998
2457.708413
2461.865838
2465.442117
2468.928989
2467.27496
2454.109782
2447.605425
2446.689003
2442.688041
2442.978614
2440.832846
2442.464524
2437.793009
2436.988346
2436.988346
2437.055401
2433.970861
2439.312928
2436.496608
2438.06123
2441.726916
2440.609329
2435.759
2433.523826
2438.105933
2447.001928
2442.173951
2435.714297
2441.950433
2445.549064
2444.654995
2440.944605
2438.977651
2443.649166
2442.598634
2437.100105
2443.425649
2450.891131
2454.46741
2453.685099
2454.601521
2456.479067
2455.205018
2456.25555
2462.871666
2467.677291
2470.180687
2461.50821
2462.223466
2459.72007
2454.512114
2453.930969
2456.993158
2456.546123
2461.575265
2463.788088
2453.841562
2454.266245
2452.902788
2450.511152
2453.908617
2456.233198
2458.446021
2454.690928
2455.205018
2460.457678
2458.758945
2454.132134
2446.197265
2447.67248
2455.540294
2458.826001
2455.272073
2452.813381
2456.277902
2456.456716
2459.07187
2459.384794
2457.931931
2458.490724
2454.690928
2460.524733
2461.061175
2453.461582
2448.544198
2452.276939
2457.619006
2456.099088
2451.718146
2455.428535
2459.407146
2463.698681
2462.40228
2457.976634
2456.456716
2457.596655
2454.936797
2456.814344
2461.530562
2467.386719
2467.990216
2467.051443
2463.408108
2463.385756
2461.754079
2467.632588
2470.627722
2473.376986
2476.841507
2470.292445
2468.839582
2477.4003
2481.423614
2480.35073
2477.936742
2479.277847
2481.334207
2477.288541
2467.766698
2471.231219
2468.727823
2467.096146
2471.007701
2469.219562
2463.385756
2466.000911
2465.106841
2461.575265
2471.722957
2479.32255
2482.65296
2483.390568
2481.445966
2488.106786
2495.326399
2494.588792
2490.185498
2491.928934
2482.407091
2476.238009
2483.524678
2486.117481
2475.522754
2473.17582
2482.362387
2485.156356
2477.042672
2468.571361
2470.001873
2475.366291
2472.840544
2469.778355
2470.962998
2479.546068
2477.78028
2463.743384
2463.81044
2473.980483
2472.169992
2470.672425
2463.832791
2465.889152
2474.047539
2473.622855
2471.097108
2470.247742
2476.260361
2476.439175
2473.42169
2471.477088
2475.969789
2479.18844
2473.086414
2471.924123
2475.433347
2478.607294
2482.608257
2481.557725
2475.85803
2478.987274
2477.892039
2474.293408
2479.83664
2478.942571
2478.830812
2481.311855
2488.620876
2485.759853
2480.08251
2473.712262
2467.207905
2466.336187
2460.345919
2457.171971
2461.50821
2461.329396
2465.106841
2458.1778
2458.267207
2461.664672
2463.475163
2461.821134
2471.141812
2470.672425
2467.923161
2464.346881
2465.240951
2470.918294
2475.701568
2469.979521
2470.381852
2475.634512
2478.80846
2480.842469
2475.209829
2476.819155
2478.853164
2477.690873
2479.501364
2483.345864
2480.529544
2478.16026
2476.550934
2475.098071
2482.27298
2490.006684
2482.697664
2483.591733
2494.05235
2494.409978
2485.491632
2482.965885
2481.065986
2480.909524
2479.300198
2482.854126
2489.224373
2487.659751
2485.357521
2485.536335
2485.491632
2482.65296
2482.071815
2478.942571
2479.009626
2485.201059
2479.858992
2477.556762
2481.893001
2494.208812
2490.587829
2484.865783
2479.389605
2486.184536
2491.146623
2487.302123
2483.792899
2488.911449
2490.073739
2484.932838
2476.997969
2482.407091
2483.368216
2480.976579
2474.204001
2479.724882
2478.584943
2477.623818
2484.128175
2484.038768
2484.664617
2482.51885
2480.507193
2486.743329
2487.145661
2483.658789
2479.434309
2481.557725
2482.205925
2488.844393
2486.430405
2483.703492
2490.274905
2494.588792
2490.386664
2487.860917
2492.241859
2497.338056
2491.906582
2493.493556
2499.081492
2493.225335
2488.576172
2489.067911
2477.4003
2479.031978
2485.402225
2482.541201
2481.021283
2478.67435
2480.194268
2475.835678
2473.868725
2476.908562
2482.608257
2489.403187
2489.224373
2486.653922
2482.988236
2471.588847
2464.592751
2464.860972
2467.923161
2471.342977
2468.794879
2476.483879
2474.248704
2468.213733
2463.251646
2464.771565
2472.035882
2467.900809
2461.552913
2469.688948
2470.828887
2466.425594
2464.97273
2463.765736
2462.379928
2470.650073
2470.895943
2465.308006
2462.849315
2459.630663
2465.710338
2467.833754
2465.620931
2463.184591
2455.987329
2452.880437
2461.12823
2465.531524
2463.229294
2467.185553
2469.376024
2466.492649
2459.362442
2451.584035
2451.51698
2454.757983
2455.942626
2455.36148
2454.46741
2456.881399
2460.390623
2452.455753
2450.86878
2457.820172
2457.730765
2453.796858
2447.851294
2449.885303
2452.455753
2450.511152
2452.880437
2449.59473
2450.779373
2452.589864
2440.452867
2444.20796
2446.487838
2443.537407
2444.073849
2449.371213
2445.75023
2443.179779
2445.705527
2449.21475
2448.544198
2447.2925
2450.265282
2442.732745
2439.84937
2441.950433
2444.051497
2442.397468
2448.119515
2449.795896
2442.218654
2443.068021
2443.31389
2441.346936
2445.549064
2438.172989
2440.229349
2447.15839
2448.499495
2449.527675
2455.763812
2451.673442
2451.025242
2444.006794
2435.982518
2444.85616
2450.801724
2446.890169
2447.493666
2449.371213
2449.795896
2450.555855
2445.258492
2450.287634
2452.813381
2449.684137
2449.348861
2448.678309
2448.544198
2448.454791
2448.901826
2449.46062
2448.097163
2449.147695
2446.77841
2452.299291
2454.802687
2453.036899
2453.886265
2454.512114
2454.646224
2455.584998
2456.434364
2457.730765
2453.95332
2452.567512
2456.434364
2454.802687
2453.796858
2448.365384
2448.097163
2453.483934
2453.148657
2451.047593
2453.036899
2449.237102
2449.840599
2453.148657
2450.511152
2442.732745
2454.042727
2462.782259
2463.989254
2463.676329
2452.746326
2455.428535
2460.167105
2459.876533
2455.629701
2455.696756
2460.144753
2458.446021
2457.395489
2452.455753
2457.216675
2457.395489
2459.943588
2459.273035
2452.902788
2446.867817
2449.728841
2449.08064
2448.56655
2452.835733
2447.203093
2443.850332
2447.270149
2448.879474
2446.197265
2438.687079
2440.408163
2438.620024
2441.235178
2441.346936
2437.345974
2437.882416
2439.692907
2440.028183
2443.224483
2441.682213
2429.09818
2427.287689
2436.161332
2445.280843
2442.755096
2445.37025
2443.872684
2438.932948
2434.820227
2435.401372
2437.882416
2438.776486
2440.005832
2440.676384
2446.085506
2446.152561
2441.637509
2445.23614
2447.136038
2453.81921
2454.646224
2446.823114
2442.173951
2450.131172
2454.132134
2454.288596
2449.125343
2444.85616
2445.571416
2446.152561
2450.041765
2450.399393
2456.702585
2460.390623
2450.801724
2446.152561
2450.377041
2455.473239
2454.109782
2455.003852
2451.807553
2455.383832
2450.242931
2440.743439
2449.795896
2450.220579
2445.280843
2442.464524
2443.179779
2443.202131
2444.185608
2441.838675
2447.940701
2445.459657
2441.436343
2441.950433
2444.476181
2442.28571
2438.642375
2444.096201
2452.366346
2451.561684
2442.822152
2441.682213
2442.688041
2447.963053
2452.098125
2443.626814
2446.085506
2452.165181
2450.600559
2441.413992
2441.257529
2445.61612
2449.59473
2439.737611
2438.821189
2446.867817
2452.366346
2450.466448
2447.873646
2448.70066
2451.38287
2446.376079
2446.666652
2453.81921
2457.395489
2457.551951
2449.840599
2445.303195
2447.15839
2441.861027
2440.005832
2447.784239
2455.473239
2456.434364
2452.589864
2449.035936
2446.197265
2443.69387
2443.917387
2439.022355
2445.660823
2448.231274
2446.823114
2443.537407
2443.470352
2450.555855
2450.019413
2445.280843
2448.767716
2455.205018
2454.802687
2442.822152
2446.353727
2449.438268
2452.120477
2450.689966
2446.621948
2445.929044
2445.079678
2448.164218
2454.869742
2455.562646
2457.574303
2458.356614
2450.4888
2450.086468
2455.093259
2452.321643
2446.577245
2449.46062
2460.703547
2456.456716
2456.568474
2450.980538
2445.526713
2440.452867
2450.466448
2451.092297
2452.209884
2452.768678
2448.275977
2442.911558
2450.935835
2450.958187
2442.062192
2443.872684
2449.46062
2448.678309
2440.87755
2436.943643
2439.827018
2440.676384
2439.827018
2438.9553
2441.458695
2435.423724
2434.484951
2435.200207
2437.345974
2447.113686
2449.438268
2439.938776
2442.866855
2446.979576
2443.69387
2441.503399
2444.319718
2444.073849
2450.578207
2455.003852
2447.717184
2450.667614
2454.243893
2452.813381
2447.448963
2446.756059
2446.353727
2437.234215
2431.623928
2431.154541
2439.357631
2439.178817
2438.9553
2440.922253
2441.369288
2437.949471
2440.095239
2442.464524
2444.654995
2449.281806
2445.057326
2438.150637
2441.90573
2438.485913
2431.78039
2432.115666
2437.03305
2446.286672
2446.6443
2448.320681
2457.708413
2461.843486
2459.273035
2458.222503
2458.915408
2461.307044
2455.920274
2456.121439
2457.66371
2465.531524
2469.800707
2465.598579
2456.76964
2460.681195
2462.670501
2452.701623
2452.366346
2449.751192
2449.997061
2453.148657
2448.968881
2442.889207
2444.029146
2439.625852
2442.196303
2448.857123
2448.678309
2451.114649
2447.583073
2450.689966
2453.05925
2455.830867
2457.998986
2464.257474
2464.682158
2459.630663
2458.378966
2456.25555
2458.289559
2461.172934
2457.261378
2448.231274
2451.51698
2461.105878
2458.289559
2450.131172
2450.891131
2452.880437
2457.842524
2459.116573
2457.641358
2458.580131
2465.442117
2465.799745
2454.802687
2456.814344
2466.000911
2460.323567
2455.093259
2457.417841
2458.535428
2453.260416
2450.891131
2448.767716
2448.879474
2463.184591
2465.755041
2461.172934
2464.928027
2465.687986
2462.134059
2458.669538
2467.699643
2470.113632
2474.06989
2471.655902
2473.578152
2474.986312
2467.364367
2470.918294
2473.198172
2464.950379
2468.101974
2473.533448
2476.617989
2468.794879
2471.588847
2471.141812
2472.885248
2470.60537
2462.849315
2461.396451
2468.839582
2463.586922
2460.412974
2462.089355
2468.258437
2465.73269
2467.342015
2468.727823
2470.135983
2471.007701
2474.136946
2470.784184
2477.154431
2474.807498
2479.344902
2471.521791
2471.477088
2478.182611
2478.272018
2474.382815
2469.443079
2476.170954
2480.931876
2478.406129
2475.276884
2473.913428
2478.607294
2483.658789
2479.948399
2479.121385
2486.318646
2481.222448
2471.790012
2467.543181
2469.487783
2471.63355
2464.860972
2464.145716
2467.40907
2466.738518
2465.442117
2469.130155
2466.604408
2462.625797
2459.96594
2458.490724
2458.848352
2469.040748
2465.084489
2463.81044
2470.761832
2472.572323
2476.260361
2471.231219
2475.366291
2470.60537
2479.076681
2494.298219
2500.824928
2497.919202
2491.079568
2492.755949
2498.969734
2502.63542
2498.500347
2493.15828
2487.950324
2489.582001
2494.70055
2492.957114
2492.487728
2494.94642
2495.035827
2500.534356
2495.818138
2492.1301
2499.126196
2496.667504
2493.650018
2491.75012
2496.555745
2495.46051
2493.940591
2497.762739
2502.031923
2499.796748
2500.288487
2500.154376
2502.590716
2505.988181
2500.087321
2494.94642
2496.309876
2497.807443
2490.967809
2491.280733
2499.997914
2502.009571
2498.455643
2502.344847
2503.14951
2504.55767
2508.312763
2500.579059
2489.358483
2487.838565
2488.9338
2487.480937
2485.670446
2495.840489
2506.435216
2508.692742
2515.778245
2513.163091
2518.281641
2518.929841
2529.949251
2535.984222
2535.090153
2533.637289
2531.111542
2535.380725
2523.377839
2517.968716
2529.077533
2530.642155
2531.156246
2520.941498
2516.627612
2517.924013
2517.834606
2521.097961
2524.897757
2526.015344
2523.020211
2524.718943
2520.338001
2524.67424
2525.233033
2528.854016
2531.08919
2526.663545
2522.550824
2522.215548
2523.869577
2531.424467
2539.001708
2537.459438
2531.357411
2532.072667
2526.127103
2528.429333
2526.618841
2530.530397
2528.205815
2522.327307
2518.415751
2513.096036
2510.279716
2509.407998
2510.570289
2507.441045
2503.350676
2505.943478
2513.587774
2511.48671
2513.051333
2518.303993
2517.678144
2525.076571
2531.402115
2506.435216
2495.751082
2504.311801
2502.009571
2501.070798
2495.952248
2492.063045
2487.279771
2490.431367
2493.650018
2488.9338
2490.453719
2486.720978
2490.096091
2489.31378
2488.442062
2489.514946
2490.744292
2491.906582
2493.448853
2493.314742
2492.197155
2489.559649
2489.224373
2493.873536
2501.629591
2504.378856
2500.735521
2490.453719
2488.576172
2489.894925
2495.46051
2495.08053
2496.064007
2494.722902
2490.811347
2487.458585
2488.263248
2494.164109
2491.459547
2489.537297
2492.353617
2495.505213
2494.722902
2486.564515
2479.83664
2490.587829
2494.432329
2490.073739
2482.965885
2480.127213
2486.832736
2492.711245
2491.481899
2491.303085
2499.729693
2497.829795
2496.667504
2497.51687
2496.511042
2496.175766
2499.595582
2498.723864
2492.197155
2492.711245
2494.70055
2483.614085
2486.385701
2493.337094
2487.860917
2486.050425
2489.805518
2492.845356
2500.579059
2503.931821
2504.110635
2509.631516
2510.413827
2499.237955
2492.375969
2492.755949
2497.00278
2494.633495
2476.50623
2473.488745
2478.67435
2481.423614
2474.740443
2471.588847
2474.472222
2475.209829
2476.617989
2484.172879
2484.329341
2477.668521
2477.087376
2478.450832
2480.283675
2478.450832
2476.148603
2482.228277
2484.329341
2483.077643
2485.782204
2495.773434
2491.973638
2487.793861
2489.939629
2492.353617
2489.067911
2487.235068
2482.742367
2483.703492
2494.320571
2494.789957
2494.611143
2489.336132
2489.738463
2491.414844
2489.291428
2489.470242
2487.883268
2490.073739
2486.385701
2485.648094
2489.380835
2488.2856
2487.592696
2485.782204
2480.395434
2484.754024
2480.708358
2477.243838
2479.881344
2485.111652
2485.268114
2478.29437
2477.154431
2484.172879
2485.60339
2480.686007
2478.093204
2479.657826
2479.903696
2478.249666
2475.947437
2479.83664
2479.166088
2478.495536
2481.401262
2486.206888
2486.519812
2486.452757
2481.133042
2476.282713
2479.83664
2481.289504
2483.256457
2487.659751
2486.452757
2479.814289
2476.50623
2475.701568
2476.617989
2474.516925
2472.125289
2472.572323
2479.747233
2479.166088
2478.607294
2473.376986
2474.248704
2476.908562
2481.870649
2481.960056
2483.524678
2485.893963
2476.260361
2469.845411
2466.358538
2466.984387
2470.650073
2475.500402
2476.37212
2480.574248
2480.261323
2480.440137
2472.549972
2470.73948
2469.33132
2471.11946
2467.252608
2473.466393
2475.723919
2470.940646
2465.956207
2463.94455
2469.130155
2464.07866
2461.441155
2472.952303
2476.819155
2473.04171
2470.672425
2469.845411
2471.208867
2475.656864
2472.460565
2464.637454
2464.525695
2467.856105
2466.000911
2465.240951
2468.727823
2473.220524
2474.58398
2466.358538
2468.191381
2474.338111
2472.393509
2466.447945
2474.718091
2471.074757
2472.348806
2470.98535
2469.0631
2470.73948
2471.63355
2470.448908
2465.196248
2466.76087
2458.982463
2463.296349
2467.431422
2468.057271
2474.718091
2471.834716
2469.934818
2471.812364
2474.606332
2473.980483
2469.644245
2474.360463
2476.148603
2473.913428
2470.135983
2468.101974
2470.180687
2469.33132
2467.096146
2466.38089
2464.436288
2463.251646
2469.465431
2470.73948
2470.806536
2471.857068
2465.308006
2465.777393
2468.079623
2473.511097
2472.795841
2467.319663
2471.857068
2475.165126
2472.773489
2474.874553
2480.015454
2482.00476
2476.37212
2470.381852
2476.662693
2477.892039
2473.645207
2476.282713
2483.882306
2477.847335
2478.495536
2473.578152
2476.796803
2471.901771
2464.97273
2464.413937
2470.471259
2475.723919
2474.762794
2465.576227
2464.123364
2466.939684
2471.588847
2467.319663
2471.387681
2477.646169
2474.047539
2474.44987
2473.086414
2481.669483
2488.263248
2479.054329
2467.878457
2464.011605
2466.917332
2472.125289
2471.812364
2477.154431
2478.80846
2481.937704
2486.095129
2483.211754
2472.192344
2475.142774
2483.859954
2484.485803
2477.713225
2473.086414
2480.060158
2481.937704
2477.668521
2470.806536
2468.236085
2466.515001
2469.130155
2475.522754
2470.292445
2472.617027
2472.482916
2471.25357
2466.984387
2464.615102
2472.259399
2472.684082
2464.995082
2461.083527
2457.373137
2463.542219
2467.766698
2464.056309
2468.16903
2468.347844
2471.074757
2469.241913
2465.196248
2465.755041
2465.330358
2467.78905
2471.63355
2475.165126
2477.4003
2473.242876
2463.743384
2469.57719
2472.460565
2470.448908
2469.241913
2470.806536
2478.339073
2477.489707
2472.684082
2469.532486
2472.684082
2475.299236
2468.124326
2466.783222
2473.93578
2471.678254
2470.22539
2470.113632
2476.148603
2471.812364
2467.65494
2470.672425
2473.689911
2466.693815
2464.928027
2463.676329
2462.134059
2469.845411
2466.515001
2466.224428
2467.721995
2472.348806
2468.191381
2460.904713
2458.490724
2460.904713
2462.581094
2465.553876
2465.576227
2469.107803
2473.712262
2465.173896
2455.428535
2455.294425
2453.662748
2449.997061
2455.272073
2460.077698
2454.489762
2453.95332
2448.164218
2445.861989
2444.990271
2447.761887
2446.487838
2447.337204
2446.621948
2443.537407
2437.189512
2443.224483
2441.570454
2439.156465
2440.631681
2441.369288
2448.05246
2446.107858
2450.466448
2444.610291
2444.520884
2448.901826
2445.191436
2437.994175
2436.161332
2441.726916
2447.381907
2447.426611
2450.309986
2458.982463
2460.860009
2460.167105
2458.31191
2462.625797
2461.64232
2457.641358
2459.027166
2461.776431
2456.702585
2458.580131
2460.61414
2458.490724
2458.513076
2455.786163
2452.500457
2454.020375
2458.826001
2460.904713
2461.284692
2459.20598
2459.183628
2450.734669
2457.28373
2459.96594
2456.76964
2456.546123
2457.887227
2462.648149
2464.033957
2466.783222
2462.134059
2466.738518
2467.476126
2465.620931
2463.072832
2464.391585
2467.006739
2468.124326
2466.962036
2467.386719
2467.029091
2465.218599
2464.97273
2462.692852
2456.099088
2459.72007
2458.781297
2449.952358
2451.114649
2454.869742
2456.568474
2461.530562
2463.005777
2461.172934
2459.317739
2460.61414
2463.095184
2466.179724
2466.850277
2461.195285
2456.702585
2456.25555
2463.81044
2463.072832
2457.440192
2457.484896
2460.032995
2457.216675
2455.87557
2456.501419
2461.619969
2462.648149
2459.340091
2455.383832
2460.837658
2459.07187
2456.300253
2463.989254
2468.996044
2468.705472
2471.924123
2474.785146
2477.713225
2482.429443
2481.647132
2472.482916
2467.520829
2467.27496
2468.727823
2467.811402
2473.399338
2480.820117
2480.238972
2468.68312
2471.49944
2478.450832
2476.461527
2475.276884
2480.037806
2481.669483
2474.874553
2466.939684
2471.432384
2476.126251
2480.171917
2473.17582
2465.509172
2462.91637
2469.733652
2466.872629
2467.498477
2468.616065
2472.393509
2468.839582
2465.039786
2470.001873
2472.460565
2469.286617
2469.286617
2463.497515
2466.783222
2472.795841
2471.030053
2470.247742
2478.719053
2476.774451
2467.185553
2464.615102
2469.398376
2475.433347
2475.589809
2476.193306
2475.522754
2469.420727
2469.465431
2470.828887
2477.065024
2485.379873
2482.854126
2485.156356
2487.90562
2482.161222
2480.641303
2480.641303
2486.318646
2480.73071
2473.801669
2474.338111
2479.18844
2488.017379
2482.205925
2472.997007
2475.321588
2476.282713
2474.382815
2466.135021
2465.442117
2468.794879
2469.688948
2471.387681
2471.812364
2472.9076
2474.025187
2465.218599
2461.083527
2466.358538
2469.174858
2464.32453
2469.376024
2471.11946
2477.176783
2468.616065
2468.928989
2467.811402
2468.638416
2466.157373
2465.755041
2471.49944
2470.359501
2463.162239
2459.675367
2462.938722
2466.515001
2473.064062
2468.16903
2459.518905
2459.742422
2462.871666
2463.743384
2462.335224
2462.491687
2470.203038
2473.980483
2461.351748
2463.296349
2464.83862
2455.383832
2454.087431
2459.496553
2468.392547
2465.35271
2452.478105
2458.378966
2464.548047
2465.173896
2464.168067
2466.671463
2465.084489
2455.763812
2461.910541
2464.726861
2468.280788
2475.500402
2473.533448
2465.106841
2460.457678
2464.771565
2466.403242
2464.503344
2469.644245
2473.801669
2474.248704
2464.883323
2468.236085
2473.667559
2473.756966
2477.847335
2476.908562
2470.068928
2473.756966
2480.618951
2469.733652
2464.570399
2467.900809
2464.101012
2459.183628
2464.726861
2472.594675
2472.52762
2476.997969
2485.0893
2481.75889
2476.953265
2478.115556
2477.668521
2473.466393
2475.388643
2477.288541
2479.166088
2482.876478
2483.278809
2487.212716
2482.183574
2475.388643
2472.080585
2469.510134
2472.326454
2471.208867
2470.471259
2472.281751
2470.247742
2472.818193
2471.655902
2465.956207
2464.995082
2473.645207
2465.375062
2454.869742
2451.852256
2455.652053
2461.329396
2458.714242
2458.021338
2461.687024
2463.653977
2460.23416
2462.759908
2454.489762
2454.243893
2465.553876
2472.348806
2469.353672
2464.145716
2468.16903
2455.696756
2452.589864
2465.956207
2458.31191
2447.717184
2453.796858
2463.676329
2457.775469
2443.470352
2442.93391
2457.440192
2461.575265
2456.993158
2453.752155
2456.300253
2466.202076
2462.335224
2452.701623
2448.790067
2460.278864
2464.190419
2464.97273
2460.23416
2458.513076
2453.975672
2446.890169
2446.219617
2453.707451
2459.72007
2458.133096
2459.787126
2460.748251
2456.434364
2461.284692
2461.463506
2459.563608
2457.708413
2457.931931
2457.775469
2447.180742
2448.454791
2457.708413
