 ECG Channel 
15637.12396
15653.53014
15639.58265
15629.83729
15644.81296
15652.74783
15630.84312
15607.01616
15608.98311
15612.44763
15587.70425
15556.16594
15551.89676
15554.17664
15530.23792
15493.5587
15482.36048
15488.10488
15469.32941
15432.67255
15419.41797
15428.06809
15422.65897
15393.69111
15374.9827
15386.20328
15386.44914
15365.14793
15351.62513
15368.32188
15380.59299
15362.1975
15346.64069
15360.83405
15376.03323
15362.1528
15347.17713
15360.61053
15377.08376
15370.60176
15349.16643
15351.58042
15371.24996
15367.96425
15347.26654
15347.423
15369.50652
15378.98366
15360.16349
15352.98858
15377.06141
15382.24702
15362.57748
15353.54738
15375.0274
15390.3607
15372.12168
15354.39674
15369.03714
15387.56673
15370.33354
15348.51823
15357.68245
15376.01088
15366.42198
15341.49979
15341.58919
15361.03521
15357.07895
15334.95073
15332.82731
15352.94388
15357.19071
15331.53091
15321.31616
15341.14216
15350.79811
15330.36862
15311.19082
15327.06056
15342.14799
15327.39584
15314.00714
15321.04794
15332.0003
15325.67475
15308.77683
15324.17718
15347.31124
15342.88559
15333.16259
15353.77089
15384.5716
15388.86313
15369.75239
15371.87581
15394.29461
15393.84757
15375.56385
15357.30247
15362.24221
15363.53861
15337.1859
15319.57273
15337.52118
15346.50658
15331.21798
15314.00714
15323.81956
15338.72817
15327.26173
15311.03436
15321.78555
15341.36568
15338.68347
15310.69908
15303.30066
15326.14414
15362.801
15404.50935
15469.8435
15547.11348
15642.08605
15656.21235
0
16486.35614
16491.83231
16486.4679
16476.43196
16468.36298
16465.79253
16455.33192
16438.41165
16431.01322
16427.90633
16408.75088
16386.82382
16368.04835
16360.40406
16349.65287
16332.91141
16320.84147
16315.4547
16309.6656
16296.29925
16282.59764
16280.63068
16282.55293
16277.54614
16266.63849
16266.39262
16267.15258
16264.29156
16258.4354
16258.88243
16266.99612
16266.25851
16260.44706
16260.46941
16268.24782
16269.43246
16263.30808
16263.28573
16270.93002
16274.26043
16271.31
16271.66763
16273.2099
16276.11563
16271.77939
16271.13119
16276.69677
16277.85907
16276.02622
16269.45481
16273.14285
16276.51796
16276.62972
16270.43829
16269.83479
16273.70164
16270.55004
16261.76581
16259.24006
16259.57534
16256.44609
16247.25953
16244.86789
16248.51122
16243.16916
16236.73186
16233.73672
16235.27899
16236.7095
16231.76977
16227.83586
16229.69106
16234.22846
16233.31204
16230.02633
16236.7095
16233.49085
16231.36744
16230.47337
16237.67063
16249.82998
16252.86981
16244.82319
16241.44807
16252.31102
16260.04472
16255.68613
16253.31685
16265.00681
16265.56561
16257.31781
16248.86885
16241.06809
16238.72116
16227.23236
16216.54823
16221.82324
16229.82517
16223.20905
16218.44813
16218.7834
16221.48797
16216.77175
16208.4122
16208.5016
16211.78731
16211.25087
16204.21007
16198.55508
16207.11579
16224.03606
16261.76581
16332.50908
16402.42534
16450.07926
16487.27256
16526.16459
16594.53858
16612.86701
16603.0993
16526.74574
16354.99494
16209.97682
16186.59689
16215.43064
16233.93789
16247.86302
16258.86008
16253.18274
16253.9874
16257.45192
16253.20509
16244.82319
16247.93008
16257.09429
16259.01654
16257.72014
16263.21867
16275.66859
16284.45283
16284.20696
16283.29054
16290.35369
16300.99312
16300.99312
16303.89885
16315.38764
16327.47994
16331.81618
16337.98526
16349.20583
16362.77334
16368.00365
16372.09402
16386.64501
16405.26401
16413.89178
16418.92092
16428.55453
16441.69735
16445.31833
16441.6303
16439.61864
16442.41261
16441.56324
16429.98504
16419.9491
16415.4117
16409.84612
16398.6926
16383.06873
16376.72083
16368.38363
16357.02894
16341.33802
16330.49742
16324.79773
16308.77153
16292.87944
16286.30802
16285.23514
16278.93195
16265.65501
16254.47914
16254.45679
16251.26049
16242.20803
16235.23429
16236.7095
16234.20611
16230.40631
16226.71827
16226.11478
16227.83586
16224.19253
16224.14782
16236.17306
16243.25856
16240.01756
16239.03409
16242.65507
16248.46652
16248.08654
16243.23621
16242.49861
16245.35963
16243.99617
16239.45877
16240.30813
16244.84554
16247.81832
16242.16333
16239.97286
16240.44225
16245.24787
16242.16333
16235.72603
16237.22359
16237.67063
16232.10504
16224.81838
16227.25472
16232.37327
16223.38786
16217.79993
16221.17504
16227.7241
16228.9758
16227.16531
16227.79116
16227.61234
16229.75811
16226.85238
16229.40048
16240.93398
16241.93981
16234.36257
16240.30813
16252.0428
16257.07194
16252.71335
16247.30423
16249.71822
16251.21579
16245.49374
16234.7202
16229.17697
16226.22654
16214.08954
16203.87479
16204.74651
16209.97682
16205.81939
16198.24215
16195.69405
16199.78442
16199.20328
16193.57064
16193.30242
16199.06917
16202.15371
16196.90105
16191.98366
16195.20231
16213.30723
16246.14194
16314.62768
16393.30583
16455.33192
16480.94702
16491.83231
16536.58051
16536.64756
16524.21999
16455.22016
16294.91345
16164.64748
16152.10815
16184.65229
16204.97003
16226.13713
16238.07296
16234.02729
16232.08269
16235.54721
16236.53069
16232.44032
16232.39562
16239.45877
16244.71143
16240.97869
16240.59871
16251.23814
16257.7425
16255.35086
16252.10986
16258.52481
16267.01847
16267.26434
16266.41497
16275.31097
16286.93387
16293.99702
16297.68506
16307.98922
16323.47898
16333.35845
16338.27583
16348.78115
16365.81318
16378.39721
16380.83355
16385.54977
16395.87628
16401.53127
16397.50795
16395.4963
16399.16198
16399.11728
16390.75773
16377.59255
16371.35641
16366.37197
16353.65383
16336.15241
16325.49063
16319.18744
16307.89981
16291.94066
16284.29637
16279.02136
16269.05248
16256.84843
16249.31589
16249.11472
16246.00783
16237.40241
16232.70854
16236.0613
16236.6648
16229.51224
16222.35968
16223.03024
16224.63956
16220.0351
16218.44813
16224.72897
16230.76394
16231.12157
16229.24402
16232.79795
16240.73282
16241.02339
16236.0613
16238.0059
16242.90094
16243.32562
16236.88832
16235.9719
16241.69394
16242.81153
16236.28482
16233.96024
16239.52582
16241.02339
16236.68715
16233.66967
16236.03895
16239.10114
16235.23429
16228.77463
16228.21584
16230.49572
16225.89126
16218.33637
16219.00692
16223.05259
16221.35386
16215.29653
16218.89516
16226.09243
16227.25472
16222.96318
16218.91752
16226.76298
16233.37909
16231.72506
16235.50251
16244.21969
16246.14194
16245.71726
16248.06419
16253.85329
16256.80372
16255.03793
16252.13221
16254.38973
16258.74832
16247.12542
16227.54529
16222.98553
16219.02927
16211.72025
16205.84174
16204.25477
16209.17215
16209.52978
16201.70667
16199.5609
16206.82522
16209.97682
16203.316
16196.9681
16199.87383
16199.5162
16187.40156
16188.89912
16223.99136
16279.69191
16337.11354
16367.66837
16420.28438
16463.78088
16521.1578
16585.39672
16607.70376
16592.8622
16492.10054
16309.84441
16206.95933
16212.07788
16236.55304
16232.99911
16239.27995
16249.69587
16247.46069
16238.34118
16234.18376
16241.64924
16249.02531
16244.48791
16241.47043
16248.73474
16256.4908
16254.52384
16252.89217
16259.48593
16269.9242
16273.27696
16273.56753
16282.95526
16296.58983
16301.3731
16301.3731
16308.77153
16324.88714
16327.52464
16329.64806
16338.78992
16356.11252
16367.51191
16371.24465
16379.00071
16395.87628
16409.39908
16413.37769
16414.04824
16422.29604
16430.1862
16428.46512
16422.85483
16422.67602
16421.62549
16411.05311
16397.50795
16391.89767
16387.8967
16374.70917
16358.59357
16347.93178
16342.16503
16330.56448
16314.11359
16302.71421
16301.19429
16293.84056
16278.75314
16267.26434
16265.31974
16261.587
16248.62298
16239.30231
16240.48695
16244.04088
16238.40824
16231.97093
16234.54138
16238.83292
16235.3684
16229.24402
16230.85335
16240.12932
16239.14584
16231.30038
16232.52973
16237.46946
16238.47529
16232.865
16230.42866
16236.44128
16239.63758
16235.94954
16232.2168
16233.31204
16235.01077
16231.85918
16228.86404
16233.98259
16237.24595
16231.41214
16227.38883
16232.59678
16238.31883
16234.31787
16228.12643
16230.54042
16237.62593
16234.42963
16230.24985
16235.07783
16244.28675
16245.62785
16236.37423
16234.54138
16239.52582
16244.42086
16242.65507
16245.42668
16248.66769
16252.31102
16252.86981
16254.99323
16257.04959
16266.21381
16264.69389
16254.09916
16255.44027
16255.2838
16239.8164
16230.09339
16224.95249
16221.80089
16217.59876
16211.11676
16209.30627
16212.3461
16209.41802
16202.04195
16201.14788
16205.99821
16207.8087
16199.91853
16196.07403
16200.03029
16199.11387
16196.20814
16215.78827
16271.55587
16332.15145
16359.28647
16397.39619
16456.76243
16520.55431
16610.94476
16646.86401
16646.86401
16575.47254
16410.58372
16253.42861
16205.2159
16230.42866
16238.74351
16237.38006
16244.06323
16249.98644
16249.36059
16243.79501
16239.45877
16243.28092
16248.51122
16247.66186
16250.41112
16259.79886
16268.47133
16269.49951
16267.08552
16273.05344
16282.55293
16286.35273
16286.01745
16294.86874
16308.86093
16316.81816
16320.95323
16332.55378
16349.87639
16358.41475
16358.59357
16365.54496
16382.17466
16396.54683
16404.79462
16415.25524
16428.01808
16439.0822
16444.2231
16446.79355
16451.53212
16455.33192
16452.09091
16442.18909
16436.44469
16434.54479
16423.52538
16407.96857
16396.70329
16388.83548
16379.17952
16360.80639
16345.36133
16338.32053
16326.40705
16308.74918
16294.55582
16286.86682
16277.25557
16259.82121
16246.63368
16243.43738
16240.93398
16233.40145
16225.86891
16225.22071
16226.91944
16221.59972
16214.51422
16215.11772
16217.30819
16215.07302
16209.35097
16207.38402
16214.00013
16212.81549
16207.92046
16209.1498
16217.4423
16216.52588
16214.11189
16217.73287
16221.13034
16224.81838
16218.89516
16215.00596
16220.99623
16223.85725
16221.3315
16216.1012
16221.53267
16226.49476
16223.56668
16216.1012
16217.91169
16224.55015
16222.94083
16216.39177
16218.62694
16223.45492
16224.4831
16217.66582
16217.97874
16227.79116
16230.62983
16225.176
16225.53363
16227.18766
16226.89709
16223.09729
16227.16531
16238.09531
16242.16333
16239.01173
16237.06713
16244.77848
16251.37225
16247.79597
16244.84554
16249.13707
16248.1983
16243.59384
16228.2829
16215.27418
16215.78827
16206.93698
16193.21301
16192.18483
16196.9234
16194.48706
16185.50166
16181.03131
16184.02644
16188.51914
16182.52888
16174.43754
16175.1975
16181.03131
16173.92345
16164.66983
16172.02356
16204.67945
16258.4354
16313.5548
16350.54694
16411.20957
16457.50004
16514.87696
16587.25191
16611.30239
16588.95064
16484.12096
16309.88912
16202.7125
16196.76694
16213.10606
16218.0905
16233.87083
16239.79404
16233.06617
16226.56181
16230.40631
16236.17306
16233.82613
16232.19445
16235.3237
16244.66672
16248.53358
16248.8465
16254.79206
16266.0797
16266.50438
16262.57047
16269.70068
16284.18461
16293.6394
16291.67244
16296.16514
16305.64228
16319.05333
16320.52855
16325.58004
16341.0698
16350.39048
16364.20385
16374.97739
16392.45646
16409.0191
16412.12599
16419.01033
16426.72168
16430.52148
16432.93547
16430.70029
16425.0453
16427.90633
16421.82665
16410.2261
16408.46031
16409.04145
16397.23973
16384.85687
16371.69169
16359.59939
16346.41187
16329.35748
16313.57715
16304.74821
16296.07574
16280.16129
16269.25364
16265.00681
16261.27407
16251.37225
16239.36936
16239.39171
16242.72212
16235.45781
16232.37327
16236.30717
16241.98452
16236.28482
16226.56181
16226.65122
16232.1274
16229.40048
16223.43257
16221.30915
16225.64539
16231.25568
16229.28872
16224.05842
16231.05451
16235.79308
16234.00494
16230.02633
16232.39562
16239.12349
16234.60844
16233.69202
16238.58705
16246.16429
16242.43155
16234.98842
16240.73282
16245.96313
16242.4092
16236.10601
16238.81057
16242.02922
16242.25274
16235.05547
16232.37327
16236.24012
16238.63175
16233.82613
16232.75324
16248.60063
16248.98061
16245.67255
16238.45294
16238.45294
16244.84554
16245.40433
16243.21386
16250.45583
16256.51315
16247.01366
16243.1021
16251.66282
16264.93976
16265.87853
16259.1283
16255.2391
16255.55202
16254.52384
16238.36353
16220.14686
16222.69496
16215.34124
16207.71929
16209.39567
16217.79993
16216.45882
16208.92629
16201.68432
16206.17702
16205.03708
16201.63962
16194.66587
16198.75624
16207.18285
16205.23825
16192.92244
16195.26937
16219.09633
16248.1536
16307.02809
16373.50218
16425.22412
16444.29015
16449.67692
16490.75943
16494.78275
16487.07139
16431.46025
16291.42657
16170.6154
16153.35985
16190.10612
16207.00404
16227.94762
16242.31979
16246.99131
16244.62202
16248.39947
16252.91452
16253.00393
16250.52288
16254.99323
16267.68902
16271.64528
16262.83869
16263.15162
16275.53448
16275.17686
16274.34984
16280.02718
16291.33717
16303.34005
16304.27883
16304.07766
16315.56646
16328.08344
16328.82104
16334.92307
16352.33508
16366.14846
16371.73639
16377.27962
16392.63527
16407.40978
16413.35534
16414.00354
16424.44181
16433.58367
16433.67308
16425.09001
16429.85093
16437.56228
16433.06958
16414.74115
16405.48753
16401.12894
16394.78104
16377.6596
16360.40406
16356.67132
16353.96676
16339.92986
16328.41871
16322.20493
16317.3993
16308.03392
16298.33326
16291.44893
16292.36535
16281.94943
16266.97377
16260.13413
16269.90184
16265.16327
16260.15648
16250.20996
16253.60742
16255.8873
16249.80763
16251.23814
16257.31781
16254.81442
16253.16039
16248.93591
16251.97575
16251.97575
16247.95243
16246.32075
16252.10986
16265.07387
16258.79303
16249.07002
16255.57438
16257.94366
16257.1837
16249.47235
16251.88634
16264.11274
16260.80468
16255.30616
16257.31781
16262.43636
16261.54229
16251.03697
16250.36642
16258.50245
16257.25076
16248.46652
16245.47139
16258.25659
16266.50438
16264.2692
16251.79693
16252.75806
16265.07387
16266.45968
16268.56074
16274.90864
16269.03013
16265.69972
16266.83966
16272.82992
16277.7026
16272.74052
16265.38679
16268.35957
16275.0651
16272.89698
16253.22744
16247.68421
16243.34797
16239.8611
16228.75228
16221.82324
16230.60748
16237.76004
16232.03799
16220.23627
16225.06424
16237.11184
16236.53069
16233.82613
16237.69298
16244.82319
16237.67063
16224.19253
16230.09339
16254.50149
16284.0058
16335.75008
16408.25914
16469.79349
16480.43293
16465.14433
16484.67976
16474.84499
16458.52822
16411.76837
16287.51502
16187.06628
16181.41129
16214.67068
16231.54625
16252.91452
16273.47812
16268.58309
16260.46941
16272.82992
16273.67929
16274.88628
16271.80174
16273.1652
16277.90377
16282.99997
16281.18948
16287.22445
16304.72586
16305.37406
16306.71517
16304.27883
16318.6063
16327.97168
16327.85992
16323.54603
16338.45464
16352.26802
16349.00467
16353.69853
16364.06974
16380.34181
16389.57308
16387.04734
16402.87237
16414.83056
16415.88109
16415.43405
16418.89857
16428.15219
16420.99964
16411.6119
16407.27567
16411.58955
16401.50892
16387.65083
16377.70431
16378.2184
16372.27283
16356.47015
16345.27193
16341.33802
16338.5664
16319.14274
16304.27883
16303.45181
16297.90858
16286.688
16268.91837
16265.38679
16266.43732
16256.13317
16243.28092
16237.46946
16246.2984
16248.51122
16234.83196
16226.85238
16236.57539
16237.64828
16230.65218
16221.73383
16228.70758
16238.31883
16228.79699
16225.22071
16228.41701
16237.9165
16244.86789
16238.02826
16252.82511
16258.18953
16258.30129
16251.08168
16249.24883
16257.80955
16259.75415
16247.68421
16256.62491
16259.93297
16257.36252
16249.58411
16245.06906
16252.95922
16266.1691
16269.81244
16252.7357
16257.80955
16269.49951
16259.57534
16254.16622
16269.03013
16270.21477
16268.7172
16264.06804
16253.27215
16237.62593
16229.80281
16225.42187
16225.66774
16235.94954
16227.96997
16217.53171
16208.61336
16217.15173
16211.67555
16190.64256
16181.34423
16175.68924
16179.24317
16169.98955
16170.83891
16176.82918
16187.82624
16186.61924
16181.83597
16185.16638
16192.5201
16191.42487
16186.32867
16184.45113
16200.1197
16190.24023
16187.20039
16201.79608
16233.15558
16271.73469
16336.21947
16400.90542
16462.99856
16458.12588
16452.94028
16443.19492
16432.82371
16412.93066
16329.20102
16192.85538
16142.4522
16175.42102
16198.51037
16216.28001
16235.34605
16256.73667
16256.33434
16247.81832
16252.31102
16260.08943
16254.5462
16249.09237
16246.67838
16266.90671
16271.62293
16263.88922
16264.42567
16267.39845
16267.4655
16279.53545
16288.72201
16295.24872
16298.93676
16293.84056
16297.4839
16314.09124
16320.23797
16332.68789
16325.35652
16335.63832
16349.33994
16352.58095
16356.17958
16364.69559
16376.76553
16385.14744
16383.47106
16386.30973
16395.92098
16397.91028
16378.84425
16382.57699
16381.39235
16371.19995
16362.8851
16353.22915
16348.98232
16349.54111
16337.69469
16328.64223
16321.26615
16318.47218
16299.3838
16290.04077
16289.68314
16290.66661
16268.91837
16255.66378
16266.03499
16278.86489
16270.75121
16259.48593
16269.16424
16274.68512
16266.34792
16260.62587
16268.00195
16291.22541
16312.66073
16329.5363
16346.23305
16356.35839
16360.67228
16351.08338
16343.0144
16333.69372
16318.6063
16314.67239
16308.88329
16306.64811
16306.02226
16295.76281
16288.76672
16297.59566
16289.28081
16276.29444
16281.36829
16289.07964
16284.11755
16280.94361
16274.5063
16266.61614
16276.09328
16281.63651
16279.15547
16276.31679
16281.43534
16286.88917
16284.02815
16285.27984
16286.91152
16296.45572
16294.08643
16286.55389
16283.22348
16290.55486
16277.45673
16283.82698
16290.26428
16303.65298
16290.77837
16270.81827
16270.88532
16295.96398
16268.7172
16243.25856
16239.36936
16247.43834
16245.82902
16243.99617
16241.69394
16237.49181
16237.3577
16242.16333
16236.44128
16242.54331
16242.02922
16228.88639
16221.77854
16233.53556
16235.45781
16230.42866
16231.38979
16258.34599
16308.21273
16366.70725
16430.70029
16467.73713
16466.46308
16498.33667
16486.28908
16464.49613
16435.48357
16327.92697
16200.27616
16171.50947
16206.44524
16224.4831
16246.27605
16262.05638
16263.30808
16267.53256
16259.44123
16253.00393
16255.61908
16259.15066
16249.65116
16251.4393
16246.43251
16253.00393
16249.91938
16237.04478
16234.1167
16237.13419
16255.44027
16249.60646
16262.83869
16282.28471
16283.46935
16288.38674
16297.79682
16307.78805
16314.22535
16322.74137
16335.03483
16343.08146
16360.78404
16365.63437
16361.09696
16357.58774
16380.05124
16380.61003
16375.73735
16391.27182
16402.09006
16393.28347
16380.58768
16375.49149
16383.00167
16375.87146
16360.11348
16357.18541
16358.05712
16365.83553
16335.9736
16323.54603
16323.99307
16319.16509
16318.27102
16300.14375
16292.65592
16288.18557
16275.46743
16274.88628
16263.30808
16276.02622
16263.97863
16249.31589
16257.89896
16266.45968
16272.31583
16264.44802
16251.52871
16262.48107
16263.93393
16256.75902
16265.67736
16275.0651
16267.91254
16256.22258
16258.23423
16267.30904
16274.57336
16273.7687
16262.16814
16271.66763
16269.81244
16277.81436
16267.06317
16283.447
16289.90666
16274.21573
16273.43342
16275.26626
16288.61025
16291.7842
16284.78811
16274.34984
16276.33915
16288.74436
16280.31776
16268.20311
16283.67052
16290.86778
16283.04467
16271.01943
16285.12338
16298.24386
16289.99606
16281.36829
16287.82794
16294.24289
16286.28567
16283.06702
16290.30899
16304.05531
16305.8211
16300.7249
16296.43336
16303.2283
16310.17969
16294.86874
16293.0359
16279.51309
16275.7133
16267.93489
16266.19145
16274.75217
16271.37706
16256.5802
16256.91548
16266.14675
16273.63459
16272.00291
16258.83773
16265.40914
16287.55972
16272.04761
16269.07483
16283.13408
16315.85703
16348.53528
16406.98509
16460.53987
16531.50666
16556.65237
16567.2024
16589.17416
16578.1324
16548.47164
16460.40576
16317.10873
16271.8688
16291.15835
16309.03975
16304.36823
16315.78998
16333.96194
16328.9775
16316.43818
16323.63544
16325.75885
16323.43427
16322.38374
16334.27487
16326.42941
16334.69955
16326.2953
16335.88419
16347.52945
16344.19904
16336.08536
16344.64608
16353.51972
16357.67714
16358.61592
16357.0513
16369.25535
16375.58089
16381.07942
16382.12995
16398.87141
16413.91413
16419.27855
16409.28732
16430.40972
16446.10065
16441.76441
16441.60795
16439.28336
16455.68954
16446.39122
16429.40389
16432.39903
16449.67692
16432.91312
16420.73142
16432.39903
16425.09001
16419.47972
16395.16102
16387.98611
16393.30583
16397.50795
16381.4594
16375.0221
16361.49929
16363.84623
16361.05226
16349.38465
16349.78698
16353.8997
16343.68495
16329.51395
16327.88227
16344.82489
16335.45951
16324.35069
16328.86575
16324.08247
16336.6665
16330.07274
16335.95125
16351.32925
16351.28455
16353.43031
16336.26417
16348.33412
16361.16402
16360.51582
16355.41962
16367.3778
16378.55367
16380.58768
16383.62752
16390.95889
16391.76356
16395.87628
16387.98611
16403.14059
16399.92194
16390.13188
16399.45256
16404.10172
16413.40004
16418.27272
16406.53806
16418.94328
16418.71976
16420.12792
16413.02006
16416.95397
16421.53608
16431.72847
16423.30187
16419.01033
16419.52442
16431.41555
16415.70227
16416.50694
16428.06279
16438.88103
16440.49036
16426.297
16427.05696
16434.20952
16442.85964
16442.85964
16451.2639
16448.40288
16455.44367
16445.85478
16440.87034
16452.24738
16451.06273
16441.87617
16444.11134
16447.39705
16442.79259
16428.55453
16422.98894
16425.0453
16427.95103
16408.21444
16401.37481
16403.54292
16401.9336
16400.14546
16385.9968
16384.18631
16395.69746
16389.72955
16381.01237
16378.10664
16378.79954
16385.9074
16373.65864
16361.43224
16376.49731
16387.852
16417.73628
16461.03161
16526.05284
16589.91177
16612.95642
16646.59579
16678.22351
16677.66472
16651.75905
16561.01096
16423.54774
16357.58774
16365.65672
16381.5041
16389.32721
16401.06188
16402.71591
16405.93456
16396.70329
16397.26208
16395.67511
16392.16589
16389.86366
16399.85489
16400.61485
16403.2747
16397.59736
16407.99092
16411.74601
16395.541
16399.63137
16406.85098
16402.64885
16399.45256
16397.28444
16403.31941
16411.85777
16414.87526
16417.49041
16425.26882
16439.19396
16446.34651
16437.04819
16443.21727
16455.46603
16467.06658
16459.37758
16458.50586
16476.2308
16475.56024
16470.77697
16463.31149
16469.8829
16464.45143
16453.58848
16446.7712
16452.11327
16453.812
16445.09482
16428.68864
16413.86943
16421.62549
16413.75767
16396.01039
16378.62073
16384.32042
16380.74415
16361.96868
16345.96483
16351.91039
16345.69661
16339.37107
16342.74618
16346.88125
16344.69078
16332.91141
16328.44106
16335.01248
16329.26808
16332.86671
16337.49352
16339.30401
16346.65773
16337.2253
16333.06787
16342.18739
16344.69078
16341.94152
16336.75591
16335.12423
16345.80837
16333.22434
16328.48577
16336.71121
16338.99109
16334.40898
16330.98916
16333.49256
16345.13782
16343.21557
16336.82297
16336.39828
16341.85211
16345.96483
16338.27583
16329.87157
16338.27583
16341.15921
16328.39636
16322.87548
16325.15536
16326.85409
16324.3954
16318.36043
16325.17771
16330.38566
16317.19814
16314.82885
16315.70057
16320.81912
16313.62186
16304.01061
16311.0067
16318.22632
16315.78998
16302.20011
16298.57913
16306.35754
16312.05723
16302.33423
16297.93093
16308.97269
16302.89302
16295.02521
16292.72298
16300.61314
16304.45764
16294.06408
16292.56651
16297.84152
16304.54705
16306.29048
16296.00868
16294.62287
16300.65784
16297.12627
16292.09713
16291.98537
16297.90858
16298.89206
16293.90762
16286.50919
16287.47032
16295.18167
16294.64523
16288.34203
16294.86874
16300.92607
16291.67244
16285.12338
16287.13504
16293.59469
16291.7842
16283.13408
16292.9912
16301.55191
16296.81334
16285.59277
16289.07964
16297.03686
16298.26621
16290.37604
16294.42171
16301.86484
16306.71517
16299.85318
16306.58106
16317.26519
16327.47994
16322.51785
16312.50427
16319.70153
16333.49256
16329.91628
16325.53534
16326.58587
16329.51395
16322.62961
16311.78901
16304.97173
16310.15734
16301.3731
16287.80559
16286.86682
16291.82891
16288.92318
16281.14477
16278.37316
16282.61999
16280.94361
16272.44994
16266.32557
16274.48395
16280.87655
16270.08066
16263.24102
16269.07483
16279.15547
16295.49459
16326.22824
16354.19027
16395.36219
16444.31251
16478.24245
16529.89734
16604.14983
16622.05358
16614.83396
16569.8399
16460.65163
16340.60041
16291.76185
16301.64132
16308.99505
16312.05723
16307.29631
16299.87553
16305.32936
16307.25161
16297.86388
16288.72201
16297.4839
16306.53635
16302.066
16296.8357
16300.45668
16305.9105
16304.05531
16294.84639
16303.11654
16309.26327
16310.98435
16305.57523
16307.96687
16319.9027
16322.36139
16320.88617
16326.9882
16334.99012
16341.20391
16342.16503
16346.34481
16355.88901
16362.59453
16360.42641
16360.87344
16368.51774
16377.50314
16377.81607
16376.56437
16383.29224
16389.66249
16387.02499
16382.68875
16385.75094
16390.28834
16383.58282
16373.8151
16367.62367
16372.74222
16370.10471
16359.73351
16351.44101
16348.46823
16341.65094
16322.62961
16313.5101
16313.48775
16311.99018
16297.26038
16292.45475
16296.12044
16296.12044
16281.88238
16272.67346
16273.29931
16277.0097
16269.72303
16264.04569
16264.00098
16270.86297
16267.30904
16261.43053
16259.37417
16258.18953
16256.73667
16251.37225
16253.67448
16262.43636
16266.41497
16262.65988
16263.5763
16271.10884
16275.37802
16267.66667
16262.95045
16268.87366
16274.70747
16272.60641
16268.20311
16272.04761
16279.20017
16273.99221
16265.18563
16269.9242
16279.5578
16278.88725
16271.55587
16270.5724
16280.74244
16280.45187
16270.97473
16267.4655
16276.47326
16279.35663
16273.23225
16273.7687
16280.72009
16284.94457
16278.19434
16276.11563
16279.71426
16282.95526
16280.04954
16273.67929
16278.14964
16284.94457
16281.4577
16274.48395
16276.29444
16281.65886
16277.92612
16266.50438
16265.90088
16270.84062
16271.44411
16263.48689
16260.24589
16268.96307
16268.91837
16262.19049
16261.65405
16269.03013
16272.65111
16269.03013
16264.71624
16270.79591
16275.46743
16271.42176
16265.25268
16266.90671
16273.34401
16272.89698
16268.73955
16272.06996
16278.84254
16276.22739
16269.58892
16267.55491
16269.87949
16267.68902
16262.70458
16263.15162
16270.97473
16271.62293
16264.96211
16261.25172
16260.4247
16261.38583
16260.67057
16258.4354
16260.75998
16266.63849
16264.53743
16264.51507
16265.5209
16267.4655
16271.64528
16272.53935
16281.77062
16293.99702
16292.87944
16282.28471
16280.8542
16291.15835
16295.24872
16293.52764
16294.73463
16299.04852
16297.4839
16290.62191
16283.29054
16280.09424
16277.07675
16262.72693
16254.43444
16262.2799
16269.23129
16264.44802
16255.64143
16253.65213
16255.64143
16251.64047
16243.7056
16243.19151
16246.34311
16242.4539
16233.91554
16228.77463
16238.05061
16258.81538
16288.85612
16306.20108
16326.63057
16375.29032
16417.75863
16455.62249
16534.39004
16578.91471
16587.05075
16569.1917
16481.3717
16349.74228
16270.46064
16267.80078
16280.2507
16284.98927
16284.34107
16275.19921
16271.60058
16272.29348
16268.98542
16263.55395
16265.78912
16276.58502
16282.70939
16278.84254
16280.04954
16287.17974
16291.91831
16285.61512
16281.27888
16291.53833
16301.28369
16302.15541
16304.10001
16311.38668
16319.9027
16316.97462
16319.61212
16330.38566
16344.53432
16349.00467
16351.79864
16363.01921
16376.45261
16383.33695
16384.96862
16393.55169
16406.71687
16412.08129
16410.11434
16412.28246
16422.63131
16426.38641
16419.36796
16417.17749
16419.27855
16417.82569
16406.22513
16395.45159
16394.02108
16393.01525
16381.59351
16365.63437
16358.61592
16355.86665
16346.47892
16331.19033
16323.32251
16319.67918
16309.82206
16294.08643
16287.51502
16290.75602
16287.17974
16275.37802
16273.65694
16277.30027
16276.4062
16269.72303
16268.7172
16275.46743
16282.1506
16278.59667
16274.19338
16277.90377
16281.16712
16274.90864
16267.53256
16269.74538
16277.25557
16274.43925
16268.27017
16270.75121
16275.62389
16275.1545
16270.48299
16272.42759
16279.82602
16278.48491
16272.96403
16272.04761
16279.13311
16281.21183
16276.20504
16271.42176
16275.69095
16277.99318
16272.11467
16266.39262
16272.04761
16277.14381
16274.12632
16267.51021
16269.81244
16272.517
16265.4762
16257.89896
16261.83286
16268.069
16266.39262
16261.49759
16262.8834
16269.00777
16269.03013
16261.43053
16255.46262
16258.30129
16258.92714
16251.95339
16247.88538
16252.82511
16252.78041
16246.61133
16242.05157
16245.11376
16249.65116
16245.56079
16239.34701
16240.37519
16245.62785
16243.25856
16236.93302
16238.18472
16244.33145
16244.71143
16237.9612
16234.65314
16241.38102
16242.3645
16235.9719
16236.10601
16243.77265
16245.89607
16241.55983
16237.76004
16242.27509
16246.49957
16242.72212
16241.17985
16246.34311
16250.7464
16243.95147
16237.80474
16242.72212
16249.20413
16242.31979
16235.48016
16241.13515
16249.42765
16252.40043
16248.44417
16238.58705
16247.61716
16256.42374
16259.1283
16264.64918
16272.00291
16273.88045
16265.63266
16265.34209
16276.00387
16281.14477
16281.10007
16276.20504
16276.20504
16281.18948
16274.01457
16260.49176
16256.84843
16251.57341
16243.1021
16237.78239
16241.761
16248.39947
16247.23718
16239.61523
16237.62593
16242.3645
16244.97965
16239.8164
16232.7756
16234.85431
16235.39075
16227.58999
16233.20028
16272.11467
16320.50619
16335.25835
16346.38951
16396.68094
16443.08316
16500.05776
16570.68927
16598.09251
16601.46762
16545.78943
16407.87916
16286.39743
16259.70945
16276.49561
16274.26043
16275.64624
16285.3022
16285.07868
16276.92029
16274.01457
16279.49074
16283.53641
16280.69774
16281.74827
16291.136
16302.6695
16300.79196
16298.19915
16305.46347
16312.8619
16311.18552
16308.19038
16315.4994
16326.92114
16332.62084
16333.29139
16341.49448
16354.10087
16361.14167
16362.30396
16372.58576
16390.80243
16403.74409
16405.64399
16414.87526
16429.85093
16439.50688
16442.9267
16447.88879
16456.11423
16462.10449
16458.32705
16452.71676
16458.79644
16462.41742
16457.54474
16448.33582
16445.76537
16444.11134
16434.0307
16417.93745
16408.05798
16404.07937
16392.00942
16372.56341
16358.37005
16354.36909
16344.08728
16328.3293
16318.38278
16315.67822
16308.52566
16293.05825
16279.33428
16276.47326
16274.77452
16265.56561
16256.24493
16256.66961
16260.9835
16253.67448
16245.96313
16246.2984
16247.88538
16241.761
16229.64635
16227.74645
16232.66384
16230.98746
16223.61138
16219.49866
16225.39952
16226.83003
16219.36455
16217.91169
16222.27028
16230.96511
16229.19932
16228.90874
16235.27899
16242.74447
16243.81736
16242.94564
16249.13707
16258.90479
16257.42957
16251.10403
16252.82511
16261.72111
16264.89505
16261.13996
16260.22354
16266.19145
16265.31974
16257.34016
16258.41305
16262.2352
16263.30808
16259.93297
16257.07194
16261.0282
16262.65988
16256.91548
16250.99227
16252.33337
16253.00393
16249.80763
16246.41016
16250.20996
16253.38391
16248.06419
16243.92912
16243.99617
16248.93591
16248.46652
16241.98452
16243.81736
16252.55689
16249.80763
16245.67255
16245.85137
16255.06029
16259.01654
16254.74736
16251.88634
16256.89313
16260.46941
16258.92714
16256.73667
16257.98836
16260.3353
16260.04472
16258.68127
16266.75025
16273.07579
16265.92323
16263.28573
16272.44994
16286.55389
16292.81238
16291.35952
16299.09322
16310.80554
16316.37112
16317.01932
16317.3546
16328.70928
16331.99499
16326.2953
16321.95906
16322.62961
16316.7958
16308.77153
16294.91345
16291.11365
16290.86778
16283.60346
16279.98248
16282.50823
16282.37412
16275.84741
16266.57143
16261.6317
16266.10205
16266.63849
16258.18953
16255.2838
16253.00393
16257.96601
16285.3916
16339.88516
16397.95499
16425.49234
16464.63024
16498.20256
16566.71066
16646.70755
16665.59478
16643.37714
16552.85258
16387.82965
16273.38872
16259.24006
16284.29637
16291.33717
16299.24968
16300.1214
16297.68506
16298.37797
16292.00772
16283.89404
16284.83281
16291.56068
16295.22637
16283.29054
16258.4801
16252.02045
16267.75608
16277.47909
16281.18948
16291.49363
16299.83083
16302.98243
16306.58106
16317.3993
16329.60335
16331.21268
16333.93959
16349.07172
16362.30396
16370.43999
16375.75971
16389.8413
16408.12503
16418.22802
16423.92772
16434.52244
16447.97819
16456.4495
16457.61179
16459.13171
16464.20556
16464.87611
16457.85766
16450.23572
16448.22406
16442.9267
16427.45929
16412.2154
16400.39133
16388.56726
16368.83067
16347.66356
16334.94542
16322.89783
16303.38476
16279.26723
16266.70554
16257.89896
16244.10793
16226.94179
16216.39177
16212.83784
16206.557
16199.18092
16199.91853
16213.06136
16227.99232
16237.89415
16247.99713
16263.91158
16277.92612
16285.74923
16296.2322
16308.77153
16319.61212
16322.22728
16318.85216
16321.64613
16324.23894
16319.9027
16311.31963
16307.63159
16309.1068
16303.45181
16294.10878
16290.5325
16291.40422
16289.41492
16279.31193
16276.85324
16280.13894
16284.25166
16279.04371
16273.18755
16275.95917
16276.94264
16268.35957
16262.30225
16264.44802
16268.40428
16265.05152
16255.17204
16256.11082
16259.26241
16254.32268
16249.87468
16251.75223
16256.89313
16256.93783
16250.76875
16249.18178
16251.37225
16251.32754
16244.73378
16241.69394
16245.29257
16248.13125
16244.44321
16244.28675
16245.67255
16248.39947
16243.7056
16239.41406
16239.45877
16235.4131
16200.74555
16165.25098
16177.7009
16202.82426
16206.93698
16207.98751
16216.72704
16235.23429
16246.18664
16249.89703
16254.94853
16263.12927
16265.85618
16263.41984
16262.10109
16268.62779
16272.53935
16270.32653
16266.92906
16262.2352
16256.4908
16247.48304
16236.55304
16234.80961
16241.2022
16235.39075
16230.69688
16236.7095
16241.04574
16234.85431
16226.78533
16225.1313
16224.14782
16221.48797
16213.5978
16208.61336
16209.52978
16220.6833
16254.83677
16314.31476
16375.55854
16412.97536
16459.98108
16492.50287
16568.81172
16629.85434
16631.9554
16580.34522
16453.34261
16283.60346
16204.27712
16218.06815
16245.0467
16263.59865
16281.70357
16284.38577
16291.56068
16310.44791
16324.14953
16327.99403
16328.99986
16337.42646
16343.50614
16345.11546
16347.84238
16355.39727
16360.9852
16357.36422
16353.36326
16360.58287
16364.69559
16363.15332
16363.98034
16373.30101
16383.11343
16386.71206
16386.24267
16396.36801
16409.68965
16414.42822
16416.93162
16429.91798
16447.93349
16457.52239
16460.42811
16468.78767
16476.00728
16485.50677
16484.94798
16483.65158
16487.78665
16488.25604
16482.15401
16474.55442
16471.11225
16470.03936
16457.56709
16441.51854
16431.37085
16422.13958
16405.10755
16382.04055
16367.9366
16356.78307
16334.14076
16308.86093
16297.68506
16293.90762
16287.06798
16275.57919
16269.81244
16266.34792
16265.18563
16256.40139
16252.13221
16254.99323
16256.71432
16252.66865
16251.12638
16258.56951
16262.72693
16263.71041
16264.44802
16268.35957
16274.59571
16271.73469
16264.2245
16265.05152
16268.53839
16267.33139
16261.47524
16262.03403
16267.17493
16269.76773
16263.77747
16259.82121
16264.1798
16264.76094
16261.16231
16257.31781
16257.7872
16258.56951
16249.42765
16242.4539
16244.21969
16245.0467
16240.30813
16237.17889
16239.8611
16245.49374
16243.45973
16243.92912
16253.56272
16263.48689
16269.25364
16275.60154
16290.5325
16308.86093
16314.96296
16309.37502
16308.97269
16316.01349
16316.59464
16307.98922
16300.50138
16303.63063
16308.92799
16309.0174
16310.76083
16316.12525
16320.39443
16318.18161
16317.60047
16322.04846
16328.70928
16327.90462
16318.49454
16318.0475
16318.87452
16301.68602
16286.82211
16280.87655
16280.42952
16280.42952
16273.56753
16271.37706
16275.33332
16274.97569
16267.13023
16263.86687
16266.34792
16266.01264
16256.37904
16248.35476
16252.55689
16254.79206
16249.36059
16263.95628
16311.78901
16384.45453
16436.73526
16465.21139
16506.07038
16548.51634
16624.15464
16659.62686
16660.40917
16601.35586
16441.09386
16275.53448
16232.64149
16260.69293
16277.30027
16283.87168
16295.6287
16302.55774
16302.6695
16297.17097
16293.39353
16300.09905
16307.7657
16306.62576
16306.22343
16311.20787
16318.49454
16320.77441
16321.66848
16328.3293
16336.46534
16338.61111
16337.80644
16345.20487
16358.48181
16365.36614
16367.17664
16373.65864
16386.77912
16396.39037
16401.41951
16410.89665
16426.297
16442.07733
16451.2639
16457.7459
16468.16182
16483.18219
16491.47469
16495.52035
16502.44939
16509.33373
16508.70788
16502.4941
16498.91782
16498.87311
16488.97129
16474.55442
16464.54083
16460.58458
16451.10744
16432.75665
16418.18332
16410.33785
16399.36315
16383.69458
16370.55175
16362.12514
16353.45267
16341.94152
16331.23503
16325.98237
16325.62474
16319.79094
16311.27492
16312.68308
16314.69474
16309.26327
16301.44016
16305.01643
16308.43625
16310.24674
16307.94451
16311.34198
16319.56742
16319.52272
16314.8512
16312.39251
16314.56063
16317.73458
16315.27589
16315.11942
16319.72388
16322.83078
16317.82398
16315.05237
16322.27198
16328.12814
16325.20006
16318.91922
16321.44497
16327.97168
16324.75303
16315.85703
16316.63934
16317.84634
16314.53828
16309.1068
16311.74431
16319.2992
16317.93574
16308.50331
16307.65394
16315.63351
16318.27102
16314.89591
16313.66656
16317.66752
16317.82398
16317.71223
16314.8512
16322.78607
16331.39149
16327.92697
16321.37791
16331.63736
16341.91916
16343.95317
16343.46144
16345.47309
16348.20001
16344.08728
16336.6218
16322.31668
16311.85607
16307.13985
16294.77934
16288.52085
16290.46545
16291.89596
16285.14573
16281.10007
16283.17878
16287.13504
16280.09424
16273.23225
16276.22739
16284.56459
16280.98831
16275.66859
16275.24391
16287.58207
16316.59464
16369.61298
16449.38635
16499.9907
16544.04599
16563.04497
16619.28196
16659.35864
16661.12443
16618.4326
16487.63019
16318.09221
16255.8873
16274.5063
16298.53443
16315.34294
16332.24086
16331.81618
16323.72484
16321.82495
16324.52951
16322.27198
16317.95809
16320.88617
16329.40219
16328.9328
16327.0329
16335.07953
16343.50614
16345.69661
16344.2661
16350.54694
16358.10183
16362.30396
16364.24856
16370.17177
16382.55464
16391.22711
16395.87628
16402.47004
16413.26593
16422.18428
16428.50982
16437.60698
16452.00151
16467.62538
16473.88386
16476.20845
16484.32213
16495.38624
16498.33667
16496.52618
16498.80606
16499.61072
16496.99557
16483.94215
16474.3309
16469.21235
16460.2493
16449.18519
16439.75275
16430.32031
16419.3009
16402.60415
16385.92975
16376.43026
16367.64602
16356.98424
16345.54015
16345.02606
16355.35256
16354.92788
16351.17279
16356.89483
16358.21359
16359.77821
16376.54202
16422.85483
16430.1415
16411.58955
16375.40208
16344.93665
16305.28466
16266.70554
16233.4238
16256.4908
16308.88329
16345.07076
16343.0591
16322.11552
16295.04756
16294.80169
16299.98729
16310.22439
16314.47122
16316.25936
16302.40128
16302.31187
16300.54609
16308.27979
16314.7618
16334.58779
16373.23396
16411.43309
16414.24941
16396.59153
16392.00942
16394.73634
16397.30679
16387.94141
16386.86852
16386.13092
16379.5148
16365.4779
16361.83457
16346.00953
16346.2107
16363.44389
16392.18824
16396.94916
16369.81414
16348.89291
16343.97553
16342.85794
16346.97066
16359.37588
16344.24375
16305.19525
16272.67346
16262.05638
16268.0243
16286.688
16324.35069
16329.49159
16294.89109
16276.45091
16302.89302
16307.0728
16280.36246
16252.33337
16229.98163
16214.9389
16216.16825
16242.81153
16260.06708
16284.83281
16276.18268
16283.447
16312.16899
16357.72185
16397.84323
16446.43592
16492.77109
16559.04401
16540.67088
16504.66222
16474.66618
16335.75008
16168.1567
16126.31424
16186.79806
16228.2829
16225.7348
16218.93987
16211.74261
16209.48508
16203.42776
16179.57844
16192.96714
16225.06424
16218.91752
16185.21108
16186.12751
16213.17312
16218.02345
16204.25477
16203.76303
16226.02537
16249.36059
16266.23616
16276.51796
16274.28279
16274.59571
16267.33139
16267.15258
16282.39647
16313.24188
16331.12327
16323.16605
16330.16215
16344.53432
16368.42833
16364.76265
16352.78211
16367.80248
16420.75377
16461.76922
16462.97621
16438.34459
16419.47972
16420.70906
16426.45346
16445.65361
16436.51175
16408.68383
16372.87633
16341.60624
16333.96194
16348.98232
16372.13872
16398.7373
16413.37769
16364.76265
16284.60929
16245.31493
16243.50443
16253.9874
16257.8319
16263.41984
16282.26236
16265.69972
16226.15948
16240.59871
16295.69576
16288.78907
16231.03216
16209.86506
16238.11766
16241.24691
16245.29257
16241.53748
16223.67844
16242.83388
16251.17108
16217.28584
16217.46465
16246.9019
16251.59577
16232.26151
16221.06328
16217.84463
16253.31685
16289.48197
16272.91933
16220.01275
16179.89137
16178.23734
16219.67747
16250.76875
16247.08071
16234.34022
16241.67159
16293.77351
16315.74527
16270.0136
16228.77463
16204.67945
16220.86212
16246.00783
16261.81051
16281.43534
16296.14279
16294.35465
16265.90088
16223.92431
16209.01569
16195.6717
16211.6532
16224.14782
16240.39754
16270.93002
16277.81436
16242.49861
16218.62694
16219.02927
16215.98944
16218.22461
16250.85816
16225.8242
16155.68443
16141.8934
16165.80977
16213.15077
16240.88928
16213.84367
16183.49
16175.86806
16173.78934
16187.60272
16182.48417
16189.63673
16235.16723
16296.00868
16351.26219
16410.58372
16433.62837
16473.19096
16576.8807
16659.22453
16688.68413
16579.00412
16366.64019
16218.47048
16220.34803
16258.65892
16263.33043
16243.88441
16206.44524
16190.68726
16207.60753
16214.31306
16202.15371
16211.02735
16234.42963
16240.59871
16254.50149
16279.6472
16256.28963
16242.3645
16270.86297
16287.00093
16288.25263
16279.62485
16284.63164
16287.31385
16284.49753
16286.73271
16299.29439
16320.50619
16336.35358
16328.79869
16337.76174
16354.97258
16347.30594
16354.81612
16384.34278
16389.57308
16388.94724
16406.49335
16418.22802
16413.08712
16414.02589
16412.97536
16394.64693
16375.96087
16370.90938
16390.95889
16433.91895
16472.83333
16421.87135
16325.58004
16267.06317
16274.5063
16297.26038
16299.13793
16285.63747
16282.1059
16277.30027
16277.16616
16263.5316
16255.70849
16263.77747
16269.52186
16241.47043
16214.40246
16209.23921
16196.34225
16200.05264
16202.22076
16205.37236
16224.61721
16247.57245
16244.93495
16233.82613
16226.83003
16234.34022
16221.71148
16203.07013
16180.56192
16188.38503
16199.53855
16206.62406
16222.71731
16225.39952
16210.24504
16213.5531
16248.06419
16255.46262
16223.52197
16199.24798
16213.93308
16229.48989
16230.69688
16220.05745
16224.4831
16240.33049
16247.30423
16227.70175
16217.57641
16229.13226
16216.57058
16215.40829
16234.40727
16238.74351
16238.27413
16228.59582
16223.2314
16233.78143
16230.71924
16236.6648
16235.27899
16231.09922
16230.51807
16231.12157
16248.73474
16256.44609
16220.6833
16181.81362
16178.46086
16175.71159
16162.41231
16166.50267
16185.4346
16189.1897
16175.77865
16172.87292
16172.87292
16188.85442
16199.4715
16179.44433
16180.67368
16203.58422
16246.87955
16288.16322
16315.34294
16386.98028
16462.03744
16567.13534
16666.48885
16693.78033
16629.63082
16475.09086
16298.42267
16220.07981
16223.92431
16240.48695
16258.21188
16273.72399
16247.43834
16222.38204
16238.69881
16227.94762
16206.71346
16219.20809
16229.24402
16231.54625
16230.47337
16251.05932
16280.87655
16283.82698
16270.30418
16252.98157
16245.67255
16249.07002
16254.74736
16271.10884
16286.84447
16300.47903
16320.61795
16323.90366
16309.68795
16313.62186
16343.64025
16357.02894
16369.70238
16361.47694
16342.23209
16343.79671
16364.58383
16376.98905
16389.34957
16412.57303
16444.04429
16434.72361
16394.2446
16383.02402
16379.91713
16380.1183
16371.33406
16359.82291
16336.21947
16319.9027
16304.85997
16284.16226
16276.74148
16279.53545
16272.87463
16252.44513
16227.92527
16241.91746
16259.79886
16241.00104
16220.77271
16222.27028
16226.18183
16217.12938
16220.90682
16241.69394
16226.383
16193.79415
16183.51235
16208.43455
16220.14686
16226.60652
16238.43059
16239.92815
16225.26541
16217.55406
16222.47144
16231.27803
16225.64539
16230.49572
16239.88345
16231.90388
16221.01858
16214.87185
16216.68234
16218.7387
16243.81736
16279.04371
16262.95045
16225.89126
16227.45588
16229.55695
16226.11478
16230.00398
16222.27028
16231.25568
16233.08852
16234.63079
16255.68613
16268.7172
16256.46845
16237.51417
16250.0982
16265.5209
16268.35957
16267.39845
16262.03403
16255.90965
16252.86981
16251.10403
16275.02039
16299.54026
16289.21375
16241.93981
16209.77565
16207.51813
16221.48797
16237.55887
16225.7795
16203.65127
16206.37819
16206.62406
16201.95254
16206.93698
16211.02735
16199.27033
16193.16831
16198.46567
16201.86313
16200.83495
16204.27712
16229.80281
16295.67341
16345.27193
16399.4302
16479.27063
16511.01011
16597.9584
16678.33527
16715.90855
16669.30517
16497.53201
16303.63063
16223.38786
16236.73186
16253.27215
16261.78816
16271.9582
16269.85714
16266.28086
16283.93874
16280.67539
16259.57534
16249.00296
16259.24006
16294.55582
16293.23707
16248.31006
16222.80672
16239.41406
16272.24878
16294.89109
16302.91537
16300.61314
16301.48486
16311.67725
16320.95323
16334.25252
16387.96376
16417.9598
16391.0036
16356.69367
16354.70436
16399.13963
16468.51945
16472.49806
16423.1454
16409.24262
16440.49036
16441.60795
16429.31449
16425.24647
16435.52827
16443.17257
16461.92568
16479.04712
16458.28235
16429.4486
16426.72168
16418.33978
16402.89472
16359.59939
16340.55571
16350.23401
16355.37492
16352.96093
16343.79671
16330.40802
16300.54609
16279.93778
16277.6579
16283.4917
16287.47032
16275.17686
16256.37904
16261.20702
16289.10199
16285.23514
16250.1429
16223.2314
16256.46845
16277.74731
16248.22065
16225.62304
16237.24595
16247.52775
16274.03692
16283.33524
16268.69485
16258.30129
16259.24006
16283.04467
16299.98729
16304.83762
16278.3061
16245.89607
16225.84656
16236.68715
16255.59673
16256.40139
16242.54331
16257.69779
16291.31482
16321.48967
16296.07574
16242.72212
16228.17114
16231.07686
16241.24691
16246.27605
16250.36642
16249.27118
16242.61036
16254.03211
16270.63945
16289.07964
16292.49946
16256.5355
16233.22263
16244.55497
16246.87955
16254.88147
16276.04857
16296.74629
16293.25942
16275.98152
16271.9582
16280.49657
16273.70164
16263.59865
16262.65988
16256.51315
16238.02826
16216.86115
16208.07692
16212.9496
16221.04093
16222.04676
16211.51909
16219.25279
16209.37332
16183.02061
16169.29664
16163.82047
16176.11392
16178.9526
16174.30343
16173.8564
16195.60465
16248.1536
16310.15734
16349.94344
16425.15706
16504.75162
16590.17999
16690.11464
16744.58584
16753.21361
16635.08465
16416.12696
16280.02718
16266.97377
16277.03205
16264.29156
16272.5617
16272.09232
16261.49759
16251.37225
16248.06419
16251.3499
16249.53941
16244.51026
16249.33824
16260.13413
16267.10788
16263.55395
16265.45385
16276.09328
16287.09034
16283.73757
16286.28567
16326.9882
16345.42839
16313.39834
16283.11173
16298.89206
16318.58394
16325.22241
16336.19712
16359.10766
16377.6596
16386.91323
16394.2446
16409.84612
16420.26203
16418.87622
16421.89371
16433.3378
16439.57394
16440.91504
16441.51854
16442.9267
16445.58656
16439.75275
16432.33197
16410.02493
16396.27861
16407.90151
16398.26791
16367.69073
16342.4109
16328.30695
16310.44791
16298.53443
16294.19819
16291.98537
16283.87168
16280.36246
16280.04954
16269.87949
16252.19926
16237.44711
16233.44615
16239.23525
16253.13804
16263.44219
16263.06221
16268.47133
16262.05638
16238.25177
16221.64443
16230.51807
16243.03505
16242.52096
16242.74447
16255.99906
16269.18659
16283.62582
16291.89596
16286.79976
16277.56849
16257.65309
16244.62202
16248.8465
16260.58117
16265.11857
16264.1798
16268.069
16278.75314
16288.07381
16283.04467
16276.29444
16272.42759
16273.61223
16267.51021
16267.68902
16272.5617
16273.79105
16270.5724
16265.00681
16265.54325
16266.83966
16266.01264
16264.2245
16276.62972
16290.84543
16283.22348
16262.50342
16254.21092
16265.83383
16270.63945
16265.49855
16263.37513
16273.23225
16285.19044
16284.89986
16287.76089
16296.79099
16300.74725
16293.25942
16288.56555
16281.72592
16268.60544
16254.30033
16242.72212
16245.15846
16248.62298
16245.6502
16242.83388
16241.26926
16247.84067
16241.2022
16233.37909
16233.4238
16236.88832
16235.45781
16228.52877
16222.71731
16231.23333
16259.39652
16309.39738
16380.74415
16431.30379
16501.26475
16560.27336
16642.08074
16708.01839
16729.16314
16688.88529
16539.6427
16335.52657
16238.89997
16245.06906
16265.23033
16277.92612
16290.80073
16289.70549
16285.16809
16281.5471
16283.55876
16284.98927
16280.74244
16282.77645
16292.94649
16295.85222
16291.44893
16294.68993
16305.73169
16310.78318
16307.69864
16307.87746
16317.46636
16326.42941
16329.98333
16335.30305
16345.29428
16359.55469
16361.07461
16363.62271
16377.27962
16392.23294
16401.30775
16405.62164
16422.31839
16438.83633
16450.45924
16453.23085
16459.89167
16469.2347
16471.29106
16464.1385
16459.95873
16459.80227
16454.10257
16437.65169
16422.96659
16418.63035
16410.58372
16394.35636
16374.57506
16366.55079
16356.13487
16338.85698
16319.63448
16311.02905
16303.83179
16294.86874
16281.03301
16269.58892
16267.62197
16265.54325
16254.32268
16245.96313
16249.69587
16248.75709
16246.72309
16247.84067
16256.13317
16261.0282
16257.51898
16257.63074
16265.49855
16263.46454
16263.06221
16267.35375
16272.87463
16278.75314
16278.79784
16277.43438
16284.89986
16295.22637
16296.16514
16293.61705
16295.04756
16301.61897
16305.01643
16299.71907
16299.80848
16306.87163
16308.27979
16302.84832
16301.68602
16307.49748
16310.3585
16301.30605
16296.90275
16301.66367
16302.82596
16297.4839
16295.71811
16304.27883
16311.49844
16310.06793
16301.90954
16303.29535
16313.10777
16315.18648
16312.61603
16314.89591
16318.44983
16319.45566
16320.14857
16324.14953
16330.788
16334.29722
16331.83853
16328.77634
16334.74425
16334.14076
16315.43235
16303.13889
16303.40711
16301.23899
16294.44406
16293.12531
16296.96981
16301.82014
16297.77447
16288.47614
16289.34786
16294.06408
16291.29246
16283.11173
16285.57042
16289.52668
16281.48005
16275.8027
16297.64036
16353.47502
16432.53314
16490.53591
16558.41816
16602.89813
16670.31099
16705.11266
16706.09614
16677.24004
16545.92354
16341.51683
16250.7911
16274.88628
16307.13985
16312.8619
16320.34973
16326.69763
16328.30695
16321.91435
16316.21466
16316.7511
16322.69666
16324.86478
16320.05916
16321.22145
16326.47411
16330.63153
16330.00569
16332.84436
16344.04258
16352.29037
16351.53042
16351.93275
16363.39919
16374.48566
16378.15134
16382.53228
16391.94237
16406.22513
16411.5672
16413.75767
16424.46416
16441.80911
16451.9121
16456.62832
16466.19486
16481.05877
16488.30074
16487.36197
16486.91493
16493.37459
16492.48052
16483.51747
16475.89552
16472.25219
16465.12198
16449.67692
16436.84702
16432.44373
16426.56522
16412.10364
16398.7373
16393.43994
16387.94141
16375.44678
16361.05226
16353.47502
16348.13295
16339.43812
16328.55282
16324.95419
16326.04943
16320.99793
16311.83372
16308.48096
16311.52079
16312.9513
16306.20108
16302.89302
16308.10098
16309.79971
16305.50817
16304.85997
16309.46443
16311.47609
16307.13985
16302.6248
16309.41973
16318.76276
16317.93574
16312.83955
16317.26519
16327.52464
16329.64806
16325.02125
16327.16701
16333.4255
16333.20198
16327.43523
16326.9882
16334.00665
16336.10771
16330.11744
16325.11065
16328.57517
16330.36331
16323.70249
16315.4547
16317.01932
16321.48967
16319.3439
16315.52175
16320.26032
16320.79677
16316.7958
16314.44887
16320.50619
16332.1291
16332.39732
16321.04264
16319.2992
16331.4362
16337.98526
16333.96194
16339.37107
16349.78698
16350.43518
16343.0591
16336.30888
16330.85505
16327.21172
16318.42748
16307.1622
16309.53149
16316.08055
16312.34781
16306.514
16308.97269
16312.32546
16309.77736
16303.74239
16304.50234
16308.86093
16304.99408
16290.42075
16286.73271
16310.04558
16354.27968
16410.62843
16456.89654
16517.58152
16584.18972
16638.52681
16721.49649
16762.42253
16761.28259
16679.49756
16497.95669
16347.61886
16310.89494
16332.55378
16337.00178
16343.14851
16356.91719
16356.31369
16349.20583
16350.14461
16355.95606
16356.33604
16351.61982
16355.08434
16366.19316
16368.98713
16366.48373
16369.233
16375.04445
16379.02306
16376.87729
16380.40887
16391.11535
16400.61485
16406.471
16411.18722
16425.6488
16438.50105
16444.2678
16447.01707
16459.19877
16477.68366
16488.47955
16493.19577
16504.25988
16522.20834
16531.3949
16532.15486
16535.32881
16543.95658
16546.23646
16540.08973
16538.18983
16540.80499
16536.35699
16522.78948
16512.7759
16508.73023
16502.47175
16488.32309
16475.40378
16467.55832
16463.4903
16451.04038
16433.80719
16423.01129
16415.16583
16401.77714
16387.04734
16380.05124
16378.28545
16371.62463
16362.57218
16358.68297
16360.60522
16357.20776
16348.40117
16344.24375
16349.04937
16350.56929
16345.36133
16341.27096
16344.42256
16348.53528
16343.90847
16339.57223
16343.12616
16351.64217
16352.80446
16345.67426
16346.34481
16351.61982
16349.09407
16343.23792
16345.18252
16352.58095
16353.98911
16348.78115
16351.55277
16359.39823
16361.45459
16352.53624
16347.44005
16352.89387
16354.32438
16346.14364
16341.40507
16344.35551
16347.70827
16341.44978
16335.77244
16339.2146
16343.0144
16338.25348
16332.1738
16333.80548
16338.14172
16334.6325
16326.45176
16326.09413
16329.44689
16333.49256
16330.94446
16333.4255
16339.10285
16337.35941
16332.37497
16332.79965
16345.89778
16356.04547
16350.30107
16344.35551
16352.40213
16360.51582
16357.16305
16357.096
16364.94146
16365.56731
16359.82291
16348.69174
16333.89489
16331.14562
16324.50716
16312.61603
16311.96783
16316.34877
16316.57229
16308.01157
16307.29631
16314.40417
16314.31476
16306.73752
16303.34005
16307.92216
16309.59854
16299.00382
16293.90762
16321.55673
16375.49149
16429.47095
16466.32897
16526.03048
16597.13138
16658.71044
16745.25639
16789.35639
16790.09399
16708.55483
16525.0023
16367.82484
16329.80452
16349.67522
16349.04937
16348.7588
16357.72185
16357.72185
16347.21653
16342.3215
16345.92013
16345.42839
16342.07563
16341.53919
16346.8589
16354.43614
16355.97841
16354.12322
16359.82291
16367.3331
16369.90355
16371.31171
16380.49828
16394.49047
16400.77131
16400.50309
16406.20278
16419.79264
16427.72751
16431.01322
16438.41165
16452.53795
16465.61372
16475.29202
16484.94798
16499.74483
16514.51934
16519.34731
16523.77296
16534.56885
16543.50955
16542.68253
16538.18983
16539.37448
16541.00615
16532.73601
16519.19085
16511.70302
16508.19379
16496.01209
16480.41057
16469.74879
16465.21139
16453.07439
16435.12594
16421.64784
16415.74698
16407.90151
16390.31069
16379.5595
16374.86564
16365.41085
16351.73158
16341.0698
16342.00857
16343.90847
16337.69469
16331.79382
16330.69859
16331.4809
16326.80939
16322.87548
16324.84243
16330.27391
16330.1398
16325.96002
16326.45176
16331.50325
16332.62084
16329.78217
16329.24573
16335.23599
16335.70538
16331.21268
16329.44689
16335.52657
16338.78992
16335.59362
16332.44203
16335.63832
16339.63929
16335.23599
16329.26808
16334.23016
16341.56154
16337.96291
16332.21851
16333.71607
16336.82297
16333.11258
16323.52368
16320.99793
16325.98237
16327.21172
16323.97071
16323.41192
16329.26808
16329.82687
16321.60143
16314.44887
16317.01932
16321.8473
16318.11456
16314.24771
16317.82398
16322.40609
16318.71805
16313.77832
16316.1476
16320.41679
16318.62865
16313.48775
16313.13012
16318.82981
16319.63448
16316.66169
16317.30989
16317.42165
16322.04846
16322.96489
16331.10092
16340.26514
16343.55084
16338.65581
16339.50518
16351.86569
16356.82778
16355.08434
16355.1514
16362.08044
16364.60619
16360.11348
16351.23984
16343.79671
16343.32732
16335.3701
16327.01055
16326.47411
16331.16798
16329.20102
16322.94253
16321.71319
16325.64709
16322.78607
16313.5101
16307.63159
16309.73265
16307.27396
16293.39353
16294.15349
16330.38566
16390.89184
16446.90531
16483.80804
16551.55618
16614.47634
16686.22544
16764.18832
16787.85882
16772.34671
16661.81733
16461.99274
16337.76174
16328.8881
16352.13391
16346.32246
16351.46336
16360.40406
16359.73351
16351.17279
16347.52945
16354.19027
16357.72185
16353.60913
16355.1514
16363.30978
16368.60715
16370.64116
16370.73056
16377.68196
16385.57212
16385.01333
16382.73345
16388.90253
16397.06092
16400.12311
16400.27957
16404.28053
16412.41657
16420.17262
16425.78291
16437.02584
16454.84018
16466.91012
16470.15112
16475.00145
16490.20064
16501.51062
16502.22588
16505.62334
16516.5757
16521.85071
16522.49891
16519.54848
16520.53195
16520.73312
16510.49602
16495.96739
16489.12775
16485.28325
16474.77793
16461.16572
16453.58848
16446.05594
16432.37667
16413.73532
16402.85002
16395.5857
16387.2038
16371.64699
16358.63827
16354.45849
16349.87639
16340.01927
16334.00665
16335.3701
16334.20781
16326.07178
16319.14274
16320.5509
16323.41192
16321.13204
16317.64517
16320.95323
16328.55282
16327.32348
16322.62961
16323.1884
16328.55282
16330.40802
16327.6811
16328.79869
16333.73843
16333.85019
16327.72581
16324.50716
16327.18937
16327.85992
16323.36722
16320.81912
16326.65292
16332.41967
16329.37984
16323.05429
16322.69666
16326.58587
16325.55769
16319.88034
16322.5402
16329.46924
16328.57517
16320.32738
16317.13108
16321.55673
16321.53437
16313.10777
16311.45374
16316.59464
16317.98045
16312.79484
16312.9066
16320.79677
16324.75303
16320.41679
16317.24284
16322.85313
16328.64223
16327.47994
16321.93671
16321.66848
16324.19423
16319.58977
16310.93965
16311.31963
16318.44983
16315.92409
16309.57619
16315.03002
16324.30599
16329.13397
16323.94836
16318.6063
16323.47898
16329.22337
16330.65389
16335.14659
16344.78019
16349.83168
16344.73548
16346.8589
16354.79377
16358.28064
16358.54886
16357.96772
16361.02991
16360.337
16351.3516
16337.49352
16331.68207
16327.27877
16323.97071
16319.27685
16318.38278
16320.34973
16320.21562
16315.54411
16313.66656
16315.58881
16311.67725
16305.53052
16300.83666
16302.37893
16294.62287
16290.89013
16318.42748
16380.34181
16445.40774
16478.26481
16535.28411
16597.3102
16681.3304
16762.95898
16779.70043
16755.5829
16645.58997
16450.12396
16319.76859
16306.35754
16337.89585
16342.18739
16344.57902
16346.74714
16346.54598
16345.74131
16340.15338
16337.85115
16345.49544
16350.43518
16352.5586
16351.9551
16359.37588
16364.7403
16362.68394
16361.38753
16369.70238
16377.79371
16381.07942
16383.85104
16391.76356
16403.98996
16414.02589
16416.14931
16423.99477
16438.38929
16448.58169
16454.72842
16466.6866
16487.29491
16498.62725
16506.40565
16516.95568
16533.02658
16546.41527
16549.74568
16551.28796
16560.8545
16567.15769
16564.90017
16557.03235
16557.36763
16557.30057
16544.42597
16530.36672
16524.19764
16522.34245
16512.70884
16496.05679
16483.76334
16473.88386
16460.2493
16439.86451
16424.48651
16422.43015
16413.22123
16396.47977
16389.03664
16386.53325
16383.404
16372.56341
16363.91328
16363.30978
16365.4332
16360.11348
16352.08921
16351.77628
16353.13974
16353.05033
16346.2554
16346.99301
16352.58095
16347.86473
16338.09702
16341.22626
16341.87446
16339.92986
16334.54309
16333.06787
16344.66843
16351.28455
16345.31663
16344.44491
16350.83751
16351.61982
16349.98814
16342.12033
16345.31663
16347.86473
16341.27096
16334.74425
16334.0737
16336.13006
16336.35358
16329.60335
16331.05622
16332.93376
16329.49159
16320.66266
16317.60047
16329.82687
16326.78703
16327.88227
16323.50133
16328.59753
16327.50229
16322.4508
16317.3546
16317.60047
16321.1991
16311.99018
16309.08445
16308.70447
16312.9513
16307.31866
16297.03686
16299.85318
16303.76474
16301.26134
16295.56165
16293.97467
16300.90371
16301.93189
16295.94163
16295.18167
16299.56261
16300.54609
16293.7288
16292.05242
16301.70838
16308.3692
16303.85414
16299.4732
16305.2623
16314.1583
16315.18648
16315.47705
16323.45662
16331.41384
16331.4809
16331.81618
16335.16894
16342.16503
16343.95317
16335.75008
16336.33123
16343.39438
16336.24182
16322.31668
16313.13012
16306.514
16300.85901
16293.14766
16287.8503
16288.34203
16294.24289
16295.27107
16284.54224
16288.45379
16288.07381
16280.42952
16277.83671
16279.13311
16277.50144
16281.74827
16307.83275
16367.53426
16433.31545
16469.81585
16527.05866
16586.29079
16673.5967
16757.81807
16781.1533
16759.85208
16637.81156
16430.11915
16305.2623
16299.98729
16327.18937
16328.37401
16329.26808
16330.34096
16331.74912
16332.97847
16325.33417
16322.04846
16327.36818
16332.33027
16331.19033
16330.8774
16338.02996
16345.76366
16348.24471
16343.88612
16347.35064
16356.11252
16360.60522
16356.02312
16358.95119
16371.62463
16382.04055
16384.47689
16393.30583
16409.06381
16421.58078
16424.71003
16433.82954
16450.23572
16466.46308
16474.24149
16483.47276
16495.52035
16509.80312
16518.72146
16520.21903
16525.87402
16531.26079
16527.72922
16522.92359
16522.67772
16524.01883
16515.34635
16499.70013
16486.95963
16480.05295
16468.00536
16448.51463
16432.13081
16422.72072
16410.69548
16391.89767
16370.88703
16364.98617
16358.3477
16345.69661
16331.90558
16325.22241
16323.56838
16313.5995
16304.59175
16301.03782
16301.3731
16296.79099
16290.21958
16289.54903
16292.45475
16293.0806
16289.86195
16291.42657
16295.89692
16300.65784
16297.59566
16296.07574
16304.63646
16305.95521
16301.88719
16300.09905
16306.4693
16311.11846
16306.22343
16303.56357
16307.31866
16314.02419
16315.07472
16309.97852
16312.34781
16316.16996
16314.73944
16307.43042
16307.18455
16314.53828
16312.48192
16302.93772
16299.71907
16303.63063
16302.26717
16293.34882
16289.75019
16295.40518
16297.21568
16291.71715
16288.18557
16290.10782
16292.20889
16288.63261
16284.34107
16286.82211
16291.06895
16288.5879
16283.04467
16284.56459
16290.30899
16289.95136
16284.60929
16284.67635
16289.05729
16291.56068
16288.99023
16292.65592
16303.273
16300.27786
16289.25845
16288.92318
16299.80848
16312.23605
16315.99114
16315.72292
16322.87548
16334.34192
16336.5771
16336.28653
16343.32732
16349.78698
16345.96483
16335.01248
16330.25155
16322.22728
16314.35946
16302.49069
16297.26038
16300.30022
16300.41198
16291.71715
16288.36439
16294.86874
16295.89692
16289.72784
16288.65496
16293.46058
16297.93093
16292.58886
16284.96692
16282.32941
16297.14862
16337.42646
16398.11145
16460.07049
16505.51158
16568.00706
16627.61916
16724.89395
16803.28152
16826.41558
16769.73155
16601.33351
16399.02787
16309.17386
16316.97462
16330.56448
16336.08536
16343.28262
16336.95708
16332.01734
16329.42454
16335.72773
16333.47021
16331.39149
16339.03579
16348.84821
16345.76366
16347.28358
16357.096
16365.25439
16367.9813
16368.40598
16373.90451
16386.77912
16390.55656
16386.93558
16392.12118
16405.19695
16414.65174
16421.33491
16429.11332
16445.27363
16454.57196
16458.57292
16469.59233
16486.44554
16501.15299
16510.13839
16517.24625
16528.95856
16544.51538
16548.78456
16543.71071
16549.03043
16551.8244
16542.48137
16531.43961
16528.1986
16524.44351
16515.27929
16499.47661
16489.82066
16483.09278
16475.73906
16459.53404
16444.2678
16437.7858
16429.73917
16414.09295
16400.83836
16397.66442
16392.3
16379.62656
16360.78404
16355.12905
16352.67035
16343.84141
16331.50325
16327.47994
16331.21268
16328.99986
16321.60143
16320.81912
16325.80356
16326.96585
16322.60726
16322.07082
16326.22824
16325.28947
16318.49454
16317.42165
16325.64709
16330.60918
16325.35652
16323.099
16327.21172
16333.22434
16331.59266
16328.15049
16331.90558
16338.85698
16334.05135
16328.41871
16327.97168
16333.91724
16327.07761
16318.62865
16317.01932
16322.33904
16322.51785
16314.62768
16310.3138
16315.58881
16316.61699
16308.74918
16307.34102
16309.68795
16307.54218
16303.69768
16301.77543
16306.24578
16310.09028
16304.79292
16300.61314
16309.68795
16314.69474
16316.16996
16308.4139
16313.33128
16321.95906
16322.56255
16327.61405
16332.37497
16333.00082
16341.62859
16344.08728
16347.17182
16345.36133
16352.91622
16343.86377
16341.6733
16343.86377
16337.80644
16318.24867
16307.34102
16301.3731
16301.50721
16299.49555
16293.6394
16296.36631
16302.17776
16295.74046
16288.20792
16288.29733
16291.11365
16284.83281
16279.42369
16280.87655
16278.21669
16277.25557
16288.81142
16338.99109
16418.94328
16477.75072
16529.31619
16588.59302
16664.29838
16752.78893
16783.00849
16781.8909
16693.60151
16489.99947
16317.68987
16283.78228
16318.38278
16331.27973
16330.69859
16331.16798
16331.32444
16331.07857
16328.70928
16326.76468
16328.55282
16331.16798
16333.55961
16330.27391
16336.5771
16344.35551
16352.53624
16351.3963
16349.11643
16355.93371
16364.51678
16365.63437
16368.38363
16376.13969
16391.24946
16398.55849
16402.73826
16419.92675
16434.27657
16443.26197
16444.42426
16459.24347
16476.00728
16486.22203
16488.59131
16500.68361
16518.81087
16522.65537
16520.19668
16519.54848
16524.93525
16527.32689
16516.75451
16503.70109
16503.58933
16498.6496
16487.98781
16474.80029
16467.84889
16459.48934
16444.44662
16427.39224
16415.70227
16408.88499
16395.31748
16376.54202
16363.77917
16358.77238
16348.49058
16334.6772
16326.76468
16326.80939
16319.47801
16304.88232
16300.43433
16302.64715
16303.9659
16292.52181
16288.76672
16287.2468
16289.21375
16283.42465
16280.74244
16285.97275
16288.40909
16286.39743
16284.40813
16288.78907
16293.43823
16288.31968
16284.0058
16289.10199
16296.96981
16294.80169
16287.42561
16287.35856
16296.52277
16298.55678
16294.39936
16292.05242
16297.79682
16299.83083
16293.43823
16290.62191
16297.5733
16300.54609
16293.52764
16288.96788
16292.74533
16296.9251
16289.52668
16280.18365
16284.49753
16293.99702
16293.75116
16289.39257
16291.04659
16295.89692
16301.93189
16298.35561
16299.4732
16309.73265
16311.23022
16305.28466
16310.04558
16322.89783
16327.65875
16321.95906
16319.65683
16321.33321
16321.15439
16312.19134
16294.9358
16288.47614
16287.2915
16272.76287
16262.05638
16263.15162
16267.30904
16265.54325
16258.83773
16259.6871
16264.71624
16262.77164
16253.27215
16251.86399
16256.80372
16256.06611
16240.68811
16237.51417
16265.34209
16318.44983
16389.50603
16449.67692
16515.27929
16565.2578
16616.55505
16679.18464
16697.44601
16698.18362
16602.58521
16391.89767
16255.17204
16252.10986
16284.36342
16287.00093
16295.56165
16307.98922
16308.34684
16299.49555
16294.57817
16295.36048
16293.23707
16287.06798
16289.54903
16299.49555
16306.80457
16306.73752
16308.65977
16318.96392
16325.87061
16323.54603
16321.55673
16331.61501
16340.71217
16344.35551
16346.47892
16357.94537
16369.45651
16371.89285
16371.60228
16384.63335
16403.43117
16413.10947
16417.62452
16427.72751
16445.29598
16455.8013
16459.22112
16467.44656
16478.62243
16484.99268
16480.1647
16473.92857
16476.36491
16475.15791
16464.00439
16451.48742
16444.42426
16437.8305
16426.83344
16411.85777
16402.35828
16394.31165
16379.91713
16361.36518
16349.83168
16344.9143
16332.91141
16314.89591
16304.27883
16301.21664
16295.09226
16283.84933
16278.01553
16283.84933
16284.38577
16273.63459
16264.67154
16266.1244
16271.19825
16267.55491
16264.93976
16270.6618
16276.67442
16274.84158
16273.07579
16279.51309
16287.895
16288.29733
16282.1506
16283.24584
16293.19236
16295.24872
16290.82308
16292.07477
16299.22733
16301.99895
16294.66758
16293.79586
16300.30022
16299.78613
16293.23707
16288.83377
16291.38187
16294.66758
16288.67731
16284.7434
16285.72688
16285.70453
16277.45673
16269.20894
16270.68416
16272.71816
16271.06413
16266.34792
16267.73373
16275.24391
16271.37706
16267.39845
16273.7687
16283.78228
16289.81725
16291.02424
16288.25263
16296.14279
16302.96007
16300.25551
16298.75795
16305.93286
16313.13012
16307.31866
16302.73656
16303.9212
16293.77351
16284.45283
16271.8688
16265.72207
16269.65598
16270.48299
16262.16814
16259.19536
16260.02237
16255.50732
16247.41599
16245.67255
16251.3946
16249.91938
16244.08558
16238.29648
16237.64828
16256.80372
16297.41684
16360.15819
16412.95301
16454.43785
16509.13257
16556.09358
16646.59579
16711.54996
16725.94449
16669.30517
16508.75259
16334.18546
16266.57143
16276.89794
16287.47032
16292.65592
16300.94842
16297.66271
16296.1875
16299.07087
16296.50042
16292.49946
16291.82891
16298.53443
16304.12237
16301.39545
16299.51791
16309.50914
16319.88034
16319.54507
16318.82981
16326.04943
16335.81714
16339.37107
16338.32053
16346.8589
16359.88997
16364.71794
16366.14846
16378.39721
16397.59736
16409.37673
16413.5118
16423.7936
16439.79745
16454.37079
16460.18224
16465.03257
16477.41544
16487.74195
16487.38432
16485.50677
16490.51356
16493.97808
16485.46207
16472.87804
16469.48057
16468.96648
16460.53987
16446.07829
16438.23283
16433.00252
16417.66923
16394.60223
16383.89574
16377.50314
16365.36614
16347.44005
16337.40411
16334.29722
16325.58004
16310.87259
16303.273
16303.67533
16301.70838
16294.9358
16289.75019
16292.36535
16296.2322
16289.70549
16282.8435
16283.35759
16286.0398
16285.86099
16281.16712
16283.64817
16287.51502
16288.09616
16282.8435
16282.7541
16289.41492
16295.47224
16292.65592
16294.30995
16301.64132
16305.46347
16301.39545
16299.24968
16302.87067
16307.43042
16304.54705
16299.74142
16300.41198
16302.28952
16299.4732
16291.60539
16292.61122
16295.87457
16291.89596
16285.68218
16284.67635
16290.4878
16291.94066
16288.36439
16291.27011
16300.21081
16297.26038
16287.62678
16291.33717
16298.98146
16304.63646
16303.63063
16304.88232
16315.67822
16328.55282
16329.04456
16322.74137
16329.64806
16336.95708
16329.69276
16317.80163
16316.57229
16310.64907
16297.12627
16285.57042
16277.14381
16281.05536
16280.27305
16269.52186
16266.23616
16270.72886
16270.72886
16263.73276
16259.39652
16262.72693
16261.65405
16254.70266
16250.07585
16246.41016
16252.42278
16278.68608
16334.31957
16396.70329
16430.00739
16474.80029
16527.5504
16601.8923
16695.63552
16729.23019
16713.8969
16613.64932
16427.25813
16291.136
16262.2799
16284.56459
16292.65592
16299.04852
16298.91441
16294.86874
16297.5733
16295.96398
16292.27594
16289.39257
16295.13696
16302.24482
16303.78709
16306.49165
16315.16413
16324.14953
16326.20589
16323.56838
16329.98333
16340.28749
16345.29428
16348.20001
16354.30203
16368.51774
16374.70917
16376.00558
16384.0075
16399.40785
16411.65661
16414.69644
16424.62062
16443.70901
16456.18128
16462.7527
16468.83237
16481.9752
16493.86632
16496.28031
16498.6943
16504.4387
16508.79729
16504.90809
16495.40859
16492.01113
16491.45234
16481.52816
16464.85376
16453.02969
16448.78286
16438.81398
16420.75377
16407.43213
16397.35149
16383.38165
16367.78013
16353.83264
16349.407
16343.48379
16331.34679
16320.5509
16319.07568
16317.82398
16307.8104
16300.18846
16301.4178
16302.46834
16297.5733
16291.20306
16292.16418
16298.2215
16296.67923
16291.47128
16291.56068
16298.2215
16300.43433
16295.36048
16294.42171
16297.84152
16301.44016
16302.64715
16301.46251
16305.12819
16308.07862
16301.77543
16298.08739
16304.30118
16307.92216
16303.07183
16297.19332
16299.83083
16304.88232
16300.36727
16291.98537
16294.68993
16300.032
16298.91441
16291.35952
16288.23027
16290.4878
16288.20792
16281.12242
16277.07675
16284.22931
16292.16418
16290.33134
16287.38091
16291.04659
16297.99799
16299.11557
16297.86388
16303.9212
16307.58689
16308.07862
16312.59368
16321.892
16328.70928
16332.06205
16327.74816
16326.51881
16328.10579
16321.55673
16302.0213
16293.05825
16294.22054
16286.95623
16277.92612
16276.65207
16282.21766
16283.37995
16273.00874
16267.75608
16271.9582
16276.00387
16272.27113
16265.63266
16269.3654
16268.98542
16254.90382
16250.76875
16283.91639
16347.19418
16407.99092
16435.97531
16488.92659
16554.79718
16624.57933
16709.65006
16750.03967
16749.97261
16652.09432
16454.10257
16306.75987
16283.96109
16310.73848
16307.29631
16311.11846
16321.892
16323.90366
16316.48288
16309.55384
16311.76666
16312.39251
16310.76083
16308.99505
16313.46539
16323.94836
16328.8881
16328.3293
16333.44785
16344.33315
16348.8035
16348.49058
16353.56442
16369.18829
16378.55367
16381.59351
16391.96472
16410.36021
16425.26882
16429.15802
16439.57394
16467.62538
16502.40469
16508.84199
16500.5495
16481.66227
16472.83333
16477.77307
16483.24925
16492.61463
16508.03733
16522.56596
16519.54848
16501.51062
16490.04418
16489.64184
16481.14818
16490.02182
16511.88183
16516.03925
16459.13171
16401.50892
16398.11145
16426.27465
16421.1114
16390.75773
16361.76751
16331.10092
16311.67725
16301.66367
16307.09515
16312.10194
16312.9513
16299.4285
16299.40615
16312.45957
16311.78901
16290.30899
16269.87949
16287.2915
16334.99012
16344.89195
16314.13595
16270.68416
16259.82121
16288.18557
16322.04846
16332.53143
16298.35561
16267.51021
16268.33722
16300.32257
16325.55769
16322.67431
16301.30605
16295.60635
16283.4917
16262.79399
16250.1429
16254.79206
16279.71426
16274.08162
16259.01654
16257.139
16262.90575
16267.57726
16266.97377
16257.22841
16233.26734
16221.17504
16233.02147
16251.19343
16260.08943
16249.96409
16235.56956
16229.53459
16231.65801
16244.57732
16244.28675
16224.4831
16237.67063
16265.67736
16246.11959
16207.83105
16224.59486
16249.15943
16257.94366
16259.75415
16269.49951
16280.09424
16284.47518
16260.9835
16238.05061
16233.64731
16252.60159
16260.55882
16258.01072
16253.78624
16251.05932
16226.33829
16193.86121
16189.2344
16222.5832
16253.45096
16240.91163
16238.6094
16237.11184
16240.19638
16246.09724
16244.86789
16238.74351
16205.50647
16187.938
16226.60652
16318.76276
16377.6149
16382.84521
16462.41742
16537.02754
16638.07978
16714.27688
16754.2865
16725.89978
16558.41816
16307.58689
16200.58908
16259.86591
16302.22247
16290.5325
16257.04959
16239.92815
16267.39845
16302.75891
16274.4616
16240.93398
16248.35476
16266.88436
16263.88922
16269.54422
16290.82308
16288.52085
16267.97959
16266.63849
16271.33236
16277.90377
16310.80554
16346.8589
16331.10092
16294.26525
16280.13894
16308.68212
16355.77725
16363.57801
16334.69955
16323.32251
16367.55662
16392.3894
16416.93162
16428.06279
16383.04637
16357.76655
16373.01044
16373.52453
16387.13674
16417.3116
16442.59142
16458.28235
16451.44271
16435.55062
16409.91317
16392.45646
16421.55843
16434.14246
16457.58944
16419.47972
16307.721
16242.14098
16240.12932
16255.48497
16278.61902
16292.4324
16274.95334
16268.31487
16305.01643
16288.52085
16251.95339
16235.88249
16221.91265
16230.85335
16276.07093
16280.76479
16217.12938
16172.18002
16190.79902
16193.70475
16197.45984
16196.45401
16216.23531
16229.44519
16228.08173
16249.62881
16276.85324
16290.59956
16283.53641
16252.40043
16240.71047
16258.56951
16275.28861
16273.45577
16286.24097
16298.35561
16270.08066
16231.81447
16238.07296
16237.9165
16236.0613
16249.69587
16245.35963
16245.31493
16277.07675
16302.51304
16270.50534
16237.13419
16258.59186
16295.18167
16283.13408
16243.32562
16219.47631
16234.96607
16246.83484
16241.44807
16243.37032
16262.2352
16267.21963
16250.12055
16253.24979
16286.28567
16301.3731
16304.92703
16293.32647
16260.87174
16211.51909
16209.21686
16221.26445
16216.8388
16217.77758
16229.91457
16241.51513
16234.45198
16216.01179
16198.84565
16207.67459
16218.98457
16221.77854
16224.55015
16220.6386
16215.00596
16212.16729
16190.17317
16210.89324
16249.29354
16271.24295
16331.16798
16391.47298
16479.60591
16525.51639
16570.10812
16600.17122
16642.12544
16629.00497
16480.09765
16282.28471
16231.63566
16265.27503
16271.89115
16275.08745
16283.78228
16275.73565
16250.90286
16227.32177
16224.50545
16245.82902
16252.48984
16253.65213
16262.10109
16270.10301
16264.2692
16252.26632
16251.75223
16250.45583
16250.1429
16248.1983
16256.11082
16267.4208
16272.67346
16267.95724
16274.5063
16294.06408
16302.13306
16304.41294
16312.63838
16330.89975
16356.64896
16368.60715
16376.20674
16385.32625
16398.29026
16399.3855
16399.25139
16411.05311
16423.77125
16419.8597
16409.80141
16409.28732
16414.87526
16414.51763
16401.64303
16389.17075
16386.37678
16377.03376
16362.39336
16339.70634
16330.27391
16323.05429
16310.42556
16295.33813
16292.45475
16287.78324
16273.50048
16258.97184
16252.62395
16251.75223
16247.39364
16234.94372
16224.46075
16225.7795
16219.61042
16208.76982
16201.86313
16212.16729
16218.31402
16214.49187
16210.80383
16215.02831
16220.37038
16219.00692
16211.67555
16214.80479
16223.54433
16219.47631
16211.51909
16219.25279
16228.12643
16225.7795
16224.84073
16227.6347
16231.36744
16227.34412
16228.52877
16232.26151
16232.66384
16228.88639
16226.18183
16227.7241
16237.78239
16235.99425
16220.72801
16210.37915
16230.69688
16237.02243
16226.62887
16209.95447
16212.03318
16216.41412
16212.63667
16214.87185
16239.8164
16262.77164
16249.85233
16231.32273
16231.45684
16242.38685
16241.1575
16243.30327
16253.11568
16260.20119
16253.36155
16241.35867
16230.24985
16234.13905
16239.32466
16223.36551
16210.06622
16211.005
16214.67068
16212.32375
16210.58031
16212.59197
16210.75913
16196.76694
16195.38113
16210.4015
16222.38204
16216.05649
16202.44428
16206.04291
16239.1682
16296.79099
16342.90264
16383.64987
16453.58848
16506.78563
16570.10812
16622.97
16653.21191
16631.97775
16489.37362
16299.16028
16223.07494
16238.85527
16251.23814
16240.86693
16254.25562
16254.76971
16240.59871
16238.63175
16266.83966
16294.3323
16283.71522
16251.14873
16228.57347
16241.09045
16240.91163
16234.58609
16238.5647
16252.84746
16260.22354
16262.07873
16270.34888
16281.10007
16290.66661
16291.42657
16297.12627
16313.28658
16323.8366
16325.98237
16347.64121
16374.44095
16380.94531
16367.28839
16369.21064
16384.611
16403.11824
16415.05407
16422.87718
16433.42721
16444.44662
16448.00054
16438.34459
16432.33197
16429.47095
16424.21829
16412.97536
16401.62067
16395.22808
16387.40496
16375.42443
16364.06974
16369.59062
16369.56827
16342.16503
16314.51593
16295.85222
16289.70549
16281.81532
16263.82217
16255.75319
16261.20702
16265.02916
16260.02237
16257.40722
16259.32947
16252.37808
16234.22846
16232.48502
16238.27413
16237.9612
16233.5132
16234.22846
16236.95537
16235.16723
16233.66967
16241.24691
16247.81832
16246.67838
16235.39075
16235.01077
16239.92815
16243.99617
16237.51417
16232.97676
16236.39658
16242.27509
16241.96216
16236.95537
16240.12932
16243.28092
16243.45973
16237.40241
16236.59775
16240.59871
16240.4646
16236.35188
16240.59871
16251.03697
16252.93687
16243.61619
16240.12932
16245.96313
16249.78527
16251.12638
16248.22065
16248.69004
16256.37904
16259.01654
16260.11178
16264.35861
16271.2653
16272.15937
16262.34695
16259.15066
16256.75902
16240.91163
16228.81934
16220.12451
16217.64347
16216.21295
16207.89811
16204.6571
16209.90976
16212.63667
16205.17119
16200.03029
16200.1644
16201.72902
16197.72806
16191.24606
16189.16734
16191.02254
16210.62502
16260.02237
16322.78607
16359.0406
16402.17947
16459.75756
16530.72435
16637.02925
16692.26041
16703.12336
16625.42869
16443.6196
16276.60737
16222.42674
16245.69491
16258.83773
16268.31487
16267.68902
16256.69196
16258.21188
16259.70945
16254.12151
16251.32754
16259.44123
16265.5209
16266.50438
16263.93393
16272.02526
16283.78228
16288.02911
16284.7434
16289.54903
16298.57913
16301.84249
16298.66854
16304.50234
16316.61699
16324.75303
16324.93184
16333.67137
16349.04937
16361.90162
16369.68003
16380.52063
16399.07258
16418.27272
16426.07348
16432.22021
16442.14439
16449.85574
16447.88879
16439.0822
16440.80328
16445.76537
16439.61864
16427.74986
16426.45346
16427.52635
16419.05504
16403.8782
16393.41758
16388.67901
16376.56437
16360.85109
16346.92596
16337.85115
16328.10579
16311.45374
16299.62966
16296.8357
16293.34882
16282.28471
16269.34305
16266.48203
16268.20311
16262.70458
16254.68031
16255.39556
16261.34113
16255.61908
16243.23621
16243.39268
16248.22065
16249.74057
16242.72212
16243.07975
16249.36059
16247.5948
16240.24108
16237.38006
16246.11959
16249.62881
16244.77848
16242.02922
16244.80084
16248.73474
16246.96895
16249.07002
16255.12734
16261.78816
16256.78137
16247.21482
16249.07002
16255.2391
16252.75806
16249.87468
16254.41209
16261.27407
16260.60352
16254.52384
16259.75415
16270.19242
16273.7687
16275.66859
16273.72399
16275.78035
16282.1059
16281.65886
16283.17878
16291.27011
16295.96398
16291.65009
16278.70843
16278.37316
16277.45673
16260.84939
16250.45583
16245.76196
16246.14194
16243.28092
16234.00494
16233.93789
16238.69881
16237.22359
16227.94762
16225.04189
16230.00398
16231.09922
16224.50545
16218.89516
16212.50256
16213.44134
16227.50059
16266.05734
16335.16894
16387.65083
16439.81981
16493.88868
16564.16256
16650.12737
16672.03208
16669.104
16584.25678
16389.90836
16236.0613
16203.13718
16234.04965
16253.92035
16262.45871
16260.4247
16259.6871
16261.60935
16259.1283
16254.90382
16250.07585
16254.61325
16258.45775
16253.65213
16254.45679
16265.40914
16272.29348
16271.31
16268.24782
16270.63945
16278.23904
16282.08354
16278.9543
16286.82211
16296.14279
16300.36727
16299.16028
16308.21273
16327.99403
16339.1699
16348.62469
16364.15915
16379.82772
16391.07065
16395.38454
16404.99579
16415.12113
16422.36309
16422.47485
16421.33491
16424.33005
16426.09583
16415.72463
16403.85585
16396.03274
16390.17658
16376.16204
16357.96772
16349.63052
16348.62469
16337.64998
16321.42262
16308.10098
16302.82596
16294.3323
16277.18851
16267.55491
16264.04569
16258.79303
16245.15846
16238.36353
16240.84458
16239.77169
16228.23819
16218.22461
16218.7834
16220.70565
16215.00596
16211.38498
16215.67651
16226.00302
16226.51711
16220.90682
16223.67844
16231.05451
16230.38396
16223.61138
16224.88543
16234.1167
16235.21194
16229.06521
16226.45005
16232.50738
16236.08365
16233.28969
16231.34509
16236.57539
16241.38102
16236.0166
16230.98746
16234.1167
16238.14002
16239.03409
16239.12349
16246.27605
16256.55785
16253.2945
16241.93981
16246.83484
16258.45775
16260.87174
16259.79886
16261.13996
16264.33626
16266.03499
16262.41401
16264.51507
16270.63945
16273.50048
16265.38679
16258.12247
16261.47524
16258.34599
16238.18472
16224.61721
16221.17504
16218.22461
16215.27418
16210.73678
16210.91559
16213.93308
16208.43455
16200.87966
16202.64545
16207.51813
16205.72999
16196.43166
16192.96714
16195.87287
16190.50845
16187.55802
16210.31209
16269.76773
16349.07172
16403.58763
16468.13947
16507.635
16573.41618
16602.62991
16610.833
16589.48709
16455.04134
16256.13317
16173.2082
16202.77956
16234.98842
16239.45877
16243.0574
16244.84554
16246.45486
16242.14098
16235.68132
16235.45781
16243.99617
16248.01949
16244.04088
16244.68908
16251.10403
16254.99323
16252.31102
16253.60742
16264.828
16271.68998
16270.03595
16271.75704
16280.42952
16291.67244
16293.05825
16296.14279
16308.59271
16324.70832
16334.96777
16339.59458
16351.59747
16369.99296
16381.74997
16384.14161
16390.53421
16401.46421
16407.27567
16404.14642
16405.53223
16411.83542
16412.08129
16401.68773
16391.56239
16389.50603
16385.14744
16372.89868
16359.77821
16354.03381
16347.86473
16334.65485
16317.64517
16311.31963
16306.49165
16294.84639
16280.72009
16271.46647
16268.82896
16261.25172
16246.74544
16239.45877
16238.76586
16233.08852
16222.11381
16213.97778
16214.08954
16212.65903
16205.03708
16200.99142
16207.1605
16212.45786
16211.07205
16210.69207
16218.53754
16225.80185
16227.61234
16223.72314
16226.4277
16234.20611
16232.865
16225.51128
16227.45588
16236.15071
16240.4646
16236.55304
16236.28482
16245.15846
16246.54427
16239.70464
16237.313
16240.95634
16241.761
16234.00494
16229.28872
16232.08269
16236.48599
16231.14392
16223.8349
16227.79116
16236.68715
16235.45781
16228.39465
16228.75228
16239.03409
16241.761
16240.41989
16246.34311
16250.16525
16249.15943
16245.78431
16248.86885
16258.92714
16264.38096
16259.15066
16252.44513
16255.06029
16257.67544
16244.3091
16229.84752
16227.52294
16223.49962
16216.01179
16212.9943
16216.50353
16218.33637
16209.01569
16199.62796
16201.86313
16206.17702
16203.53951
16196.9234
16195.29172
16195.53759
16189.74849
16189.50262
16220.57154
16283.96109
16341.38272
16363.30978
16418.27272
16482.19871
16562.7544
16642.46072
16674.22255
16665.37126
16552.60671
16349.42935
16222.13617
16214.17895
16241.09045
16237.40241
16236.59775
16243.68325
16248.08654
16244.71143
16238.05061
16237.08948
16244.93495
16248.46652
16247.66186
16250.47818
16262.41401
16267.68902
16267.44315
16270.52769
16279.89307
16286.75506
16288.07381
16290.51015
16300.56844
16310.04558
16312.10194
16313.33128
16324.66362
16337.13589
16345.07076
16351.50806
16365.41085
16383.98515
16396.47977
16398.40202
16410.06963
16423.50303
16427.28048
16424.82179
16425.73821
16433.2931
16433.22604
16422.87718
16415.32229
16414.83056
16410.51667
16396.50212
16382.97932
16378.71014
16371.71404
16357.23011
16341.78505
16329.82687
16323.85896
16309.73265
16291.0913
16284.63164
16281.27888
16269.20894
16250.88051
16242.83388
16244.26439
16239.34701
16228.43936
16224.95249
16229.28872
16231.94858
16225.7348
16223.27611
16230.58513
16235.16723
16230.09339
16226.76298
16232.93206
16239.68229
16237.29065
16231.07686
16234.18376
16241.09045
16237.84944
16233.98259
16235.56956
16243.88441
16243.12445
16235.94954
16234.1614
16242.74447
16246.58897
16240.12932
16237.22359
16242.34214
16243.6609
16236.97772
16232.865
16235.05547
16237.49181
16235.54721
16230.94275
16232.23915
16239.8611
16238.22942
16230.8757
16234.31787
16229.42284
16214.42481
16205.50647
16205.17119
16218.53754
16227.21001
16223.49962
16223.49962
16231.94858
16233.08852
16228.48406
16229.46754
16237.40241
16239.45877
16232.14975
16228.68523
16225.28776
16222.98553
16214.73774
16203.316
16200.96906
16207.18285
16203.3607
16198.89035
16199.53855
16202.57839
16196.43166
16190.17317
16192.45305
16198.39861
16197.07986
16185.83693
16176.82918
16186.44043
16222.38204
16276.76383
16328.19519
16357.27481
16412.75184
16466.61955
16540.20149
16633.2071
16668.32169
16648.51804
16536.35699
16351.77628
16231.21097
16213.5531
16233.44615
16241.17985
16255.1944
16257.47427
16248.46652
16246.38781
16250.27701
16251.14873
16247.03601
16249.04767
16258.34599
16265.58796
16265.18563
16265.54325
16273.83575
16279.46839
16278.79784
16280.38481
16290.55486
16299.80848
16304.85997
16307.47513
16316.86286
16326.09413
16329.11162
16331.54796
16343.57319
16361.05226
16371.91521
16379.69361
16395.04926
16416.12696
16424.73238
16426.85579
16433.9413
16446.83825
16450.81686
16448.24641
16445.05011
16442.65848
16441.76441
16434.14246
16423.92772
16420.41849
16411.18722
16392.90349
16377.43609
16374.08333
16369.94825
16355.30786
16337.15824
16325.40123
16319.9474
16309.77736
16295.69576
16287.64913
16284.7434
16277.50144
16265.78912
16259.01654
16260.15648
16257.8319
16250.96992
16248.48887
16252.26632
16251.84163
16246.23135
16239.74934
16243.14681
16245.6055
16242.61036
16239.9058
16245.27022
16253.09333
16253.09333
16250.29936
16255.06029
16264.02334
16266.01264
16259.35182
16257.63074
16262.2799
16263.95628
16258.97184
16256.64726
16260.4247
16261.56464
16255.2838
16250.83581
16256.35669
16258.83773
16254.00975
16246.56662
16251.30519
16255.55202
16252.71335
16247.72891
16251.77458
16256.96018
16254.76971
16252.6463
16258.99419
16266.7726
16264.31391
16255.68613
16256.24493
16266.1691
16269.41011
16270.05831
16275.31097
16281.5471
16286.91152
16288.94553
16289.97371
16297.64036
16303.60827
16299.58496
16289.7949
16292.74533
16292.54416
16274.39454
16263.66571
16263.79982
16259.7318
16257.1837
16252.46748
16253.9874
16260.46941
16257.58603
16251.10403
16248.86885
16251.50636
16250.25466
16244.17499
16239.72699
16239.27995
16234.00494
16241.1575
16280.31776
16349.00467
16403.43117
16434.70126
16494.2016
16558.9099
16653.74835
16714.96978
16730.88422
16690.67343
16536.5358
16339.97456
16251.23814
16268.65015
16291.27011
16292.56651
16294.26525
16295.36048
16296.47807
16295.89692
16292.9912
16292.65592
16301.73073
16305.23995
16301.12723
16301.86484
16311.27492
16319.50037
16315.54411
16311.6549
16316.77345
16322.74137
16322.67431
16321.95906
16331.34679
16342.74618
16347.10477
16353.855
16365.29909
16379.96183
16386.13092
16386.73441
16395.69746
16412.41657
16423.32422
16429.22508
16439.43983
16452.80617
16462.10449
16460.98691
16459.57875
16466.91012
16470.12877
16463.93734
16454.10257
16449.92279
16448.17936
16433.06958
16415.34465
16402.5818
16394.75869
16382.46523
16366.52844
16357.02894
16350.6587
16338.29818
16320.28268
16310.67143
16305.35171
16298.51208
16284.72105
16275.8027
16274.55101
16269.58892
16262.05638
16258.70362
16260.24589
16259.7765
16252.78041
16245.85137
16247.5054
16254.61325
16257.7872
16249.91938
16254.47914
16256.96018
16253.09333
16249.04767
16253.00393
16262.48107
16263.93393
16260.62587
16259.19536
16266.28086
16269.18659
16263.93393
16263.12927
16266.95141
16268.42663
16262.77164
16256.28963
16261.76581
16267.17493
16262.36931
16254.23327
16257.40722
16258.77068
16256.22258
16250.41112
16254.05446
16261.85522
16262.12344
16257.00489
16262.50342
16269.18659
16269.9689
16263.37513
16259.64239
16271.19825
16278.70843
16280.07189
16285.03398
16285.59277
16289.8843
16292.67827
16293.79586
16299.65202
16306.40224
16304.85997
16298.55678
16298.91441
16300.54609
16282.03884
16270.19242
16266.57143
16268.0243
16266.23616
16259.1283
16256.69196
16261.98933
16257.58603
16247.97478
16246.34311
16248.243
16251.08168
16241.31396
16239.52582
16242.72212
16238.67646
16235.16723
16252.44513
16301.61897
16384.07455
16438.50105
16491.25117
16536.11112
16595.3656
16647.73573
16657.79402
16655.13416
16555.62419
16348.53528
16220.48214
16226.29359
16267.86784
16279.6025
16284.22931
16288.29733
16289.2361
16285.07868
16278.41786
16276.33915
16285.63747
16295.15932
16291.42657
16289.75019
16296.54512
16308.14568
16310.20204
16307.05044
16313.10777
16322.94253
16325.0883
16324.52951
16333.49256
16344.19904
16348.1106
16349.22819
16361.78987
16375.0668
16387.09204
16391.78591
16402.02301
16421.17845
16434.61185
16437.7858
16445.4748
16460.51752
16471.11225
16471.04519
16468.94413
16472.27454
16473.32507
16463.4456
16453.32026
16449.9675
16447.12883
16436.62351
16419.52442
16409.93552
16408.57207
16399.22904
16382.86756
16373.01044
16370.03766
16360.04643
16342.65677
16331.16798
16328.08344
16322.27198
16309.91147
16301.84249
16301.55191
16300.41198
16287.78324
16278.70843
16280.27305
16280.13894
16271.71234
16264.828
16269.56657
16276.89794
16275.69095
16269.83479
16269.47716
16274.14868
16272.27113
16266.66084
16267.80078
16272.87463
16272.42759
16265.85618
16265.14092
16272.44994
16276.45091
16272.49465
16272.44994
16277.25557
16279.04371
16274.39454
16267.89019
16268.96307
16271.19825
16265.07387
16260.75998
16264.13509
16270.14771
16268.53839
16265.83383
16268.27017
16274.32749
16272.18172
16270.93002
16276.18268
16285.45866
16287.44796
16277.03205
16277.56849
16287.82794
16292.343
16293.05825
16294.77934
16300.38962
16309.12916
16310.51496
16309.33032
16313.82302
16319.96975
16315.29824
16305.53052
16307.09515
16305.73169
16291.51598
16278.55197
16272.5617
16274.61806
16272.94168
16264.71624
16262.72693
16268.29252
16268.7172
16261.16231
16257.02724
16260.55882
16260.13413
16253.00393
16247.28188
16247.34893
16243.45973
16251.70752
16286.75506
16356.15723
16428.01808
16474.26384
16525.27052
16568.31998
16646.48403
16677.3965
16681.9339
16629.74258
16464.42908
16289.37021
16238.67646
16265.99029
16284.56459
16288.92318
16290.28664
16287.47032
16287.51502
16287.20209
16282.06119
16281.5024
16289.45962
16299.20498
16301.01547
16300.59079
16309.0621
16320.14857
16319.52272
16315.27589
16322.11552
16334.74425
16338.49935
16338.78992
16344.64608
16357.36422
16366.28257
16368.5848
16375.96087
16390.24364
16402.93943
16406.56041
16415.16583
16432.13081
16442.77024
16445.60891
16451.35331
16464.47378
16472.4757
16473.10155
16471.51458
16475.09086
16476.63313
16468.87707
16458.61762
16453.54378
16451.71093
16439.05985
16420.41849
16408.57207
16401.75478
16389.61779
16371.42347
16358.9959
16354.95023
16347.77532
16332.26321
16320.75206
16321.10969
16320.95323
16310.20204
16301.14958
16298.33326
16298.44502
16292.3877
16285.65982
16284.38577
16285.54807
16281.05536
16273.83575
16277.07675
16284.0058
16285.61512
16283.22348
16286.21862
16295.33813
16298.37797
16293.79586
16294.57817
16304.07766
16306.55871
16298.91441
16296.1875
16303.273
16306.44695
16300.0767
16294.55582
16298.28856
16299.92024
16293.21471
16285.01162
16286.15156
16290.82308
16288.65496
16283.33524
16286.5986
16290.82308
16287.13504
16281.48005
16282.77645
16285.3469
16280.42952
16271.24295
16265.67736
16271.10884
16274.43925
16270.32653
16271.71234
16273.45577
16276.56266
16276.78618
16276.4062
16284.96692
16292.11948
16288.34203
16283.17878
16291.04659
16301.95425
16300.1214
16297.70741
16300.50138
16303.09418
16298.98146
16287.87265
16274.57336
16271.08649
16264.06804
16252.0428
16248.13125
16252.42278
16252.60159
16248.75709
16247.86302
16252.13221
16253.62977
16245.09141
16238.22942
16239.52582
16245.33728
16237.40241
16224.68427
16239.39171
16285.41395
16344.57902
16386.75676
16409.30967
16466.32897
16516.24042
16595.3656
16675.34014
16707.41489
16677.82118
16541.38613
16353.92205
16261.98933
16270.75121
16289.1914
16288.43144
16298.75795
16302.26717
16292.76768
16283.84933
16287.09034
16292.00772
16288.14087
16285.12338
16289.66079
16295.44989
16297.26038
16294.77934
16301.01547
16311.72196
16313.91243
16311.5655
16317.48871
16332.21851
16339.39342
16340.71217
16348.31176
16359.35353
16367.28839
16369.61298
16379.29128
16394.11049
16408.50501
16416.19401
16424.86649
16441.16091
16455.28721
16460.294
16460.83045
16467.62538
16474.15209
16474.50971
16468.69826
16468.74296
16470.50875
16462.73034
16447.08412
16437.71874
16433.53897
16420.53025
16403.81115
16391.0483
16385.2592
16376.05028
16357.20776
16344.55667
16339.88516
16332.03969
16318.15926
16304.63646
16299.83083
16297.32743
16288.23027
16277.94847
16274.95334
16275.89211
16270.55004
16265.61031
16267.71137
16272.42759
16269.65598
16263.15162
16264.62683
16273.99221
16274.23808
16268.65015
16269.20894
16275.62389
16277.38968
16272.67346
16268.18076
16273.34401
16276.80853
16270.86297
16265.25268
16272.02526
16280.206
16277.7026
16273.38872
16275.02039
16279.6025
16275.8027
16269.85714
16268.29252
16273.56753
16270.93002
16265.58796
16265.00681
16270.34888
16272.49465
16268.87366
16266.45968
16265.74442
16264.85035
16257.85425
16255.44027
16260.51411
16264.29156
16262.41401
16260.15648
16265.63266
16270.59475
16266.63849
16259.75415
16263.621
16271.64528
16272.60641
16273.32166
16278.48491
16284.56459
16290.68897
16288.36439
16289.30316
16299.87553
16306.37989
16300.6802
16296.36631
16298.71324
16286.0398
16266.1244
16254.21092
16251.30519
16251.64047
16248.8018
16242.31979
16245.44904
16248.37711
16242.47625
16238.0059
16240.64341
16246.45486
16247.5054
16243.63854
16241.47043
16240.4646
16243.88441
16270.77356
16331.19033
16397.10562
16421.53608
16461.72452
16515.56987
16588.54831
16681.3304
16715.57328
16705.0009
16614.09636
16432.13081
16286.37508
16258.21188
16290.19723
16298.42267
16300.83666
16302.0213
16300.50138
16303.25065
16299.04852
16291.67244
16293.12531
16302.066
16303.49652
16298.84735
16300.25551
16312.12429
16322.16022
16325.26712
16328.68693
16338.72287
16345.87542
16345.98718
16347.95414
16357.096
16367.35545
16370.84232
16373.03279
16385.39331
16398.96082
16405.42047
16411.03076
16424.86649
16439.79745
16449.52046
16455.64484
16464.54083
16478.53303
16486.73612
16486.57966
16489.15011
16493.53105
16490.60297
16480.49998
16473.99562
16472.22984
16467.55832
16456.62832
16443.5302
16437.04819
16433.9413
16418.36213
16399.89959
16388.94724
16380.99001
16364.7403
16348.7588
16340.98039
16335.59362
16325.24476
16313.91243
16309.21856
16307.96687
16302.89302
16292.14183
16287.76089
16289.54903
16287.91735
16278.3061
16274.34984
16279.31193
16282.7988
16277.94847
16274.64041
16279.40134
16284.67635
16282.1059
16280.29541
16285.81629
16292.343
16290.15252
16285.52571
16287.80559
16293.99702
16292.94649
16291.20306
16294.377
16298.48973
16299.92024
16294.10878
16292.79003
16296.47807
16296.2322
16290.93484
16285.90569
16290.5325
16291.98537
16284.20696
16278.50727
16282.82115
16285.05633
16279.33428
16274.17103
16276.00387
16281.86003
16275.24391
16272.49465
16275.8027
16278.52962
16282.53058
16278.68608
16282.17295
16291.60539
16289.54903
16286.24097
16291.38187
16298.26621
16307.09515
16307.87746
16305.53052
16314.73944
16323.94836
16324.57421
16322.80842
16332.01734
16337.38176
16329.37984
16321.51202
16317.51106
16310.3138
16304.88232
16289.81725
16282.97761
16289.10199
16290.66661
16285.41395
16285.16809
16289.97371
16290.08547
16281.81532
16278.52962
16279.80367
16279.20017
16274.95334
16268.13606
16266.7279
16285.36925
16325.28947
16388.43315
16442.61377
16480.34352
16531.59607
16583.25095
16677.01652
16737.47799
16751.49253
16685.51018
16513.33469
16333.78313
16272.11467
16292.61122
16310.47026
16322.11552
16332.28556
16325.84826
16319.70153
16321.55673
16322.78607
16318.09221
16318.42748
16323.16605
16327.43523
16321.98141
16320.48384
16330.8327
16342.12033
16339.84045
16337.71704
16343.52849
16356.00076
16358.61592
16358.50416
16366.48373
16381.30294
16386.35443
16387.8967
16399.45256
16412.64008
16425.31352
16431.21438
16440.02097
16457.12006
16471.24636
16477.12487
16482.6681
16497.24144
16498.89547
16495.498
16493.37459
16495.34154
16498.20256
16489.44068
16471.51458
16466.39603
16463.71382
16448.26877
16435.19299
16427.90633
16420.39614
16405.21931
16389.26016
16376.20674
16372.02696
16364.96381
16348.26706
16334.85601
16332.84436
16326.69763
16312.88425
16298.75795
16298.19915
16296.47807
16284.85516
16276.29444
16279.31193
16284.60929
16281.48005
16275.82506
16277.52379
16284.58694
16284.67635
16275.78035
16274.72982
16281.88238
16286.33038
16283.04467
16284.40813
16291.89596
16292.14183
16287.17974
16282.86586
16288.83377
16292.27594
16287.80559
16283.33524
16287.60443
16287.00093
16281.5471
16276.62972
16283.26819
16285.3469
16279.98248
16274.4616
16276.56266
16281.63651
16280.63068
16273.14285
16272.98638
16277.90377
16275.02039
16266.99612
16265.38679
16271.33236
16272.44994
16263.19632
16261.72111
16271.06413
16278.59667
16276.24974
16276.85324
16281.32359
16285.36925
16284.29637
16283.08937
16292.49946
16301.59662
16298.42267
16301.06018
16308.34684
16316.01349
16314.91826
16311.83372
16314.35946
16320.01446
16319.72388
16300.7249
16289.01259
16291.22541
16284.56459
16275.28861
16272.04761
16278.14964
16280.09424
16272.67346
16269.25364
16272.53935
16274.88628
16268.49368
16258.50245
16259.41888
16262.25755
16251.95339
16241.24691
16250.88051
16288.36439
16350.41283
16428.55453
16487.56313
16548.65045
16572.83504
16625.49575
16648.36158
16665.2595
16631.19544
16476.14139
16278.9543
16220.45979
16255.32851
16280.36246
16287.69383
16303.20594
16309.35267
16301.95425
16293.05825
16295.82987
16299.96494
16296.09809
16291.27011
16297.37214
16310.11263
16311.54314
16309.26327
16312.9066
16322.16022
16327.97168
16324.41775
16327.05525
16337.04648
16343.86377
16341.27096
16345.54015
16359.91232
16372.45165
16379.93948
16389.28251
16404.86168
16419.79264
16427.72751
16433.89659
16446.05594
16461.5457
16468.29593
16467.96065
16472.49806
16477.68366
16474.59912
16464.65259
16461.90333
16464.18321
16457.36592
16441.51854
16430.02974
16426.56522
16418.42919
16403.38646
16389.57308
16384.52159
16380.61003
16364.87441
16349.69757
16342.92499
16338.38759
16325.133
16313.04071
16306.64811
16302.24482
16294.06408
16284.22931
16282.66469
16286.06216
16281.48005
16274.59571
16273.99221
16280.02718
16282.93291
16279.98248
16281.43534
16291.06895
16294.01938
16288.40909
16286.41978
16294.84639
16300.27786
16297.34979
16293.75116
16298.1321
16301.3284
16296.56748
16291.40422
16296.14279
16302.69185
16301.95425
16298.98146
16298.98146
16303.09418
16301.28369
16295.80752
16295.09226
16301.3731
16298.42267
16291.20306
16288.78907
16292.83473
16291.94066
16285.72688
16282.95526
16287.35856
16288.85612
16285.68218
16286.688
16291.38187
16294.08643
16287.06798
16283.37995
16292.47711
16301.4178
16302.11071
16297.86388
16295.78516
16306.31284
16312.43721
16307.69864
16305.75404
16313.73362
16313.89008
16304.79292
16300.43433
16296.67923
16286.39743
16276.60737
16267.51021
16265.56561
16266.41497
16259.70945
16254.65795
16253.9427
16254.72501
16251.30519
16246.09724
16247.72891
16249.58411
16246.16429
16239.95051
16235.83779
16236.21777
16243.54914
16272.00291
16336.68886
16414.85291
16461.81392
16509.75841
16547.06348
16624.04288
16669.17106
16678.98347
16640.62788
16496.66029
16312.39251
16240.08462
16256.5355
16283.33524
16295.85222
16303.29535
16300.54609
16302.04365
16306.98339
16306.15637
16301.64132
16304.5247
16312.9066
16313.71126
16310.93965
16315.63351
16325.64709
16330.31861
16325.0883
16326.69763
16340.86863
16348.60234
16347.32829
16348.98232
16357.25246
16366.59549
16370.12707
16372.33989
16380.27476
16393.30583
16401.91125
16407.09685
16419.83735
16433.9413
16440.55741
16441.69735
16448.73815
16460.09284
16464.42908
16459.86932
16458.68468
16462.68564
16459.35523
16448.89461
16442.72553
16439.61864
16431.41555
16415.00937
16401.12894
16396.97151
16391.40593
16376.87729
16362.01338
16354.5032
16348.1553
16335.34775
16321.93671
16317.13108
16314.24771
16308.77153
16300.7696
16297.86388
16296.29925
16291.0913
16284.0505
16283.26819
16286.57625
16284.38577
16277.30027
16275.42273
16277.21086
16280.29541
16279.73661
16279.6472
16284.7434
16290.08547
16288.07381
16283.26819
16284.34107
16292.11948
16291.58304
16284.78811
16287.20209
16291.7395
16288.74436
16282.12825
16282.50823
16288.25263
16287.22445
16281.92708
16278.37316
16281.65886
16280.45187
16275.57919
16275.31097
16281.72592
16282.21766
16277.63555
16276.56266
16275.95917
16275.78035
16271.2206
16267.33139
16270.63945
16273.09814
16266.43732
16261.34113
16267.44315
16275.62389
16280.83185
16281.83768
16279.96013
16290.91248
16299.78613
16302.17776
16302.46834
16312.61603
16313.28658
16303.25065
16301.99895
16301.59662
16287.26915
16278.64138
16271.17589
16267.86784
16268.62779
16266.14675
16262.21284
16264.2692
16264.85035
16260.02237
16252.46748
16258.12247
16265.5209
16263.5316
16254.79206
16255.77554
16254.94853
16264.15745
16295.04756
16360.35935
16426.63228
16445.29598
16483.49511
16526.76809
16607.25672
16686.49366
16705.71616
16677.24004
16563.89434
16383.60517
16279.98248
16276.02622
16301.59662
16307.36337
16310.67143
16310.69378
16307.18455
16310.11263
16307.38572
16300.47903
16302.13306
16314.02419
16317.93574
16316.43818
16317.19814
16327.6811
16334.58779
16335.79479
16335.9289
16343.34968
16350.61399
16347.44005
16351.08338
16362.1922
16372.5187
16371.02114
16373.47983
16383.42635
16397.39619
16405.48753
16410.33785
16424.26299
16439.46218
16447.24058
16452.91793
16464.54083
16476.65548
16482.33282
16481.63992
16481.4164
16483.60687
16482.37753
16474.91204
16465.12198
16461.94803
16455.1531
16440.35625
16427.25813
16422.81013
16415.09878
16399.67607
16381.57116
16368.49539
16358.75003
16345.71896
16334.25252
16325.91532
16324.19423
16316.23701
16302.82596
16296.34396
16298.15445
16296.00868
16284.49753
16277.81436
16282.03884
16283.75993
16276.29444
16272.67346
16276.3615
16280.65303
16279.44604
16278.3508
16281.07772
16285.83864
16282.03884
16280.45187
16286.91152
16288.25263
16283.02232
16280.11659
16284.45283
16287.47032
16285.70453
16280.87655
16278.59667
16283.06702
16286.24097
16281.36829
16280.29541
16283.17878
16283.67052
16277.30027
16272.87463
16276.3615
16277.56849
16272.76287
16268.38193
16271.77939
16276.22739
16271.66763
16265.18563
16270.55004
16281.99414
16281.43534
16270.43829
16269.9689
16277.23322
16279.75896
16280.09424
16283.24584
16289.12434
16295.02521
16297.19332
16301.17193
16308.05627
16313.33128
16307.65394
16297.81917
16297.28273
16293.92997
16276.62972
16265.67736
16261.92227
16256.84843
16249.62881
16241.8057
16242.3645
16244.51026
16239.36936
16232.84265
16231.72506
16235.70368
16230.47337
16218.85046
16219.25279
16227.23236
16221.13034
16217.95639
16251.84163
16318.98628
16381.28059
16399.45256
16441.11621
16495.98974
16574.95845
16657.34698
16688.88529
16676.54713
16566.5542
16368.40598
16236.35188
16229.93693
16256.69196
16255.59673
16259.37417
16265.20798
16265.78912
16264.00098
16261.18466
16256.84843
16265.02916
16270.19242
16268.29252
16269.58892
16278.55197
16286.17391
16283.82698
16287.06798
16295.36048
16302.15541
16305.8658
16309.33032
16317.86869
16330.43037
16332.1738
16331.57031
16344.2661
16358.90649
16367.10958
16373.56924
16387.8967
16404.4817
16416.17166
16421.24551
16429.67211
16443.84312
16454.34844
16452.49324
16454.03552
16459.46699
16456.82948
16451.80034
16446.61474
16444.60308
16441.29502
16426.09583
16410.51667
16403.74409
16395.29513
16384.56629
16364.20385
16354.57025
16345.76366
16331.97264
16318.15926
16309.48678
16304.16707
16296.70159
16284.60929
16277.97082
16275.91446
16274.30514
16261.38583
16253.83094
16260.08943
16261.38583
16253.85329
16249.62881
16257.27311
16260.82704
16258.01072
16254.85912
16258.03307
16261.587
16260.73763
16257.58603
16261.31877
16269.16424
16268.18076
16261.36348
16258.12247
16263.41984
16264.1798
16258.97184
16260.20119
16269.23129
16270.0136
16266.59379
16264.09039
16266.52673
16266.14675
16260.40235
16259.93297
16264.35861
16267.55491
16265.45385
16258.70362
16262.70458
16268.13606
16265.85618
16261.16231
16265.78912
16277.14381
16280.2507
16273.61223
16270.10301
16278.59667
16282.35177
16281.34594
16285.07868
16287.8503
16292.14183
16296.1875
16301.4178
16309.08445
16316.21466
16308.27979
16299.22733
16303.74239
16307.47513
16288.67731
16277.14381
16274.4169
16269.76773
16265.5209
16260.22354
16258.79303
16261.36348
16254.23327
16246.96895
16239.88345
16238.78822
16239.03409
16228.01468
16223.16435
16223.56668
16219.54336
16217.55406
16232.73089
16286.6433
16372.45165
16436.15412
16483.78569
16519.45907
16569.95166
16625.78632
16637.0516
16643.80183
16560.27336
16359.71115
16218.51518
16214.04483
16255.35086
16270.6171
16274.72982
16283.08937
16288.11852
16280.72009
16273.56753
16274.4616
16280.13894
16283.67052
16279.24487
16276.47326
16284.27402
16290.93484
16289.39257
16289.90666
16301.70838
16313.08541
16316.01349
16319.56742
16328.59753
16340.10867
16343.41673
16339.48282
16349.80933
16364.71794
16374.19508
16381.61586
16392.07648
16410.82959
16420.68671
16426.87815
16434.70126
16446.61474
16456.82948
16456.06952
16453.49907
16457.67885
16460.96456
16453.83435
16444.60308
16441.16091
16440.3339
16424.28534
16413.98119
16408.43796
16403.02883
16391.94237
16375.13386
16366.99782
16366.43903
16353.92205
16338.72287
16328.46341
16324.01542
16317.57812
16304.63646
16296.70159
16295.74046
16289.25845
16276.22739
16268.76191
16269.29835
16268.65015
16261.81051
16255.79789
16259.0836
16266.57143
16264.49272
16259.0389
16263.35278
16268.22546
16263.68806
16261.16231
16266.23616
16273.99221
16271.42176
16263.59865
16263.77747
16271.80174
16272.71816
16265.38679
16264.51507
16266.79495
16263.73276
16256.35669
16250.92521
16256.06611
16258.52481
16253.07098
16246.36546
16246.79014
16248.243
16244.77848
16238.5647
16239.57053
16245.33728
16245.49374
16242.29744
16243.50443
16244.28675
16244.62202
16243.83971
16248.46652
16257.8319
16263.84452
16254.83677
16256.06611
16273.79105
16281.27888
16278.23904
16280.72009
16285.41395
16284.29637
16276.56266
16264.71624
16253.51802
16250.38877
16242.38685
16233.78143
16235.77073
16241.09045
16239.9058
16229.13226
16226.71827
16231.65801
16231.03216
16224.81838
16221.75619
16227.38883
16227.6794
16221.935
16215.47535
16226.56181
16255.55202
16306.31284
16389.55073
16452.09091
16509.5796
16527.12572
16575.629
16612.86701
16628.49088
16608.77664
16479.02477
16285.01162
16202.7572
16220.48214
16241.49278
16251.9981
16270.79591
16277.6579
16269.43246
16264.73859
16270.55004
16270.41593
16262.57047
16263.33043
16270.48299
16276.69677
16276.02622
16279.02136
16290.30899
16300.65784
16301.19429
16303.60827
16311.6549
16322.24963
16326.54116
16328.82104
16337.96291
16349.33994
16354.01146
16357.29717
16366.23786
16380.07359
16387.31556
16388.63431
16397.39619
16412.2601
16422.96659
16426.09583
16429.33684
16437.94226
16441.29502
16433.65072
16426.47581
16425.0006
16420.5526
16408.77323
16399.11728
16395.13867
16388.34374
16375.78206
16362.05809
16355.75489
16351.9551
16340.08632
16324.93184
16315.70057
16313.5101
16305.37406
16294.89109
16288.47614
16287.06798
16281.65886
16273.23225
16268.87366
16270.63945
16270.50534
16263.71041
16261.69875
16268.42663
16273.99221
16272.11467
16270.37123
16278.48491
16287.87265
16286.62095
16281.63651
16286.28567
16292.25359
16294.66758
16288.4985
16288.74436
16296.63453
16299.20498
16292.20889
16290.4878
16296.2322
16296.03103
16291.22541
16290.89013
16294.48876
16298.37797
16295.78516
16289.61608
16293.84056
16297.01451
16290.62191
16283.69287
16285.16809
16288.40909
16287.04563
16280.74244
16282.61999
16287.31385
16286.62095
16286.66565
16290.33134
16291.35952
16287.96205
16284.38577
16287.44796
16296.99216
16303.9659
16295.584
16297.77447
16311.27492
16322.40609
16322.16022
16322.27198
16326.42941
16325.7365
16318.49454
16307.7657
16295.24872
16292.25359
16283.78228
16271.66763
16271.24295
16274.88628
16275.86976
16272.87463
16271.42176
16275.95917
16274.48395
16267.51021
16263.46454
16261.51994
16263.10691
16255.64143
16247.28188
16266.05734
16314.38182
16374.99975
16424.12888
16460.07049
16518.07326
16561.52505
16638.77268
16702.98924
16725.56451
16683.05149
16531.48431
16345.96483
16274.43925
16290.42075
16300.00964
16299.74142
16311.76666
16312.9066
16306.29048
16302.75891
16305.19525
16306.24578
16300.30022
16298.04269
16307.54218
16317.06403
16319.2992
16321.60143
16332.39732
16343.52849
16343.7073
16348.20001
16361.29813
16376.69848
16385.61683
16392.67998
16405.53223
16419.72559
16424.37475
16422.47485
16428.46512
16439.41747
16444.80424
16445.25128
16453.38731
16469.2347
16482.82456
16486.40084
16491.58645
16500.81772
16501.86825
16494.00043
16484.32213
16484.43389
16481.25994
16469.03354
16456.27069
16447.68762
16439.64099
16428.04044
16412.37186
16401.12894
16393.05996
16381.43705
16362.50512
16350.6587
16347.99884
16341.6733
16328.86575
16320.70736
16320.43914
16315.36529
16305.1729
16298.06504
16299.76377
16300.61314
16291.47128
16285.12338
16289.68314
16293.28177
16288.65496
16282.28471
16282.50823
16287.51502
16284.02815
16277.72495
16283.447
16290.71132
16289.63843
16285.86099
16288.81142
16295.96398
16296.58983
16290.13017
16289.75019
16296.94746
16298.19915
16294.51111
16292.56651
16296.67923
16299.11557
16295.42754
16289.81725
16291.51598
16292.49946
16288.90083
16283.26819
16281.72592
16286.55389
16283.4917
16276.45091
16280.54127
16292.90179
16295.584
16288.78907
16285.01162
16292.29829
16297.75212
16292.9912
16294.2876
16301.55191
16304.90468
16302.55774
16307.96687
16319.20979
16325.42358
16323.34487
16322.4955
16321.73554
16323.76955
16313.97948
16294.89109
16292.18653
16292.36535
16285.19044
16278.9096
16281.83768
16290.4878
16290.59956
16281.5471
16281.70357
16286.39743
16285.48101
16277.03205
16272.89698
16277.97082
16276.80853
16264.73859
16273.50048
16321.82495
16395.27278
16442.39026
16464.87611
16526.58928
16586.64841
16670.04277
16727.39735
16743.26709
16702.76573
16553.99252
16364.7403
16285.03398
16302.98243
16322.07082
16319.72388
16326.47411
16331.45855
16326.92114
16317.82398
16315.81233
16322.38374
16327.07761
16324.77538
16323.81425
16331.4362
16341.62859
16340.89098
16339.23696
16346.07659
16355.86665
16353.18444
16352.31273
16359.6441
16372.13872
16377.36903
16377.54785
16384.36513
16397.12797
16404.83933
16407.83446
16420.53025
16437.74109
16448.29112
16452.18032
16461.25513
16475.78376
16483.67393
16479.65061
16481.327
16488.74777
16492.83814
16484.29978
16476.63313
16472.72157
16471.80515
16462.35036
16445.81007
16434.79066
16430.34267
16416.84221
16397.73147
16385.2592
16378.50897
16364.00269
16348.31176
16336.46534
16328.9328
16322.18257
16308.19038
16296.2322
16297.99799
16295.78516
16288.29733
16284.0952
16287.06798
16287.73854
16283.04467
16278.32845
16282.48588
16288.99023
16285.63747
16279.71426
16284.11755
16292.32064
16295.60635
16291.1807
16291.1807
16296.12044
16298.95911
16294.39936
16294.01938
16300.83666
16303.09418
16298.10975
16295.67341
16296.96981
16297.95328
16293.81821
16286.53154
16286.6433
16286.41978
16281.01066
16274.68512
16278.97665
16285.36925
16282.39647
16275.08745
16274.05927
16275.8027
16271.24295
16264.828
16267.77843
16275.40037
16274.72982
16267.30904
16263.03986
16271.66763
16278.57432
16274.88628
16279.02136
16288.20792
16292.72298
16292.41005
16296.63453
16305.9105
16311.45374
16310.64907
16304.45764
16300.54609
16302.91537
16291.76185
16274.81923
16270.59475
16269.07483
16262.95045
16260.08943
16257.8319
16263.33043
16260.00002
16254.61325
16254.21092
16258.45775
16261.05055
16255.21675
16252.53454
16258.74832
16256.44609
16245.40433
16254.72501
16307.1622
16376.38555
16421.17845
16450.50394
16508.70788
16570.4881
16659.35864
16707.07961
16719.57424
16664.85717
16497.73318
16314.47122
16248.08654
16276.07093
16290.08547
16290.5325
16299.4732
16302.51304
16295.80752
16287.51502
16283.11173
16288.74436
16293.81821
16290.89013
16291.04659
16300.59079
16310.62672
16311.54314
16311.29727
16314.8065
16323.03194
16323.61309
16321.06499
16325.06595
16335.2807
16338.477
16342.07563
16348.40117
16359.28647
16366.99782
16370.21647
16379.60421
16398.782
16413.71297
16423.12305
16434.47774
16446.99472
16455.66719
16456.22599
16459.80227
16465.72548
16469.41352
16462.55153
16456.74008
16452.11327
16448.53699
16438.05402
16422.58661
16413.80238
16409.33203
16398.93846
16385.03568
16370.50705
16366.0367
16357.31952
16339.39342
16330.96681
16325.06595
16319.14274
16306.84928
16296.9251
16291.7395
16286.73271
16280.34011
16272.44994
16272.71816
16279.69191
16274.55101
16268.00195
16265.83383
16273.88045
16270.25947
16263.15162
16267.62197
16274.05927
16270.63945
16269.54422
16269.29835
16277.76966
16280.92125
16273.99221
16271.15354
16277.90377
16278.77549
16275.78035
16274.14868
16278.44021
16281.59181
16274.17103
16269.47716
16275.95917
16281.59181
16280.45187
16276.31679
16274.34984
16280.98831
16277.99318
16270.08066
16271.39941
16278.86489
16277.85907
16274.34984
16276.69677
16285.07868
16285.16809
16269.79009
16266.39262
16275.60154
16280.69774
16278.2614
16279.91543
16281.65886
16285.19044
16283.447
16281.63651
16284.0952
16291.91831
16285.88334
16275.02039
16276.69677
16278.68608
16260.91644
16250.29936
16241.761
16243.61619
16239.48112
16234.47433
16233.89318
16234.7649
16234.67549
16227.58999
16224.93013
16227.99232
16226.78533
16218.96222
16213.66486
16216.68234
16213.37428
16213.19547
16240.39754
16304.05531
16380.90061
16421.06669
16476.63313
16535.50762
16621.78536
16680.95042
16693.98149
16657.99518
16516.6651
16311.92312
16213.24017
16224.57251
16254.32268
16258.25659
16259.70945
16262.50342
16262.48107
16262.19049
16256.02141
16257.29546
16261.76581
16269.20894
16266.86201
16263.82217
16271.93585
16282.48588
16282.03884
16282.26236
16289.45962
16300.50138
16307.40807
16309.59854
16311.38668
16321.82495
16324.4848
16323.12135
16330.31861
16340.06397
16349.27289
16349.87639
16355.88901
16376.83259
16387.31556
16392.63527
16398.49143
16410.06963
16418.96563
16419.88205
16417.55747
16415.18818
16414.8082
16405.80045
16394.62458
16388.94724
16386.30973
16380.14065
16365.79083
16354.14557
16351.32925
16346.54598
16332.06205
16321.2885
16319.50037
16311.47609
16300.27786
16292.90179
16289.30316
16294.62287
16295.13696
16296.65688
16302.49069
16306.11167
16293.21471
16286.39743
16287.98441
16286.0398
16281.12242
16272.00291
16275.66859
16277.88142
16274.66277
16265.74442
16265.34209
16272.42759
16271.98056
16267.30904
16261.587
16269.14188
16272.89698
16265.96794
16258.59186
16261.87757
16263.28573
16259.84356
16252.48984
16252.53454
16254.72501
16249.40529
16245.09141
16245.96313
16242.69977
16239.05644
16232.10504
16233.26734
16236.6201
16230.8757
16227.6794
16226.383
16226.13713
16227.54529
16226.11478
16227.85821
16237.02243
16232.84265
16232.73089
16234.7202
16251.3946
16257.00489
16254.38973
16241.761
16250.43347
16259.35182
16262.45871
16262.21284
16268.33722
16270.81827
16262.03403
16253.85329
16247.08071
16237.22359
16225.60069
16215.96708
16213.15077
16219.65512
16219.45396
16208.56866
16210.13328
16211.6532
16213.66486
16203.47246
16199.4715
16204.0089
16201.93019
16200.49968
16190.03906
16191.62604
16208.18868
16239.57053
16293.75116
16382.50993
16458.41646
16497.26379
16506.80798
16556.51826
16560.36276
16555.91477
16500.03541
16344.35551
16191.02254
16162.52406
16190.08376
16212.9943
16227.61234
16239.63758
16240.57636
16229.82517
16233.80378
16238.40824
16224.17018
16221.15269
16231.21097
16232.41797
16237.62593
16237.24595
16242.14098
16251.28284
16253.58507
16251.48401
16256.98254
16270.25947
16267.04082
16265.05152
16273.43342
16284.20696
16286.12921
16289.32551
16294.01938
16315.54411
16321.15439
16320.12621
16328.66458
16343.0591
16354.05616
16353.2962
16358.3924
16372.13872
16377.25727
16370.93173
16366.05905
16363.28743
16362.52747
16362.05809
16346.23305
16337.29235
16338.02996
16323.1884
16304.01061
16295.49459
16289.16905
16272.13702
16261.09526
16247.05836
16241.40337
16239.8164
16228.14879
16210.60267
16212.48021
16212.72608
16202.73485
16195.04585
16203.47246
16202.22076
16201.95254
16190.79902
16188.87677
16194.55411
16186.32867
16182.61828
16181.50069
16191.20135
16186.66395
16186.19456
16185.59106
16192.83303
16202.19841
16194.77763
16189.12264
16201.77373
16201.95254
16189.65908
16190.44139
16206.17702
16197.88452
16190.15082
16189.34616
16194.44235
16201.4608
16198.868
16187.87094
16193.30242
16196.81164
16192.85538
16191.96131
16187.78154
16197.48219
16203.29365
16188.56385
16186.48513
16194.50941
16205.57352
16198.53272
16197.95158
16199.73972
16190.95548
16198.19745
16200.96906
16215.94473
16222.33733
16206.48995
16198.24215
16198.1751
16201.79608
16188.45209
16169.47546
16168.33552
16174.25873
16170.57069
16162.16644
16162.09938
16175.57748
16169.47546
16164.871
16158.05371
16163.48519
16169.92249
16162.74758
16152.01874
16157.60668
16151.25878
16148.37541
16161.18296
16196.3199
16267.73373
16337.9182
16393.37288
16429.85093
16451.10744
16479.74002
16459.98108
16453.2532
16397.06092
16247.5948
16121.2851
16123.36381
16162.34525
16181.25483
16182.77474
16188.69796
16200.92436
16202.53369
16186.0381
16185.68047
16188.13916
16194.39765
16194.28589
16190.01671
16197.03516
16210.71442
16209.37332
16209.90976
16211.58614
16228.08173
16222.42674
16221.35386
16234.65314
16243.19151
16245.85137
16245.09141
16261.07291
16267.71137
16271.8688
16272.82992
16277.68025
16294.24289
16309.12916
16310.962
16317.37695
16324.32834
16334.0737
16337.47117
16334.92307
16340.511
16343.95317
16336.35358
16325.96002
16318.42748
16317.3546
16305.64228
16287.42561
16279.08841
16282.1506
16274.32749
16255.10499
16244.46556
16242.00687
16230.85335
16221.01858
16211.87672
16213.44134
16213.5978
16197.77276
16190.26258
16193.41417
16189.9273
16180.18194
16175.57748
16179.95842
16183.80292
16180.249
16173.92345
16179.75726
16180.74074
16177.76795
16174.99634
16174.97399
16185.3899
16187.24509
16181.65716
16180.00313
16193.63769
16196.9681
16190.73197
16188.09446
16200.07499
16199.94088
16193.90591
16188.89912
16195.627
16196.90105
16188.78736
16184.47348
16188.6309
16191.91661
16186.30632
16178.03617
16188.54149
16199.38209
16197.25867
16186.50749
16190.68726
16203.58422
16207.49577
16205.57352
16202.86896
16201.25964
16206.78052
16205.55117
16211.63085
16225.66774
16229.15461
16218.20226
16209.90976
16213.79897
16208.63571
16191.8272
16181.81362
16177.92442
16175.66689
16169.63192
16164.24515
16164.53572
16171.04008
16171.71063
16159.93126
16160.62417
16167.4638
16165.80977
16157.42787
16156.86907
16156.64556
16152.30932
16152.64459
16173.94581
16226.22654
16291.71715
16338.05231
16401.41951
16446.54768
16506.78563
16535.50762
16535.55233
16519.79435
16422.96659
16243.6609
16156.64556
16173.40936
16200.25381
16198.97976
16199.69501
16207.96516
16214.00013
16211.51909
16201.05847
16202.7572
16206.40054
16207.29461
16202.0643
16205.81939
16215.14007
16218.24696
16214.38011
16216.34706
16225.01954
16233.58026
16235.45781
16237.46946
16246.9466
16259.26241
16262.57047
16261.36348
16270.30418
16280.47422
16283.46935
16285.50336
16293.92997
16309.12916
16315.78998
16319.50037
16328.48577
16342.52266
16346.83655
16342.56737
16339.28166
16344.24375
16345.85307
16337.20295
16329.22337
16326.42941
16322.51785
16308.10098
16293.90762
16288.96788
16287.02328
16273.72399
16258.41305
16253.09333
16249.29354
16239.39171
16224.28193
16216.03414
16214.71539
16206.40054
16193.21301
16187.78154
16187.84859
16183.17708
16173.81169
16170.28012
16173.14114
16171.06243
16164.3122
16161.33942
16168.93901
16174.21403
16169.83308
16163.08286
16169.94484
16175.55513
16171.66593
16166.65914
16169.83308
16177.61149
16178.28204
16172.31413
16175.64454
16181.5901
16182.64063
16175.1528
16177.0974
16185.83693
16188.04976
16181.70186
16181.12072
16187.69213
16189.45792
16181.65716
16177.56679
16186.17221
16194.77763
16192.90008
16185.50166
16186.731
16192.29659
16191.64839
16191.96131
16204.36653
16213.44134
16211.11676
16208.4122
16214.42481
16224.05842
16225.84656
16217.75522
16212.56962
16211.74261
16207.8534
16190.28493
16179.19847
16178.28204
16170.79421
16161.58529
16159.84185
16163.44049
16164.35691
16155.59502
16149.67181
16153.65042
16159.10425
16154.41038
16146.69903
16149.67181
16152.10815
16144.01682
16147.5931
16182.57358
16236.10601
16271.9582
16293.99702
16351.19514
16404.68286
16471.35812
16523.43768
16530.81376
16517.29095
16427.01226
16268.98542
16175.82335
16176.82918
16196.8787
16193.30242
16196.45401
16202.42193
16204.23242
16199.85148
16191.40252
16194.48706
16202.93602
16205.05943
16201.68432
16205.9535
16218.29167
16222.33733
16217.19643
16218.82811
16229.55695
16234.40727
16232.08269
16234.89901
16247.21482
16257.63074
16256.55785
16259.35182
16270.90767
16282.7541
16287.53737
16292.79003
16305.73169
16315.4547
16321.71319
16326.20589
16338.32053
16353.2515
16358.21359
16356.06782
16358.19123
16365.09792
16363.44389
16353.78794
16347.48475
16346.61303
16342.00857
16329.29043
16318.36043
16314.40417
16309.33032
16296.43336
16283.26819
16276.33915
16267.91254
16252.26632
16238.31883
16232.59678
16228.41701
16217.95639
16206.04291
16204.50064
16204.23242
16197.54925
16188.72031
16187.82624
16190.32963
16185.36755
16175.97981
16173.36466
16177.85736
16180.249
16174.5493
16171.08478
16176.27039
16179.24317
16173.78934
16169.16253
16174.66106
16180.18194
