 EMG Channel 
7483.945189
7472.612855
7478.334901
7500.172555
7500.843108
7502.944172
7486.51564
7471.227046
7483.229933
7501.826585
7493.198811
7476.077375
7480.927703
7505.000532
7496.819794
7464.543875
7457.167799
7487.744986
7499.725521
7488.19202
7481.955884
7494.897544
7510.387303
7498.093843
7462.576921
7461.258168
7479.139564
7483.788727
7480.927703
7489.019035
7485.152183
7473.976311
7470.936474
7484.548686
7499.859631
7498.317361
7496.730387
7498.317361
7490.49425
7474.445698
7462.889846
7476.189134
7487.879096
7494.674026
7491.455375
7478.759584
7479.318378
7483.83343
7478.021977
7473.015186
7466.443773
7462.152238
7473.059889
7497.66916
7517.584564
7515.662314
7494.71873
7479.09486
7460.25234
7458.531256
7459.425325
7467.091974
7488.639055
7495.098709
7504.084111
7500.932515
7467.874285
7464.052136
7489.264904
7499.412596
7495.098709
7489.533125
7469.818886
7445.656651
7458.151276
7485.308645
7492.729425
7480.212448
7475.272712
7477.776108
7486.247419
7492.125927
7497.870326
7484.794555
7461.995776
7453.323299
7456.698413
7489.667236
7517.472806
7507.414521
7478.200791
7467.315491
7469.371852
7477.150259
7486.537991
7481.039462
7488.750814
7495.702207
7490.091919
7487.074433
7472.121116
7465.549703
7471.450564
7460.095878
7483.162878
7482.827602
7489.756643
7497.736215
7496.484518
7500.306666
7495.411634
7468.857761
7442.080372
7449.478799
7463.448639
7470.400032
7484.571038
7517.070474
7521.11614
7491.433023
7465.996738
7471.897599
7482.961712
7474.333939
0.0
4857.03407
4860.722108
4861.638529
4852.362556
4853.70366
4860.610349
4861.236198
4852.966053
4853.390736
4857.190532
4855.782372
4853.167218
4850.552064
4853.234274
4855.782372
4851.490838
4851.580244
4857.346995
4856.676442
4852.496666
4850.015622
4854.21775
4854.418916
4851.26732
4848.786276
4849.278015
4851.334375
4851.289672
4849.434477
4852.139038
4856.877608
4857.03407
4852.921349
4852.831942
4856.341166
4855.424745
4851.066154
4848.898035
4851.110858
4853.390736
4853.56955
4846.998137
4848.786276
4854.21775
4857.525809
4852.943701
4851.244968
4856.452925
4855.022413
4848.96509
4847.8028
4849.143904
4848.071021
4845.209997
4845.88055
4850.082678
4846.998137
4841.320794
4844.047707
4848.026317
4844.941776
4841.812532
4840.739648
4843.891244
4845.277053
4842.438381
4841.119628
4841.968994
4841.79018
4839.644413
4838.772695
4840.203207
4844.159465
4843.533616
4839.264433
4837.856273
4838.727991
4832.804779
4834.794084
4838.683288
4846.484047
4845.388811
4843.019526
4845.098239
4844.919425
4843.332451
4846.104067
4845.567625
4847.959262
4848.853332
4844.248872
4842.639547
4843.153637
4848.719221
4845.277053
4838.392715
4836.850445
4842.03605
4844.539445
4839.242082
4839.175026
4842.997175
4843.086582
4838.124494
4836.939852
4840.538483
4839.465599
4836.179893
4835.732858
4840.739648
4841.566663
4834.99525
4833.743552
4840.24791
4843.421858
4839.510302
4838.213901
4846.975785
4851.580244
4848.026317
4842.259567
4842.460733
4840.918462
4833.721201
4833.430628
4833.341221
4837.208073
4835.777561
4832.380096
4832.737724
4838.593881
4839.599709
4835.50934
4832.69302
4831.553081
4835.196416
4840.918462
4840.270262
4846.238178
4854.329509
4855.380041
4858.129306
4867.070003
4875.049576
4874.669597
4871.272131
4868.366405
4869.752213
4865.907713
4862.040861
4864.790125
4869.193419
4867.226466
4867.226466
4866.578265
4867.226466
4866.175934
4864.566608
4864.387794
4867.91937
4870.087489
4867.628797
4866.622969
4869.32753
4870.35571
4870.042785
4866.108878
4865.192457
4868.209942
4865.48303
4861.616178
4865.572437
4871.272131
4868.724032
4865.795954
4868.992253
4869.729861
4868.299349
4862.644358
4859.738631
4866.801782
4867.360576
4865.058346
4864.164277
4866.824134
4866.868838
4864.678367
4867.002948
4868.634626
4869.260474
4870.065137
4867.829963
4870.087489
4870.8698
4866.466506
4860.722108
4864.72307
4870.020434
4869.528695
4868.746384
4865.550085
4867.785259
4867.762907
4861.437364
4866.198285
4873.842582
4864.544256
4853.658957
4856.14
4861.817343
4865.013643
4865.393623
4863.538428
4862.979634
4865.304216
4866.086527
4864.343091
4865.10305
4868.768736
4868.276998
4860.520942
4859.582169
4861.727936
4861.347957
4856.967015
4859.783335
4863.31491
4862.778468
4856.788201
4858.419878
4862.130268
4861.817343
4857.92814
4859.291596
4863.538428
4868.142887
4863.203152
4858.330471
4861.504419
4864.20898
4858.799858
4853.278977
4857.436402
4859.492762
4855.335338
4855.871779
4859.112782
4861.77264
4861.571474
4857.391698
4856.89996
4858.531637
4853.927178
4849.747401
4856.452925
4863.739593
4862.756117
4858.531637
4853.547198
4853.815419
4857.168181
4854.642433
4852.384907
4857.905788
4860.74446
4857.525809
4853.837771
4856.631739
4859.090431
4860.520942
4859.693928
4863.806649
4866.108878
4859.895093
4857.637567
4854.284806
4855.424745
4853.793067
4846.886378
4845.187646
4849.792105
4851.334375
4846.573454
4845.992308
4849.523884
4850.395602
4849.099201
4845.657032
4848.540407
4850.999099
4849.769753
4847.869855
4853.167218
4851.043803
4850.149733
4847.489875
4849.367422
4851.423782
4849.970919
4849.121553
4850.350899
4853.211922
4853.167218
4849.054497
4847.534579
4852.653128
4855.134172
4852.071983
4851.379079
4855.670614
4856.609387
4852.384907
4850.529713
4854.418916
4862.15262
4856.028242
4852.429611
4855.044765
4856.967015
4852.228445
4849.903864
4856.296463
4854.97771
4849.590939
4848.138076
4851.356727
4855.447096
4856.184704
4853.591901
4852.608425
4851.379079
4852.228445
4849.389774
4845.858198
4851.13321
4849.032146
4845.299404
4845.36646
4851.826114
4855.536503
4852.876646
4847.623986
4849.657994
4854.955358
4852.027279
4846.461695
4849.34507
4851.155561
4848.495704
4849.814457
4850.75323
4855.961186
4856.14
4853.390736
4849.680346
4852.228445
4854.888303
4849.322718
4847.355765
4849.300367
4851.535541
4846.931082
4846.305233
4851.915521
4852.608425
4847.914558
4844.427686
4846.52875
4849.412125
4846.01466
4844.003003
4846.215826
4849.657994
4849.322718
4842.237215
4839.242082
4846.551102
4853.502495
4853.658957
4853.144867
4852.742535
4849.993271
4845.612329
4843.779486
4851.6473
4856.408221
4853.614253
4850.954396
4855.067117
4855.782372
4850.619119
4847.467524
4850.909692
4853.502495
4851.155561
4850.574416
4853.994233
4859.202189
4856.162352
4852.496666
4851.826114
4855.894131
4854.262454
4848.920387
4849.72505
4851.960224
4851.580244
4848.540407
4848.071021
4854.843599
4856.38587
4850.194436
4845.992308
4848.249835
4850.23914
4846.461695
4841.544311
4844.673555
4846.439343
4846.39464
4843.980651
4850.149733
4854.508323
4852.563721
4851.714355
4854.038936
4855.223579
4850.797933
4845.969957
4848.96509
4853.770715
4850.999099
4840.605538
4840.918462
4843.868893
4849.054497
4841.209035
4836.02343
4841.589015
4852.653128
4848.115724
4837.543349
4836.872797
4840.136151
4837.006907
4834.704677
4839.085619
4847.355765
4850.105029
4846.595805
4844.964128
4845.299404
4844.98648
4842.974823
4846.484047
4851.110858
4848.562759
4841.186683
4839.510302
4845.008832
4850.820285
4847.55693
4841.589015
4842.773657
4844.181817
4839.934986
4837.789218
4845.433515
4849.836808
4848.361593
4845.679384
4843.511265
4845.36646
4842.259567
4840.225558
4842.393678
4847.109896
4850.574416
4845.612329
4844.070058
4847.869855
4850.485009
4847.065192
4845.165294
4844.874721
4844.226521
4840.963166
4839.510302
4841.477256
4843.265396
4841.14198
4838.750343
4845.277053
4848.786276
4844.830018
4840.292614
4842.639547
4844.539445
4846.551102
4842.147808
4841.320794
4846.573454
4847.691041
4842.326622
4837.006907
4840.694945
4843.332451
4841.544311
4841.320794
4842.237215
4844.226521
4841.678422
4838.83975
4839.756172
4839.890282
4838.45977
4835.442285
4836.2693
4839.800875
4837.610404
4834.950547
4837.588052
4839.018564
4835.755209
4834.034125
4834.659974
4838.951509
4840.270262
4836.850445
4834.302346
4836.895148
4843.645375
4843.757134
4840.359669
4842.416029
4842.03605
4837.252776
4835.039954
4839.689116
4842.438381
4840.046744
4838.236253
4840.873759
4846.886378
4845.612329
4841.410201
4844.427686
4846.484047
4845.455867
4840.493779
4836.939852
4844.673555
4847.28871
4840.538483
4841.454904
4844.941776
4845.545273
4841.879587
4837.230425
4840.851407
4842.058401
4839.823227
4839.622061
4843.935948
4846.864026
4844.226521
4841.879587
4844.271224
4848.227483
4848.585111
4846.171122
4850.328547
4857.369346
4854.754192
4848.182779
4844.6065
4849.792105
4849.009794
4840.583186
4838.616233
4842.594843
4841.253739
4838.45977
4838.83975
4837.588052
4841.164332
4840.605538
4837.94568
4838.213901
4842.03605
4842.661898
4839.510302
4840.784352
4845.098239
4840.292614
4838.236253
4838.348012
4840.650241
4839.73382
4837.029259
4840.091448
4844.651204
4845.455867
4843.265396
4838.929157
4839.465599
4840.806704
4842.974823
4839.73382
4841.544311
4843.824189
4841.253739
4838.079791
4841.767829
4843.667727
4841.052573
4834.436456
4837.565701
4845.36646
4839.800875
4837.409239
4835.710506
4839.510302
4841.209035
4834.816436
4832.715372
4836.40341
4838.057439
4833.944718
4832.760076
4842.03605
4844.226521
4841.074925
4836.716334
4842.147808
4842.706602
4837.498645
4838.057439
4841.767829
4843.980651
4835.486988
4831.866006
4840.225558
4850.552064
4844.47239
4837.476294
4840.829055
4846.01466
4843.980651
4839.085619
4838.45977
4846.372288
4851.066154
4846.037012
4843.891244
4845.545273
4846.819323
4842.013698
4842.214864
4846.975785
4848.115724
4843.667727
4838.83975
4843.779486
4848.585111
4845.277053
4840.002041
4845.388811
4849.099201
4846.148771
4838.057439
4837.319832
4842.527788
4842.080753
4841.745477
4839.823227
4842.997175
4844.852369
4842.304271
4841.991346
4845.254701
4843.645375
4839.644413
4837.006907
4841.007869
4847.780448
4843.220692
4840.583186
4846.282881
4845.232349
4844.874721
4844.360631
4841.253739
4844.360631
4843.57832
4842.17016
4839.35384
4844.874721
4843.310099
4838.169198
4836.78339
4841.320794
4845.36646
4840.762
4842.907768
4846.282881
4845.768791
4842.68425
4841.857236
4844.09241
4845.36646
4843.19834
4840.136151
4840.516131
4842.661898
4840.046744
4838.750343
4839.555006
4844.450038
4842.527788
4840.136151
4843.108933
4847.55693
4849.21096
4848.719221
4852.2955
4856.89996
4856.497628
4850.485009
4848.182779
4848.920387
4845.63468
4840.1138
4838.727991
4840.002041
4844.271224
4844.338279
4841.946643
4845.411163
4847.28871
4847.266358
4843.690079
4843.019526
4853.480143
4848.898035
4842.706602
4843.980651
4847.221654
4843.533616
4841.320794
4848.026317
4852.831942
4844.651204
4842.259567
4842.460733
4847.445172
4849.076849
4844.673555
4846.551102
4850.261492
4851.177913
4843.935948
4840.471427
4844.874721
4846.953433
4849.479181
4852.094335
4851.759058
4856.51998
4853.077811
4847.847503
4848.294538
4851.736707
4850.306195
4844.427686
4844.651204
4850.797933
4849.188608
4845.008832
4846.707564
4852.630776
4855.961186
4853.56955
4848.674518
4851.6473
4854.843599
4850.417954
4848.249835
4850.127381
4854.754192
4855.514152
4854.173047
4854.46362
4850.462657
4850.23914
4845.701736
4846.215826
4852.206093
4848.942739
4843.265396
4848.696869
4853.591901
4851.379079
4848.294538
4849.255663
4851.513189
4853.256625
4849.456829
4849.993271
4854.933006
4855.961186
4853.971881
4848.428649
4849.993271
4854.150695
4852.720183
4849.032146
4848.763925
4856.184704
4854.396564
4851.021451
4853.614253
4851.423782
4848.786276
4846.238178
4847.512227
4851.870817
4851.602596
4844.874721
4842.192512
4845.053535
4848.473352
4850.75323
4846.52875
4849.21096
4851.468486
4849.389774
4847.55693
4847.668689
4849.881512
4847.735744
4846.037012
4850.820285
4853.368384
4853.658957
4849.590939
4849.523884
4849.702698
4850.864989
4850.194436
4852.787239
4856.296463
4859.224541
4853.480143
4850.440306
4857.190532
4856.967015
4852.67548
4849.367422
4849.456829
4850.842637
4850.641471
4849.21096
4849.814457
4850.283843
4850.440306
4848.853332
4851.088506
4853.860122
4853.614253
4848.31689
4844.494741
4851.826114
4847.355765
4846.01466
4848.83098
4849.568587
4851.915521
4852.139038
4851.803762
4853.301329
4854.307157
4849.590939
4848.227483
4854.396564
4862.554951
4853.56955
4843.488913
4845.679384
4849.523884
4847.914558
4845.545273
4849.456829
4853.502495
4849.680346
4844.807666
4846.461695
4852.2955
4851.401431
4847.892207
4846.595805
4852.742535
4854.46362
4846.953433
4847.825151
4856.51998
4858.241064
4855.156524
4852.563721
4860.140963
4860.87857
4853.144867
4849.702698
4853.882474
4855.536503
4854.105992
4851.915521
4852.943701
4855.938835
4853.480143
4848.652166
4850.440306
4857.458753
4860.073907
4858.06225
4856.832904
4858.464582
4859.246893
4853.614253
4854.240102
4857.190532
4856.765849
4854.128343
4851.200265
4853.502495
4858.509285
4858.710451
4855.067117
4855.849428
4860.409184
4854.508323
4850.172085
4853.658957
4863.292559
4864.141925
4858.978672
4853.144867
4852.496666
4854.553027
4854.284806
4852.16139
4856.162352
4855.603558
4854.038936
4851.26732
4849.814457
4852.474314
4848.428649
4845.277053
4851.915521
4856.117649
4858.151657
4851.13321
4850.75323
4855.156524
4853.100163
4852.273149
4851.535541
4855.581207
4853.70366
4851.289672
4853.256625
4857.235236
4854.664785
4849.523884
4850.708526
4850.88734
4847.579282
4850.641471
4850.149733
4854.910654
4855.268282
4848.383945
4845.277053
4851.580244
4856.229407
4853.368384
4853.547198
4855.469448
4856.631739
4855.156524
4853.591901
4855.961186
4858.911617
4855.4918
4850.172085
4851.692003
4854.553027
4852.384907
4854.150695
4856.296463
4862.622006
4866.891189
4859.85039
4858.95632
4866.354748
4869.148716
4861.77264
4855.782372
4856.832904
4856.65409
4857.056422
4852.362556
4852.16139
4854.441268
4849.456829
4847.93691
4851.803762
4856.117649
4859.023375
4855.62591
4854.08364
4858.799858
4860.185666
4854.888303
4853.211922
4857.525809
4860.36448
4857.458753
4858.419878
4861.25855
4859.425707
4859.068079
4855.402393
4852.362556
4855.380041
4850.775582
4850.596768
4853.346032
4857.838733
4857.436402
4855.827076
4854.307157
4856.698794
4859.135134
4852.876646
4848.540407
4854.21775
4855.514152
4854.642433
4856.095297
4856.609387
4858.710451
4854.08364
4849.590939
4856.676442
4857.391698
4851.356727
4852.720183
4853.614253
4857.794029
4858.978672
4855.581207
4855.290634
4855.11182
4856.318814
4856.184704
4858.95632
4860.431535
4862.398489
4856.944663
4856.564684
4860.87857
4860.543294
4856.363518
4852.407259
4854.329509
4859.246893
4857.056422
4852.071983
4856.38587
4862.756117
4863.583131
4858.129306
4859.626872
4862.912579
4857.726974
4857.950492
4862.622006
4861.146791
4859.135134
4858.889265
4860.342128
4865.840657
4863.761945
4857.861085
4853.547198
4861.415012
4867.137059
4861.862047
4866.712375
4867.897018
4867.517038
4863.381966
4863.672538
4868.634626
4868.56757
4866.220637
4868.791088
4862.309082
4866.891189
4871.495649
4861.213846
4865.23716
4870.758041
4866.555913
4861.616178
4865.393623
4862.063213
4859.068079
4854.754192
4866.555913
4874.289617
4870.579227
4858.509285
4860.655053
4858.397527
4863.046689
4860.833867
4858.665747
4864.097221
4866.734727
4865.863009
4864.656015
4865.326567
4862.711413
4856.944663
4858.375175
4860.923274
4851.379079
4847.065192
4851.535541
4850.619119
4856.855256
4851.356727
4844.785314
4845.165294
4859.403355
4851.580244
4847.512227
4849.926215
4849.032146
4856.072945
4846.819323
4845.768791
4861.862047
4856.475277
4852.876646
4854.709489
4863.784297
4866.198285
4856.229407
4858.129306
4868.187591
4866.399451
4860.23037
4849.523884
4858.732803
4867.584094
4862.063213
4859.492762
4861.929102
4872.859105
4870.48982
4866.399451
4865.795954
4870.35571
4871.495649
4865.281864
4861.616178
4859.917445
4860.23037
4858.621044
4859.962149
4865.281864
4869.729861
4864.767774
4863.672538
4866.488858
4874.177858
4874.222562
4868.075832
4867.137059
4870.802745
4871.272131
4868.589922
4871.942684
4871.875628
4869.46164
4866.913541
4868.120535
4881.330416
4884.057329
4871.607408
4864.276035
4871.830925
4877.195344
4878.715262
4869.148716
4867.070003
4876.748309
4870.780393
4865.013643
4867.315873
4867.986425
4865.863009
4864.946588
4868.701681
4870.400413
4869.573399
4871.495649
4871.987387
4872.456774
4873.552009
4869.707509
4866.600617
4873.999044
4872.456774
4869.863971
4866.891189
4870.936855
4876.904771
4875.049576
4871.607408
4870.445117
4872.188553
4867.6735
4864.946588
4868.858143
4870.713338
4870.311006
4870.176896
4867.852314
4871.875628
4873.68612
4869.260474
4870.847448
4875.049576
4881.263361
4887.588905
4898.094225
4903.369236
4898.898888
4888.17005
4879.654036
4879.832849
4879.363463
4874.267265
4874.066099
4877.485916
4869.685157
4866.667672
4867.002948
4864.20898
4866.175934
4862.80082
4862.890227
4863.761945
4868.299349
4870.422765
4863.583131
4863.337262
4867.114707
4869.595751
4867.338224
4860.520942
4866.600617
4869.059309
4866.332396
4867.248817
4866.555913
4868.746384
4864.097221
4861.102088
4860.587998
4866.891189
4865.013643
4861.862047
4864.678367
4868.075832
4867.517038
4866.287692
4871.607408
4875.496611
4873.417899
4864.72307
4863.918407
4871.76387
4870.981559
4870.243951
4865.907713
4869.193419
4873.596713
4868.232294
4862.085564
4868.411108
4870.914503
4868.656977
4864.544256
4868.522867
4875.183687
4871.786221
4867.584094
4870.020434
4871.808573
4872.322663
4873.730823
4874.446079
4877.485916
4877.910599
4873.708472
4870.266303
4869.282826
4869.372233
4864.879532
4863.091393
4863.985463
4864.656015
4865.48303
4863.963111
4866.622969
4866.958245
4863.426669
4862.219675
4863.426669
4866.913541
4862.309082
4859.962149
4863.292559
4865.795954
4860.409184
4849.255663
4846.752268
4852.027279
4853.100163
4853.726012
4853.413088
4859.090431
4865.147753
4865.125402
4865.013643
4864.343091
4867.695852
4855.067117
4853.502495
4860.431535
4863.091393
4863.985463
4859.626872
4860.319777
4864.119573
4862.309082
4862.465544
4863.672538
4868.500515
4869.774564
4863.337262
4860.565646
4866.153582
4868.142887
4862.420841
4861.303253
4864.164277
4864.164277
4860.610349
4858.844561
4864.656015
4865.438326
4866.041823
4870.266303
4873.507306
4878.827021
4876.927123
4870.221599
4871.830925
4873.17203
4871.987387
4868.634626
4871.696815
4876.971826
4871.719166
4867.91937
4871.696815
4874.736652
4873.462602
4871.361538
4867.785259
4869.372233
4869.640454
4866.108878
4865.013643
4868.634626
4875.876591
4876.50244
4872.724995
4870.981559
4873.552009
4871.205076
4867.002948
4869.618102
4871.138021
4869.908675
4865.840657
4870.556876
4875.965998
4873.082623
4869.46164
4867.204114
4870.735689
4871.540352
4870.221599
4869.260474
4872.836753
4873.619065
4871.070966
4869.998082
4875.451908
4876.904771
4873.037919
4867.986425
4866.779431
4870.802745
4872.188553
4872.367367
4879.251704
4874.043748
4870.378062
4865.728899
4869.126364
4875.340149
4875.586018
4875.586018
4872.27796
4871.316835
4871.38389
4865.99712
4866.13123
4870.132192
4869.171067
4867.718204
4867.964073
4870.668634
4871.182724
4867.248817
4866.220637
4869.595751
4871.629759
4868.455812
4867.964073
4874.356672
4883.722053
4884.392605
4879.341111
4878.201172
4881.643341
4883.766757
4878.223524
4877.284751
4879.609332
4880.34694
4876.323626
4872.233256
4876.703605
4876.658902
4869.819268
4867.628797
4873.507306
4875.563666
4873.842582
4869.059309
4870.199248
4875.206038
4874.177858
4867.338224
4870.512172
4877.731786
4873.976692
4869.036957
4871.987387
4875.071928
4875.317797
4872.479126
4872.881457
4878.335283
4879.944608
4876.12246
4876.345977
4880.637512
4880.928085
4875.965998
4871.339187
4876.860067
4879.654036
4875.474259
4870.690986
4872.881457
4876.569495
4875.831887
4873.663768
4873.641416
4876.569495
4873.373195
4867.628797
4870.936855
4876.167163
4872.881457
4868.232294
4870.020434
4876.457736
4875.630722
4869.595751
4870.825096
4871.920332
4870.914503
4867.427631
4867.561742
4869.863971
4875.295445
4873.395547
4871.76387
4876.390681
4881.173954
4880.883381
4875.720129
4877.754137
4879.095242
4878.402338
4873.708472
4874.513134
4875.451908
4878.111765
4872.680291
4870.422765
4876.278922
4872.903809
4874.177858
4876.390681
4879.654036
4880.682216
4879.07289
4875.340149
4873.507306
4876.144812
4874.155506
4872.590884
4869.863971
4872.389719
4875.004873
4867.137059
4870.758041
4875.295445
4868.679329
4860.811515
4866.108878
4872.948512
4873.037919
4871.361538
4870.176896
4875.518963
4878.469393
4871.138021
4864.879532
4872.210905
4876.189515
4875.004873
4874.736652
4877.53062
4879.698739
4877.083585
4874.244913
4873.641416
4877.910599
4876.368329
4871.182724
4874.736652
4881.151602
4880.592809
4875.004873
4875.09428
4876.345977
4875.340149
4875.09428
4874.155506
4876.793012
4880.302236
4877.53062
4871.518001
4872.948512
4878.17882
4873.753175
4872.188553
4875.474259
4878.42469
4875.273094
4866.533562
4872.389719
4878.759966
4873.037919
4871.920332
4873.730823
4875.876591
4875.474259
4870.48982
4872.635588
4881.084547
4875.74248
4871.24978
4869.953378
4874.960169
4872.65794
4873.17203
4874.669597
4877.284751
4877.195344
4874.557838
4873.887285
4883.498536
4883.342073
4873.350844
4868.925198
4873.350844
4875.183687
4864.879532
4863.31491
4874.84841
4875.787184
4871.920332
4868.254646
4866.801782
4874.043748
4872.434422
4864.611312
4865.147753
4868.008777
4871.987387
4869.819268
4866.690024
4868.500515
4870.132192
4868.254646
4866.13123
4866.287692
4870.713338
4869.126364
4870.512172
4868.656977
4870.445117
4871.585056
4866.824134
4868.366405
4874.647245
4872.054442
4864.656015
4866.958245
4875.004873
4870.35571
4865.10305
4865.728899
4871.719166
4868.031128
4863.381966
4862.107916
4865.863009
4867.6735
4869.439288
4864.320739
4865.23716
4869.171067
4862.934931
4861.25855
4867.517038
4873.283788
4864.72307
4863.31491
4869.931027
4873.30614
4869.685157
4862.130268
4866.51121
4870.914503
4867.897018
4866.354748
4866.734727
4867.829963
4870.981559
4865.527733
4860.252721
4868.634626
4873.954341
4872.546181
4866.980596
4867.897018
4869.506344
4870.735689
4867.807611
4870.601579
4873.931989
4866.533562
4867.829963
4870.802745
4874.088451
4872.613236
4866.64532
4866.444155
4871.76387
4872.993216
4865.125402
4864.007814
4872.501477
4872.27796
4867.114707
4864.454849
4869.08166
4874.311969
4871.830925
4865.840657
4866.555913
4866.13123
4862.085564
4861.124439
4866.958245
4871.965035
4869.394585
4865.505381
4868.56757
4876.211867
4872.65794
4864.58896
4863.761945
4871.830925
4872.523829
4866.622969
4865.728899
4871.629759
4870.914503
4867.092355
4863.806649
4870.199248
4872.769698
4869.662806
4867.584094
4865.192457
4869.729861
4870.780393
4867.114707
4867.561742
4872.65794
4870.601579
4868.098184
4867.338224
4870.668634
4868.969902
4863.31491
4864.007814
4867.449983
4871.227428
4867.070003
4865.058346
4867.964073
4869.640454
4865.348919
4861.303253
4865.952416
4872.836753
4871.00391
4866.086527
4866.980596
4869.260474
4865.281864
4859.716279
4859.537466
4866.13123
4863.381966
4862.867875
4864.499553
4869.640454
4866.041823
4856.89996
4860.23037
4867.293521
4866.399451
4864.276035
4865.281864
4870.087489
4873.015567
4865.706547
4866.399451
4868.165239
4866.041823
4865.438326
4864.253684
4864.164277
4868.120535
4863.717242
4861.727936
4862.040861
4866.533562
4864.901884
4862.242027
4862.979634
4866.51121
4864.72307
4859.872742
4860.811515
4865.460678
4864.030166
4856.65409
4855.804724
4862.219675
4865.572437
4862.912579
4860.319777
4866.667672
4865.885361
4863.985463
4864.633663
4862.845524
4862.756117
4860.029204
4856.944663
4858.509285
4861.638529
4856.274111
4857.615215
4867.897018
4878.983483
4883.140908
4874.624893
4864.164277
4862.15262
4860.543294
4859.425707
4858.30812
4862.15262
4859.403355
4858.30812
4859.760983
4858.30812
4860.520942
4857.101125
4855.62591
4862.510248
4864.07487
4860.319777
4857.861085
4861.77264
4862.689061
4856.631739
4853.994233
4858.866913
4863.627835
4862.711413
4858.531637
4858.241064
4861.303253
4860.006852
4855.357689
4853.860122
4856.832904
4858.44223
4855.827076
4855.089468
4859.693928
4862.018509
4860.632701
4859.537466
4861.437364
4862.376137
4862.398489
4858.688099
4859.582169
4866.13123
4864.365442
4861.213846
4862.487896
4867.271169
4866.242989
4862.890227
4864.72307
4869.998082
4865.952416
4860.431535
4857.704622
4863.158448
4866.846486
4860.275073
4858.553989
4863.113745
4862.890227
4856.117649
4854.396564
4859.492762
4863.158448
4860.275073
4856.89996
4857.503457
4862.242027
4863.270207
4859.135134
4860.096259
4858.844561
4860.655053
4859.559817
4860.096259
4861.39266
4861.504419
4859.068079
4859.939797
4864.521905
4870.422765
4865.795954
4856.944663
4860.118611
4861.303253
4857.190532
4855.178875
4857.570512
4864.700718
4861.325605
4858.509285
4859.403355
4865.460678
4865.907713
4857.056422
4854.709489
4860.923274
4861.39266
4859.626872
4859.85039
4861.750288
4862.66671
4861.25855
4861.146791
4861.191495
4864.410146
4862.353785
4857.794029
4862.040861
4869.036957
4863.426669
4858.844561
4859.515114
4864.790125
4863.069041
4858.397527
4856.050593
4862.376137
4863.985463
4858.643396
4859.179838
4865.99712
4868.478163
4862.219675
4859.403355
4861.035032
4860.297425
4861.504419
4860.655053
4862.689061
4864.633663
4855.134172
4852.206093
4858.95632
4867.494687
4863.158448
4860.811515
4862.912579
4863.069041
4858.531637
4856.072945
4856.855256
4862.15262
4863.493724
4859.3363
4856.89996
4861.102088
4863.829
4855.782372
4852.027279
4853.591901
4850.976747
4852.049631
4859.9845
4861.482067
4857.838733
4855.380041
4857.838733
4866.488858
4873.842582
4869.238123
4863.605483
4861.862047
4862.242027
4857.950492
4856.184704
4860.431535
4866.332396
4864.812477
4861.415012
4865.594788
4871.227428
4871.786221
4865.438326
4863.717242
4864.879532
4863.896056
4861.862047
4861.169143
4862.443192
4867.897018
4865.99712
4867.002948
4868.098184
4871.38389
4864.924236
4859.760983
4864.946588
4866.734727
4864.119573
4861.884399
4861.415012
4865.99712
4864.030166
4863.918407
4865.348919
4867.0253
4866.622969
4864.007814
4864.767774
4865.326567
4857.637567
4852.54137
4853.860122
4860.766811
4863.829
4857.481105
4857.391698
4862.376137
4863.493724
4860.900922
4862.331434
4863.404317
4864.454849
4860.74446
4855.603558
4862.264378
4866.868838
4859.805686
4857.704622
4858.174009
4858.889265
4857.816381
4856.229407
4862.130268
4866.108878
4865.639492
4861.862047
4859.582169
4861.817343
4862.040861
4858.263416
4857.056422
4856.497628
4861.325605
4861.727936
4856.967015
4860.140963
4864.656015
4863.381966
4865.99712
4868.142887
4860.185666
4854.173047
4843.57832
4845.835846
4854.955358
4852.563721
4843.220692
4839.309137
4846.551102
4850.619119
4848.406297
4843.667727
4845.768791
4848.920387
4845.232349
4843.287747
4846.729916
4849.926215
4847.020489
4844.785314
4848.361593
4852.273149
4850.23914
4843.757134
4844.293576
4849.076849
4846.081715
4837.744515
4839.532654
4843.153637
4845.947605
4842.03605
4846.39464
4848.562759
4848.115724
4846.595805
4841.968994
4843.846541
4848.674518
4844.740611
4840.292614
4843.555968
4849.412125
4849.009794
4846.327585
4845.209997
4846.573454
4845.411163
4840.24791
4845.254701
4850.485009
4848.96509
4847.959262
4843.421858
4843.153637
4842.348974
4832.69302
4828.513244
4830.346087
4827.619174
4819.080808
4814.766921
4816.622116
4822.031238
4823.59586
4819.773712
4818.410256
4823.171177
4820.846596
4818.387904
4818.432607
4821.584203
4820.801892
4817.493834
4816.66682
4823.59586
4819.639602
4812.643506
4815.482177
4816.867985
4818.07498
4816.353895
4811.369456
4816.957392
4816.599764
4810.14011
4811.347104
4816.555061
4816.957392
4813.135244
4810.14011
4813.269354
4814.185776
4812.285878
4811.458863
4812.419988
4815.817453
4814.453997
4809.335447
4810.028352
4814.521052
4813.805796
4812.82232
4814.945735
4816.778578
4815.929212
4816.28684
4814.36459
4815.728046
4817.784407
4814.051666
4812.844671
4816.66682
4816.733875
4813.8505
4810.810663
4813.425817
4814.275183
4815.616288
4812.57645
4814.588107
4816.845634
4816.331543
4813.582279
4811.03418
4815.325715
4815.660991
4810.117759
4809.581317
4812.218823
4816.957392
4816.040971
4815.482177
4821.315982
4820.980706
4816.175081
4815.996267
4817.002096
4824.199358
4819.214919
4814.386942
4818.678477
4822.813549
4821.874776
4814.990439
4817.002096
4824.422875
4818.477311
4813.045837
4817.292668
4822.366514
4818.879642
4808.866061
4807.748474
4819.058456
4822.210052
4823.819378
4831.910709
4834.570567
4831.798951
4832.782427
4831.977765
4838.437419
4842.818361
4836.761038
4836.962204
4840.091448
4842.416029
4836.314003
4835.218768
4843.757134
4850.194436
4847.668689
4844.315928
4847.668689
4851.021451
4846.841675
4844.271224
4841.879587
4844.47239
4844.852369
4842.438381
4838.504474
4841.991346
4848.741573
4847.512227
4845.053535
4848.920387
4847.221654
4841.097276
4834.659974
4837.744515
4840.024393
4837.29748
4836.068134
4839.644413
4845.545273
4844.964128
4838.45977
4841.879587
4847.400468
4847.668689
4840.873759
4837.520997
4845.098239
4845.053535
4842.080753
4841.052573
4845.545273
4849.836808
4839.73382
4831.866006
4842.214864
4853.323681
4855.737669
4855.11182
4861.169143
4868.880495
4868.120535
4865.661843
4866.913541
4870.936855
4864.968939
4859.85039
4856.497628
4861.839695
4866.064175
4861.325605
4859.313948
4864.499553
4863.940759
4859.157486
4859.3363
4861.638529
4861.862047
4857.41405
4852.831942
4856.832904
4859.358652
4858.82221
4852.921349
4854.441268
4859.783335
4854.955358
4850.864989
4857.436402
4859.291596
4850.127381
4841.119628
4842.863064
4843.310099
4838.862102
4828.960279
4826.948622
4830.77077
4832.871834
4831.866006
4830.837826
4835.531692
4839.107971
4835.263471
4830.815474
4836.381058
4842.706602
4837.342183
4838.504474
4844.181817
4849.881512
4848.607462
4844.360631
4846.327585
4851.26732
4848.607462
4846.126419
4845.277053
4845.075887
4846.059364
4844.427686
4844.897073
4849.009794
4848.227483
4844.315928
4844.025355
4845.50057
4850.574416
4843.868893
4835.464637
4845.232349
4856.00589
4851.803762
4853.077811
4859.582169
4858.665747
4857.056422
4852.317852
4852.474314
4856.967015
4856.117649
4852.80959
4854.821247
4860.073907
4859.313948
4853.681308
4852.54137
4855.156524
4858.174009
4854.888303
4852.943701
4860.543294
4861.370309
4858.241064
4854.508323
4857.570512
4865.281864
4860.118611
4853.70366
4856.832904
4857.257588
4861.482067
4859.604521
4858.263416
4859.47041
4858.598692
4855.201227
4857.972843
4861.437364
4860.945625
4854.262454
4853.323681
4858.866913
4862.219675
4857.704622
4858.017547
4861.817343
4868.56757
4860.923274
4857.995195
4862.66671
4861.638529
4862.979634
4862.577303
4860.766811
4857.592864
4854.105992
4851.155561
4851.155561
4852.831942
4852.049631
4849.032146
4845.50057
4852.273149
4851.26732
4846.953433
4851.692003
4860.252721
4856.765849
4839.309137
4836.492817
4837.94568
4838.996212
4836.157541
4830.614308
4834.838788
4840.516131
4841.164332
4833.698849
4831.955413
4831.374268
4830.748419
4826.456884
4830.748419
4832.804779
4827.797988
4827.552119
4827.865044
4833.050648
4831.53073
4824.288765
4827.485064
4833.296518
4829.630831
4820.980706
4812.598802
4808.776654
4811.816491
4811.637677
4812.017657
4817.940869
4822.992363
4820.466616
4818.164387
4823.104122
4826.993326
4823.148826
4820.980706
4822.902956
4829.2285
4829.362611
4824.914613
4824.601689
4832.067172
4832.022468
4825.182834
4827.082733
4835.442285
4839.979689
4832.69302
4831.441323
4841.968994
4841.946643
4824.333468
4819.594898
4822.321811
4823.104122
4813.626982
4806.742645
4807.234383
4812.82232
4815.951564
4809.894241
4811.972953
4814.208128
4813.33641
4805.334485
4801.355875
4806.139148
4806.250907
4801.132357
4799.165404
4803.702808
4806.1615
4801.624096
4799.724197
4810.117759
4817.024448
4820.198395
4821.427741
4825.51811
4833.877663
4834.771733
4835.956375
4838.124494
4839.890282
4838.079791
4834.168236
4832.625965
4829.407314
4823.417046
4814.923384
4816.28684
4819.661953
4820.399561
4814.87868
4814.006962
4815.817453
4814.722218
4805.423892
4802.249944
4810.028352
4812.330581
4807.860232
4804.440415
4810.162462
4813.537575
4809.827186
4801.244116
4801.400578
4805.490947
4806.541479
4806.764997
4806.005038
4807.837881
4808.620192
4803.412235
4802.518165
4809.000171
4816.242137
4814.208128
4805.558003
4806.139148
4810.497738
4804.485119
4801.981724
4803.658104
4807.234383
4807.793177
4810.587145
4811.905898
4811.145939
4810.296572
4804.954506
4808.553136
4810.475386
4796.863174
4780.211124
4780.635808
4795.522069
4798.338389
4796.371436
4799.232459
4806.943811
4808.888413
4805.222726
4807.033218
4812.397636
4812.084712
4808.128453
4808.396674
4810.989477
4815.169253
4815.281011
4809.223689
4809.558965
4813.090541
4809.469558
4807.815529
4810.676552
4812.084712
4810.184814
4814.141073
4811.570622
4803.747511
4802.987552
4798.070168
4794.136261
4793.309247
4790.291761
4779.00413
4774.556133
4777.439508
4772.231552
4772.969159
4774.377319
4775.91959
4783.966218
4788.838898
4785.217915
4787.45309
4793.73393
4789.621209
4781.395767
4784.592066
4786.469613
4780.769918
4776.903066
4782.803927
4789.531802
4789.598857
4788.056587
4789.487098
4795.007979
4800.417101
4798.740721
4798.941886
4800.730026
4800.730026
4798.941886
4794.896221
4794.76211
4797.176098
4792.258715
4787.475441
4792.504584
4794.180965
4790.559982
4788.056587
4790.001189
4791.677569
4790.738796
4789.397691
4790.895258
4800.260639
4795.857346
4782.066319
4779.674683
4787.318979
4783.273313
4772.857401
4771.516296
4771.69511
4774.802002
4770.80104
4766.755374
4769.504639
4773.080918
4769.839915
4769.214066
4771.471592
4772.499773
4767.604741
4762.195618
4765.257807
4768.610569
4765.101345
4760.273368
4765.101345
4768.252941
4763.268502
4757.144124
4756.384165
4763.827296
4766.107174
4764.319034
4762.061508
4767.269464
4768.834087
4766.643616
4764.542552
4766.196581
4771.873924
4771.024557
4768.655273
4772.142145
4772.231552
4765.123697
4762.888522
4765.593084
4769.035252
4768.208238
4765.727194
4767.358871
4770.510467
4769.951674
4759.625168
4758.507581
4760.072203
4759.558113
4753.031403
4750.907987
4754.640729
4759.446354
4756.384165
4752.09263
4753.970176
4756.875903
4750.103325
4748.739868
4749.298662
4750.30449
4747.801095
4746.638804
4749.343365
4753.679604
4753.366679
4754.14899
4756.495924
4761.837991
4760.206313
4760.183961
4765.41427
4770.756337
4775.15963
4770.041081
4765.637787
4772.611531
4786.69313
4785.977875
4786.17904
4791.81168
4794.829165
4798.919535
4802.473462
4810.676552
4819.684305
4820.913651
4823.528805
4829.116741
4839.465599
4841.589015
4840.583186
4846.796971
4853.278977
4860.476239
4858.486934
4857.682271
4862.711413
4862.264378
4853.256625
4852.943701
4860.096259
4858.241064
4855.178875
4854.061288
4859.939797
4864.812477
4858.129306
4854.038936
4859.090431
4862.085564
4862.465544
4858.084602
4858.576341
4861.347957
4861.482067
4858.531637
4858.039899
4864.231332
4866.220637
4862.197323
4866.935893
4870.758041
4868.366405
4862.28673
4858.665747
4863.1808
4864.924236
4863.404317
4860.923274
4863.717242
4866.622969
4860.655053
4855.670614
4862.309082
4863.046689
4857.749326
4854.865951
4860.967977
4866.667672
4863.829
4860.051556
4859.939797
4863.337262
4861.549123
4856.877608
4857.391698
4863.292559
4865.393623
4860.23037
4857.391698
4861.638529
4862.264378
4858.375175
4855.134172
4861.370309
4864.991291
4861.146791
4862.174971
4865.348919
4866.958245
4865.728899
4862.644358
4864.20898
4874.624893
4871.987387
4864.767774
4866.51121
4867.651149
4868.008777
4863.203152
4861.169143
4868.612274
4879.207001
4878.067062
4862.890227
4858.799858
4862.174971
4854.553027
4843.086582
4844.98648
4848.339242
4847.020489
4847.109896
4850.23914
4850.596768
4850.328547
4849.300367
4847.176951
4850.596768
4846.685212
4844.47239
4845.746439
4848.741573
4848.585111
4845.254701
4844.114762
4850.37325
4854.195399
4850.820285
4850.015622
4851.803762
4852.764887
4850.261492
4848.518056
4851.513189
4854.709489
4850.932044
4847.8028
4854.955358
4859.649224
4856.65409
4852.966053
4855.11182
4862.934931
4862.554951
4855.312986
4851.692003
4853.435439
4854.396564
4851.088506
4855.156524
4856.743497
4855.380041
4857.615215
4864.343091
4867.606445
4874.401376
4868.791088
4865.10305
4869.528695
4871.607408
4867.494687
4868.478163
4871.361538
4872.41207
4865.639492
4858.486934
4863.270207
4865.99712
4866.064175
4862.309082
4862.934931
4866.108878
4866.354748
4862.845524
4861.862047
4868.366405
4871.607408
4863.247855
4860.498591
4867.360576
4869.305178
4865.415974
4861.817343
4866.779431
4866.13123
4864.656015
4863.538428
4867.785259
4875.004873
4870.601579
4865.438326
4865.147753
4869.08166
4869.931027
4866.891189
4869.46164
4878.201172
4882.716225
4882.649169
4882.693873
4886.940704
4889.868783
4881.419823
4874.84841
4877.709434
4875.675425
4867.651149
4864.343091
4872.300312
4876.904771
4872.546181
4867.584094
4864.164277
4870.780393
4869.171067
4863.516076
4863.270207
4866.891189
4868.522867
4866.242989
4863.717242
4865.192457
4865.281864
4860.923274
4856.251759
4858.755154
4861.794992
4860.632701
4858.531637
4861.77264
4865.863009
4868.254646
4873.127326
4868.05348
4860.006852
4858.241064
4856.050593
4856.452925
4857.838733
4853.547198
4849.009794
4851.26732
4858.129306
4855.4918
4849.367422
4848.562759
4853.971881
4853.435439
4848.786276
4849.34507
4856.497628
4855.782372
4847.959262
4844.874721
4848.987442
4852.206093
4850.686175
4848.585111
4849.590939
4851.78141
4846.931082
4843.310099
4847.668689
4851.915521
4849.85916
4845.12059
4845.299404
4849.970919
4850.797933
4846.349936
4847.780448
4854.46362
4856.072945
4848.696869
4847.869855
4853.591901
4854.418916
4850.328547
4849.546236
4852.250797
4857.637567
4861.660881
4856.89996
4849.434477
4848.741573
4847.28871
4838.83975
4838.079791
4843.980651
4844.830018
4841.410201
4844.450038
4850.596768
4850.596768
4852.697832
4862.599655
4873.216733
4875.496611
4868.232294
4862.443192
4865.840657
4864.164277
4856.00589
4850.462657
4851.535541
4853.033108
4849.568587
4846.416992
4846.864026
4854.016585
4850.619119
4844.226521
4845.12059
4847.847503
4846.171122
4843.913596
4844.673555
4844.651204
4841.857236
4836.582224
4835.844616
4841.119628
4841.79018
4836.2693
4836.40341
4840.829055
4841.767829
4839.130323
4835.88932
4837.006907
4839.86793
4838.169198
4836.738686
4837.029259
4840.069096
4836.179893
4829.474369
4835.554044
4837.275128
4834.212939
4829.563776
4830.569605
4837.94568
4841.343146
4844.181817
4846.215826
4848.048669
4854.485971
4847.400468
4834.570567
4832.245986
4831.620137
4819.885471
4811.771788
4815.370418
4817.605593
4808.396674
4805.088616
4811.235346
4812.732913
4812.263526
4811.145939
4809.49191
4812.419988
4812.397636
4806.899107
4809.894241
4814.945735
4809.938945
4807.904936
4811.637677
4816.018619
4815.77275
4810.408331
4811.391808
4818.298497
4817.672648
4814.051666
4814.476349
4818.901994
4819.349029
4815.549232
4812.196471
4816.443302
4821.427741
4817.069151
4815.213956
4814.029314
4816.219785
4816.130378
4813.202299
4813.023485
4816.778578
4817.225613
4811.481215
4811.257697
4814.87868
4817.359724
4818.052628
4819.349029
4820.019581
4817.002096
4811.011828
4811.347104
4815.996267
4820.600727
4812.397636
4805.893279
4807.346142
4811.212994
4802.83109
4792.102252
4793.756282
4797.06434
4798.405444
4790.269409
4792.370473
4801.244116
4800.417101
4798.561907
4797.153747
4798.383093
4798.517203
4795.209145
4792.258715
4798.159575
4799.433625
4796.326732
4792.035197
4798.003113
4802.182889
4796.796119
4790.962314
4793.800985
4795.253848
4790.40352
4786.983703
4789.710616
4795.253848
4798.763072
4792.415177
4793.197488
4794.940924
4795.2762
4790.716444
4790.671741
4795.65618
4796.058511
4791.141127
4792.146956
4793.86804
4797.310209
4794.292723
4784.659122
4785.307322
4799.455976
4806.116796
4806.496776
4817.493834
4827.552119
4829.452017
4831.821302
4840.046744
4850.037974
4852.474314
4854.888303
4862.80082
4868.56757
4872.881457
4874.937817
4869.707509
4872.65794
4873.999044
4867.740556
4868.075832
4873.68612
4873.596713
4869.506344
4868.612274
4872.501477
4871.920332
4869.662806
4866.444155
4870.35571
4871.920332
4871.562704
4867.740556
4873.060271
4883.453832
4884.258495
4880.816326
4879.944608
4883.319722
4878.17882
4873.931989
4871.272131
4871.182724
4872.635588
4868.142887
4870.266303
4875.854239
4871.38389
4870.288655
4869.08166
4870.422765
4873.328492
4870.467469
4871.160373
4875.407204
4878.871724
4877.195344
4872.881457
4875.496611
4876.971826
4875.273094
4869.372233
4870.243951
4876.25657
4877.061233
4873.015567
4871.38389
4870.311006
4871.406242
4870.690986
4870.378062
4871.942684
4869.640454
4865.885361
4865.75125
4869.863971
4871.361538
4869.036957
4866.265341
4874.423727
4876.413033
4862.510248
4856.609387
4856.274111
4859.246893
4861.817343
4859.291596
4855.938835
4859.090431
4862.331434
4857.861085
4856.117649
4858.509285
4856.050593
4855.603558
4859.47041
4859.403355
4858.598692
4858.553989
4854.329509
4857.190532
4861.862047
4856.095297
4855.558855
4861.146791
4863.896056
4861.012681
4856.162352
4856.765849
4858.978672
4859.068079
4855.044765
4857.346995
4861.124439
4858.889265
4854.642433
4854.97771
4860.386832
4861.213846
4859.023375
4855.603558
4861.996157
4863.717242
4858.196361
4856.184704
4859.068079
4862.532599
4862.174971
4859.246893
4860.342128
4862.778468
4861.638529
4855.894131
4857.682271
4860.140963
4860.74446
4857.682271
4858.509285
4862.420841
4862.130268
4857.369346
4857.905788
4863.203152
4862.15262
4860.766811
4865.23716
4867.6735
4868.008777
4862.912579
4860.029204
4863.31491
4864.857181
4861.750288
4859.381003
4863.024338
4869.439288
4867.226466
4860.923274
4860.006852
4866.354748
4865.192457
4861.102088
4860.789163
4861.705585
4864.432498
4863.31491
4861.817343
4863.918407
4865.885361
4863.270207
4861.213846
4864.968939
4870.48982
4868.612274
4868.008777
4871.160373
4872.724995
4873.864934
4870.266303
4868.455812
4871.607408
4864.276035
4857.525809
4858.531637
4863.516076
4861.482067
4857.749326
4860.252721
4864.253684
4864.20898
4861.035032
4862.510248
4866.846486
4865.907713
4863.136096
4861.884399
4863.449021
4865.99712
4862.532599
4856.497628
4858.419878
4870.48982
4868.142887
4866.220637
4872.143849
4875.60837
4875.831887
4877.061233
4879.542277
4883.051501
4881.330416
4874.267265
4875.831887
4880.212829
4877.485916
4873.909637
4874.177858
4878.357634
4878.581152
4871.76387
4868.299349
4874.311969
4881.106899
4876.12246
4873.954341
4876.50244
4880.369291
4879.58698
4875.988349
4876.725957
4887.164222
4895.300257
4882.559762
4868.120535
4873.261437
4870.914503
4859.760983
4857.615215
4856.788201
4852.653128
4845.232349
4838.348012
4844.561797
4846.372288
4845.277053
4844.785314
4843.354803
4843.824189
4840.314965
4840.1138
4845.50057
4847.355765
4842.103105
4841.320794
4842.103105
4841.65607
4841.700773
4840.270262
4844.248872
4848.920387
4847.847503
4844.651204
4846.372288
4848.227483
4844.964128
4842.17016
4843.354803
4847.691041
4847.579282
4844.025355
4844.114762
4847.691041
4849.121553
4846.282881
4841.834884
4842.281919
4843.935948
4840.762
4835.732858
4840.717297
4847.467524
4850.015622
4844.517093
4844.561797
4846.551102
4847.93691
4846.327585
4847.020489
4850.306195
4850.082678
4846.349936
4845.724087
4848.115724
4851.893169
4847.512227
4844.673555
4846.39464
4849.076849
4847.132247
4849.389774
4851.78141
4853.301329
4855.11182
4852.742535
4854.933006
4853.234274
4845.88055
4843.153637
4846.349936
4850.88734
4851.066154
4850.350899
4849.143904
4850.864989
4854.888303
4851.021451
4852.720183
4859.492762
4864.298387
4861.482067
4855.804724
4857.235236
4857.771678
4852.362556
4847.646337
4852.317852
4860.520942
4854.240102
4843.108933
4835.174064
4839.73382
4841.231387
4835.710506
4829.541424
4831.106047
4831.374268
4830.904881
4831.262509
4831.396619
4834.011773
4828.557948
4830.368439
4835.576395
4838.616233
4838.616233
4838.571529
4840.560834
4843.511265
4841.477256
4839.309137
4839.756172
4839.21973
4839.934986
4838.996212
4843.265396
4843.667727
4842.773657
4837.29748
4835.956375
4839.35384
4837.722163
4834.928195
4834.123532
4837.856273
4835.554044
4833.274166
4833.073
4836.112837
4837.096314
4832.93889
4834.324698
4835.777561
4837.520997
4837.43159
4833.050648
4836.582224
4838.370364
4835.88932
4835.330526
4834.838788
4836.984555
4838.750343
4832.469503
4833.944718
4835.822265
4836.02343
4833.229462
4832.69302
4837.900977
4839.912634
4836.559872
4832.916538
4835.554044
4837.43159
4832.603613
4834.279994
4836.02343
4839.934986
4837.342183
4832.000116
4830.63666
4834.950547
4835.777561
4829.60848
4829.697887
4834.48116
4834.704677
4831.351916
4832.625965
4839.510302
4840.1138
4834.302346
4834.034125
4839.823227
4839.778523
4837.29748
4834.48116
4835.174064
4833.162407
4822.970012
4826.635698
4843.9583
4848.96509
4846.595805
4841.700773
4847.579282
4853.658957
4852.831942
4851.870817
4855.022413
4861.77264
4860.811515
4857.145829
4859.805686
4861.25855
4862.376137
4862.756117
4859.47041
4862.063213
4859.805686
4856.341166
4853.278977
4855.670614
4860.185666
4854.530675
4849.278015
4852.384907
4853.591901
4852.429611
4854.933006
4857.704622
4857.592864
4852.429611
4852.653128
4848.249835
4849.143904
4845.925253
4843.153637
4841.678422
4844.003003
4847.400468
4847.8028
4847.355765
4853.949529
4856.587035
4853.994233
4853.346032
4854.910654
4855.849428
4852.027279
4849.34507
4850.127381
4855.290634
4851.513189
4846.998137
4848.003965
4851.110858
4849.702698
4844.673555
4843.690079
4849.434477
4845.701736
4844.897073
4854.798896
4853.860122
4850.306195
4844.159465
4839.957337
4843.757134
4850.507361
4846.305233
4842.080753
4850.082678
4852.496666
4847.623986
4846.439343
4848.115724
4851.736707
4852.004928
4846.573454
4843.287747
4851.893169
4851.110858
4844.561797
4846.238178
4850.686175
4847.109896
4845.299404
4845.098239
4848.674518
4850.440306
4846.059364
4843.935948
4848.227483
4850.842637
4848.763925
4845.008832
4847.8028
4847.154599
4845.165294
4846.662861
4852.362556
4851.669651
4843.019526
4834.279994
4837.029259
4839.063268
4832.69302
4822.142997
4822.142997
4826.903919
4828.110913
4824.311116
4826.434532
4826.903919
4829.563776
4824.981669
4825.316945
4828.446189
4830.681363
4829.362611
4828.110913
4832.000116
4830.927233
4826.456884
4823.372343
4826.613346
4830.413142
4830.167273
4826.948622
4824.579337
4829.899052
4831.374268
4825.920442
4827.730933
4831.53073
4828.245023
4824.422875
4826.859215
4832.961241
4831.128398
4827.015677
4824.020544
4825.719276
4830.077866
4827.485064
4828.088561
4827.485064
4829.250852
4827.954451
4821.763017
4825.384
4828.245023
4823.484102
4819.684305
4824.333468
4831.620137
4827.775637
4826.769808
4829.027334
4834.10118
4834.838788
4830.681363
4829.027334
4831.15075
4837.386887
4833.095352
4823.148826
4822.388866
4821.070113
4819.371381
4814.833977
4815.526881
4821.807721
4815.482177
4811.950602
4819.147863
4821.651259
4818.857291
4817.963221
4816.264488
4819.61725
4820.824244
4809.380151
4808.240212
4814.923384
4815.593936
4813.604631
4812.487043
4814.610459
4818.790235
4816.197433
4809.849538
4814.051666
4819.639602
4821.450093
4820.757189
4823.59586
4823.260584
4820.51132
4816.197433
4813.761093
4814.655163
4812.598802
4809.178985
4813.604631
4817.963221
4814.453997
4810.698904
4814.699866
4816.398599
4810.475386
4805.64741
4802.875793
4808.73195
4812.06236
4810.073055
4809.24604
4812.397636
4815.437474
4814.4987
4812.688209
4811.727084
4811.816491
4810.609497
4807.547308
4808.664895
4814.677514
4811.436511
4807.144977
4813.135244
4817.806759
4815.593936
4809.223689
4808.866061
4814.185776
4815.348067
4813.559927
4812.196471
4816.778578
4822.366514
4821.740666
4816.398599
4810.52009
4815.437474
4814.722218
4808.396674
4808.97782
4813.828148
4813.8505
4810.989477
4813.068189
4813.090541
4808.843709
4807.033218
4806.563831
4810.810663
4810.006
4806.8097
4808.262564
4812.107064
4809.469558
4803.099311
4799.254811
4804.127491
4805.490947
4802.9652
4802.741683
4802.764035
4806.317962
4807.234383
4802.317
4804.127491
4808.284915
4806.541479
4802.406407
4802.249944
4804.730988
4806.876756
4802.138186
4804.082788
4809.648372
4810.631849
4803.926325
4800.90884
4806.317962
4811.347104
4807.100273
4805.379189
4807.480253
4812.755264
4806.317962
4805.625058
4811.302401
4814.319886
4812.688209
4808.508433
4808.575488
4811.704732
4813.626982
4814.163424
4807.815529
4805.937982
4804.37336
4800.52886
4800.52886
4799.970067
4798.293686
4795.544421
4792.504584
4795.14209
4798.4725
4799.008942
4797.891354
4798.628962
4798.137223
4795.700883
4794.471537
4798.964238
4800.126529
4796.662008
4794.315075
4800.506508
4807.144977
4803.613401
4795.365607
4798.696017
4804.663933
4806.273258
4798.807776
4799.187755
4800.975895
4800.52886
4794.471537
4795.745587
4799.1207
4799.254811
4795.387959
4794.002151
4802.562869
4804.216898
4803.747511
4805.110968
4810.296572
4811.950602
4808.888413
4802.138186
4805.110968
4809.938945
4800.864136
4793.622171
4796.259677
4803.836918
4799.791253
4792.45988
4795.700883
4801.847613
4804.105139
4798.338389
4795.097386
4801.333523
4800.01477
4795.566773
4796.483194
4800.193584
4803.702808
4799.344218
4797.913706
4799.232459
4798.60661
4795.589125
4793.376302
4793.577468
4795.946753
4791.699921
4793.800985
4801.199412
4801.691151
4794.38213
4788.503622
4789.844726
4792.817508
4791.230534
4786.648427
4787.095462
4791.074072
4790.694093
4790.559982
4788.86125
4790.135299
4792.571639
4787.944828
4786.737834
4790.247058
4793.152784
4787.229572
4785.776709
4791.94579
4794.136261
4787.542497
4784.234438
4788.838898
4790.247058
4788.213049
4789.174174
4790.470575
4793.085729
4788.61538
4781.015787
4780.635808
4784.659122
4784.390901
4780.680511
4780.121717
4784.547363
4788.145994
4785.53084
4784.077976
4789.397691
4790.001189
4788.816546
4784.748529
4784.659122
4792.348122
4791.29759
4784.748529
4787.944828
4789.777671
4787.07311
4778.802965
4774.533781
4785.821412
4793.130433
4790.40352
4795.119738
4807.860232
4811.995305
4813.761093
4823.953488
4834.324698
4840.337317
4841.186683
4842.080753
4843.868893
4850.797933
4849.032146
4842.818361
4845.321756
4846.774619
4844.47239
4843.108933
4845.768791
4846.953433
4849.188608
4845.277053
4844.271224
4846.90873
4846.171122
4843.466561
4844.003003
4849.85916
4844.450038
4838.213901
4840.694945
4845.344108
4846.886378
4845.388811
4844.181817
4846.193474
4848.473352
4845.433515
4840.739648
4843.555968
4844.003003
4843.57832
4842.080753
4841.968994
4845.12059
4847.132247
4843.891244
4842.393678
4844.427686
4844.830018
4838.795047
4838.19155
4842.639547
4842.147808
4843.19834
4846.059364
4852.16139
4853.167218
4853.323681
4852.250797
4852.273149
4852.787239
4854.173047
4847.132247
4848.227483
4851.982576
4848.071021
4841.633718
4845.679384
4851.557893
4846.998137
4842.192512
4847.959262
4850.909692
4848.808628
4845.455867
4844.830018
4849.233311
4850.015622
4847.355765
4846.461695
4849.948567
4853.077811
4845.165294
4838.303308
4841.65607
4848.96509
4848.585111
4847.087544
4851.423782
4852.876646
4851.26732
4848.205131
4848.853332
4853.502495
4850.149733
4845.701736
4847.780448
4855.000061
4857.682271
4853.122515
4852.094335
4854.329509
4856.050593
4851.468486
4849.926215
4853.636605
4855.044765
4852.586073
4853.547198
4855.62591
4856.967015
4853.591901
4850.261492
4855.067117
4857.324643
4852.362556
4855.447096
4861.77264
4858.978672
4849.032146
4842.930119
4842.326622
4844.673555
4839.487951
4832.223634
4831.910709
4831.776599
4837.744515
4838.638584
4833.028297
4837.766866
4839.644413
4833.877663
4832.849483
4836.2693
4835.263471
4831.53073
4830.927233
4833.117704
4837.163369
4837.833922
4834.011773
4834.99525
4838.817398
4840.314965
4832.804779
4832.715372
4839.689116
4839.800875
4833.922366
4834.034125
4839.800875
4838.616233
4833.363573
4834.637622
4835.442285
4836.716334
4834.078829
4829.452017
4832.089523
4836.559872
4835.330526
4834.257643
4835.151712
4837.141018
4839.331489
4833.900015
4833.028297
4833.58709
4834.816436
4829.675535
4827.105084
4833.229462
4834.369401
4831.575433
4829.943756
4833.944718
4835.822265
4830.63666
4829.496721
4830.994288
4830.524901
4827.552119
4825.629869
4829.60848
4833.251814
4831.866006
4825.160483
4828.312079
4833.721201
4829.407314
4824.199358
4823.08177
4828.423837
4829.452017
4834.168236
4834.414105
4825.24989
4824.221709
4819.61725
4816.622116
4820.399561
4819.416084
4813.492872
4814.87868
4819.907823
4822.94766
4817.382075
4815.079846
4818.566718
4820.444264
4815.705695
4814.319886
4822.299459
4829.027334
4827.909747
4823.372343
4824.333468
4828.043858
4826.613346
4818.745532
4818.58907
4819.907823
4813.939907
4813.448168
4811.861195
4819.214919
4819.572546
4813.157596
4813.358761
4818.231442
4818.007924
4814.945735
4813.291706
4818.007924
4819.639602
4816.845634
4815.996267
4820.243099
4826.076904
4820.421913
4813.247003
4812.867023
4818.298497
4819.058456
4816.488006
4814.319886
4817.024448
4821.941831
4819.796064
4815.370418
4819.863119
4824.132302
4817.963221
4814.208128
4818.030276
4820.064285
4824.758151
4826.166311
4830.502549
4838.727991
4842.706602
4842.863064
4846.238178
4852.049631
4854.530675
4854.888303
4852.496666
4854.173047
4852.943701
4842.639547
4844.181817
4851.379079
4851.043803
4846.01466
4845.835846
4849.613291
4848.96509
4846.975785
4848.451
4846.037012
4845.947605
4840.873759
4836.224596
4843.935948
4850.932044
4847.087544
4843.19834
4846.39464
4847.55693
4841.320794
4840.292614
4844.584148
4846.439343
4843.06423
4840.762
4840.806704
4845.902901
4845.545273
4839.979689
4840.24791
4846.506398
4846.752268
4846.439343
4845.612329
4852.496666
4852.273149
4836.40341
4831.262509
4835.442285
4833.095352
4830.234329
4825.607517
4826.79216
4830.189625
4830.681363
4826.032201
4827.239195
4832.134227
4833.229462
4829.675535
4826.635698
4830.815474
4828.937927
4825.562814
4825.339297
4827.909747
4831.463674
4826.993326
4827.060381
4831.374268
4830.12257
4828.513244
4827.485064
4826.993326
4831.687192
4830.524901
4826.143959
4828.937927
4833.363573
4833.140055
4829.384962
4829.496721
4832.201282
4835.37523
4831.106047
4827.641526
4829.206148
4833.475331
4830.010811
4826.859215
4829.161445
4830.033163
4827.552119
4830.100218
4837.476294
4834.48116
4821.003058
4814.856328
4817.784407
4817.560889
4813.917555
4806.764997
4807.659067
4811.816491
4811.727084
4810.251869
4808.575488
4812.57645
4812.688209
4808.441378
4806.541479
4812.82232
4817.493834
4814.833977
4814.677514
4815.102198
4817.426779
4817.560889
4814.74457
4815.39277
4818.298497
4814.163424
4812.688209
4816.108026
4822.165349
4820.332506
4816.890337
4820.466616
4824.735799
4818.499663
4812.464692
4810.475386
4815.303363
4814.945735
4810.117759
4806.519128
4809.268392
4812.352933
4807.994343
4807.659067
4811.257697
4815.303363
4813.716389
4810.698904
4811.905898
4814.006962
4813.001134
4810.765959
4812.844671
4817.583241
4812.755264
4807.346142
4809.447206
4808.709599
4803.792215
4799.143052
4810.14011
4824.624041
4821.405389
4818.164387
4821.248927
4819.259622
4817.82911
4813.492872
4809.514261
4813.939907
4817.270317
4816.488006
4815.660991
4819.840767
4816.443302
4815.124549
4812.352933
4814.453997
4818.499663
4816.443302
4813.694038
4815.102198
4819.23727
4821.248927
4819.818416
4817.762055
4817.627945
4815.348067
4814.029314
4815.325715
4815.504529
4817.225613
4814.118721
4812.911727
4823.886433
4824.422875
4808.463729
4804.574526
4811.727084
4813.671686
4806.653238
4799.523032
4802.562869
4803.412235
4798.673665
4796.55025
4798.427796
4799.075997
4799.143052
4794.963276
4793.711578
4799.523032
4803.591049
4798.494851
4799.657142
4803.412235
4804.261601
4797.131395
4796.326732
4802.294648
4804.328657
4802.182889
4799.008942
4802.920497
4805.535651
4803.434587
4801.288819
4801.914668
4803.680456
4800.797081
4799.947715
4802.361703
4803.993381
4802.227593
4800.238287
4800.618267
4806.496776
4806.720293
4801.132357
4798.248982
4799.344218
4795.946753
4795.343255
4799.523032
4811.682381
4825.942794
4826.166311
4821.248927
4825.607517
4831.597785
4831.508378
4832.447151
4838.236253
4844.584148
4841.320794
4836.671631
4834.682326
4837.878625
4837.275128
4833.654145
4833.765904
4838.079791
4840.583186
4837.185721
4834.592919
4839.130323
4841.298442
4837.968032
4834.078829
4837.923329
4840.62789
4834.659974
4832.313041
4834.570567
4836.492817
4836.738686
4834.61527
4837.520997
4839.979689
4837.29748
4833.542387
4835.174064
4837.185721
4840.024393
4839.577358
4837.833922
4841.097276
4838.571529
4834.414105
4833.497683
4837.565701
4839.085619
4837.722163
4836.135189
4837.051611
4838.19155
4832.022468
4829.519073
4832.469503
4834.727029
4836.001079
4833.542387
4840.1138
4845.724087
4844.226521
4843.600672
4848.071021
4846.841675
4839.286785
4833.96707
4830.63666
4832.514206
4833.989422
4837.386887
4835.88932
4838.415067
4838.236253
4833.832959
4830.234329
4832.871834
4832.871834
4828.446189
4825.875738
4831.329564
4835.308175
4836.157541
4831.15075
4833.877663
4839.711468
4837.520997
4829.697887
4833.475331
4836.157541
4833.631794
4828.110913
4828.021506
4833.654145
4837.632756
4833.475331
4832.849483
4834.61527
4839.376192
4834.727029
4831.486026
4836.381058
4838.348012
4835.50934
4833.542387
4838.124494
4835.531692
4830.234329
4827.552119
4829.384962
4835.621099
4830.346087
4825.831035
4830.368439
4834.056477
4833.609442
4830.100218
4831.508378
4834.61527
4836.9175
4833.542387
4832.715372
4842.147808
4848.115724
4834.905843
4821.092465
4825.205186
4830.480198
4829.340259
4824.691096
4826.322773
4830.681363
4828.33443
4821.763017
4823.417046
4827.552119
4828.356782
4825.741628
4823.014715
4824.065247
4825.316945
4829.027334
4839.242082
4841.432553
4838.392715
4818.544366
4811.54827
4829.183797
4867.070003
4842.974823
4803.926325
4826.993326
4842.103105
4831.888358
4829.519073
4812.129416
4850.619119
4851.490838
4806.385017
4784.145031
4806.273258
4856.274111
4817.538538
4817.605593
4813.448168
4823.327639
4846.931082
4794.136261
4797.95841
4799.746549
4790.425872
4788.011883
4819.505491
4826.590994
4829.295555
4812.375285
4800.90884
4803.881622
4818.119683
4777.551267
4784.815584
4804.708636
4822.411218
4810.408331
4825.987497
4851.379079
4850.037974
4830.346087
4814.901032
4814.811625
4824.177006
4831.351916
4833.58709
4829.116741
4828.736762
4825.831035
4841.253739
4840.62789
4842.55014
4844.852369
4848.585111
4848.585111
4852.206093
4849.009794
4850.37325
4857.101125
4852.273149
4843.868893
4847.355765
4847.512227
4851.110858
4865.863009
4860.163314
4860.319777
4862.130268
4858.799858
4846.484047
4865.438326
4865.460678
4862.085564
4859.179838
4855.223579
4848.696869
4855.670614
4859.224541
4850.462657
4854.038936
4850.708526
4854.08364
4845.098239
4855.067117
4848.920387
4851.334375
4860.096259
4852.653128
4841.745477
4851.826114
4849.970919
4847.534579
4849.34507
4857.883436
4848.96509
4846.416992
4857.682271
4865.952416
4857.995195
4844.047707
4841.901939
4848.585111
4831.307212
4825.89809
4839.622061
4846.729916
4844.964128
4843.421858
4840.091448
4843.935948
4841.365497
4845.031183
4855.178875
4860.453887
4855.782372
4838.169198
4855.558855
4860.766811
4845.947605
4851.692003
4855.894131
4848.652166
4847.691041
4857.905788
4847.959262
4848.339242
4858.084602
4857.816381
4870.48982
4860.833867
4855.62591
4868.008777
4860.476239
4855.827076
4855.961186
4845.232349
4833.631794
4846.461695
4876.703605
4879.475222
4855.290634
4845.50057
4858.643396
4855.782372
4844.807666
4849.590939
4843.868893
4849.590939
4868.411108
4875.340149
4867.472335
4855.402393
4851.759058
4850.820285
4852.720183
4862.309082
4868.344053
4863.672538
4855.402393
4861.951454
4857.369346
4849.85916
4855.894131
4863.449021
4855.380041
4838.973861
4844.114762
4862.085564
4878.871724
4881.978617
4886.180745
4871.942684
4861.459716
4857.682271
4852.407259
4861.370309
4864.007814
4860.520942
4873.842582
4880.659864
4875.541315
4868.902846
4866.108878
4868.455812
4869.171067
4866.578265
4860.342128
4865.840657
4870.668634
4864.521905
4855.447096
4853.010756
4868.299349
4877.66473
4862.107916
4869.908675
4871.070966
4876.971826
4867.137059
4871.696815
4891.723978
4880.279884
4872.345015
4878.201172
4879.58698
4888.706492
4883.029149
4867.472335
4879.654036
4887.924181
4887.27598
4878.648207
4880.86103
4887.588905
4886.068986
4872.568533
4881.777451
4895.456719
4907.526661
4903.346885
4887.007759
4883.967922
4886.2478
4889.846431
4905.291486
4901.446986
4889.622914
4884.414957
4878.312931
4884.660826
4892.126309
4885.778414
4887.454794
4902.095187
4910.07476
4898.228335
4884.370254
4883.118556
4881.37512
4891.433405
4890.159355
4884.973751
4895.881402
4895.300257
4885.934876
4887.164222
4888.259457
4889.689969
4881.263361
4876.480088
4894.83087
4906.856109
4908.621896
4906.073797
4903.145719
4893.556821
4885.130213
4883.967922
4886.806594
4889.466451
4891.053425
4886.203097
4893.221544
4899.345922
4898.518908
4896.060216
4890.204059
4886.359559
4889.824079
4885.689007
4879.765794
4879.631684
4880.257533
4877.351806
4874.267265
4874.401376
4880.145774
4883.900867
4880.190477
4878.625855
4882.537411
4877.329454
4867.740556
4869.819268
4879.542277
4889.57821
4886.516021
4878.201172
4870.802745
4878.782317
4887.164222
4888.102995
4894.070911
4886.11369
4875.049576
4875.049576
4884.102033
4882.582114
4875.116631
4872.881457
4877.217695
4880.190477
4871.00391
4868.835791
4879.45287
4886.918352
4881.37512
4871.048614
4877.083585
4883.453832
4879.58698
4874.669597
4875.831887
4871.38389
4866.980596
4866.64532
4871.942684
4879.564629
4880.883381
4874.535486
4872.568533
4864.611312
4862.622006
4859.515114
4853.033108
4858.352823
4873.507306
4876.301274
4869.595751
4873.663768
4875.116631
4871.026262
4867.137059
4863.784297
4866.779431
4866.846486
4859.9845
4857.03407
4868.008777
4863.56078
4856.363518
4859.939797
4862.15262
4866.153582
4860.74446
4854.843599
4853.010756
4863.963111
4869.528695
4865.438326
4867.785259
4872.300312
4869.439288
4871.473297
4872.479126
4872.166201
4868.031128
4871.920332
4878.648207
4890.874611
4889.309989
4878.827021
4877.396509
4875.787184
4873.216733
4868.589922
4872.121498
4880.883381
4878.201172
4867.6735
4866.377099
4870.914503
4878.201172
4879.184649
4876.837716
4878.245876
4875.518963
4874.669597
4877.463565
4881.956265
4884.83964
4879.810498
4874.669597
4876.390681
4879.139945
4872.836753
4872.345015
4874.177858
4876.63655
4875.563666
4873.328492
4872.322663
4878.625855
4877.284751
4876.994178
4879.989312
4874.669597
4864.58896
4861.638529
4866.958245
4865.863009
4869.685157
4867.517038
4861.079736
4861.526771
4862.599655
4860.23037
4858.643396
4865.371271
4871.987387
4872.188553
4861.638529
4858.241064
4859.693928
4863.046689
4854.687137
4857.302291
4863.091393
4867.91937
4865.661843
4868.299349
4868.679329
4870.378062
4868.411108
4866.690024
4869.819268
4866.220637
4859.693928
4854.329509
4858.688099
4864.119573
4862.197323
4852.250797
4852.317852
4866.734727
4869.931027
4864.454849
4861.884399
4862.867875
4860.073907
4859.537466
4861.77264
4868.679329
4868.634626
4864.901884
4862.309082
4860.498591
4867.91937
4871.38389
4869.819268
4867.91937
4868.165239
4866.64532
4862.376137
4865.013643
4867.986425
4872.389719
4870.221599
4873.30614
4873.373195
4873.395547
4869.573399
4866.242989
4871.093317
4871.495649
4871.316835
4868.902846
4870.780393
4871.205076
4867.204114
4861.90675
4867.137059
4869.97573
4866.846486
4864.656015
4866.578265
4871.719166
4875.854239
4866.51121
4866.734727
4872.054442
4869.863971
4867.852314
4867.449983
4868.969902
4866.354748
4863.337262
4868.522867
4873.350844
4876.077756
4870.579227
4866.667672
4872.166201
4874.893114
4871.070966
4863.784297
4869.104012
4874.155506
4863.091393
4863.337262
4867.40528
4869.014605
4866.891189
4862.242027
4856.452925
4861.102088
4867.561742
4871.987387
4871.518001
4862.465544
4855.894131
4853.904826
4856.184704
4855.760021
4861.929102
4856.89996
4854.508323
4855.558855
4853.726012
4849.568587
4848.473352
4849.501532
4854.351861
4856.877608
4853.368384
4855.469448
4855.156524
4852.273149
4852.16139
4850.909692
4856.743497
4858.732803
4852.027279
4851.423782
4852.496666
4853.748364
4857.190532
4850.708526
4845.187646
4845.835846
4844.204169
4841.454904
4846.327585
4851.513189
4857.861085
4852.787239
4849.948567
4852.988404
4850.954396
4846.059364
4845.746439
4848.808628
4847.020489
4845.724087
4848.629814
4852.653128
4852.697832
4851.200265
4847.333413
4855.804724
4852.720183
4856.676442
4853.256625
4848.294538
4843.600672
4838.750343
4833.788256
4840.382021
4848.115724
4845.947605
4844.6065
4851.244968
4852.586073
4849.032146
4850.976747
4852.54137
4855.402393
4852.764887
4843.757134
4842.483084
4845.321756
4843.891244
4844.830018
4842.885416
4841.65607
4843.600672
4838.817398
4839.957337
4847.512227
4848.138076
4841.991346
4840.270262
4841.857236
4841.812532
4839.845579
4841.812532
4843.153637
4847.28871
4841.633718
4836.001079
4839.666765
4844.114762
4840.337317
4836.2693
4840.918462
4839.35384
4837.208073
4838.683288
4837.789218
4833.944718
4827.350954
4821.830073
4818.656125
4819.863119
4820.198395
4819.147863
4819.080808
4821.986535
4828.356782
4826.725105
4820.354857
4827.328602
4829.340259
4825.451055
4823.953488
4827.17214
4831.463674
4827.395657
4821.003058
4818.007924
4818.767884
4822.120645
4817.113855
4818.522014
4824.109951
4821.628907
4814.610459
4815.638639
4819.304325
4819.058456
4818.097331
4819.61725
4824.601689
4825.696924
4820.846596
4815.482177
4818.700828
4815.035142
4815.035142
4822.970012
4831.553081
4837.409239
4839.934986
4843.913596
4850.574416
4862.756117
4865.974768
4865.728899
4874.379024
4877.463565
4877.374158
4876.077756
4874.289617
4872.747346
4872.523829
4870.690986
4874.490783
4882.000969
4880.413995
4873.104974
4868.075832
4873.619065
4877.754137
4873.149678
4873.775527
4878.290579
4877.821192
4877.262399
4877.642379
4872.970864
4876.390681
4879.095242
4872.970864
4872.434422
4875.384852
4875.161335
4875.22839
4869.528695
4870.601579
4872.233256
4872.769698
4872.389719
4874.7143
4875.22839
4874.84841
4869.752213
4871.428594
4876.569495
4870.020434
4866.354748
4872.166201
4876.63655
4877.01653
4875.653073
4871.875628
4872.948512
4871.853277
4869.059309
4868.120535
4870.020434
4874.826059
4870.534524
4870.467469
4875.384852
4877.977655
4874.937817
4866.690024
4868.455812
4870.690986
4868.522867
4867.449983
4873.708472
4878.268227
4877.061233
4882.716225
4882.313893
4879.832849
4879.363463
4874.557838
4878.737614
4882.559762
4875.60837
4878.737614
4884.616123
4879.408166
4865.23716
4857.771678
4859.515114
4865.281864
4875.407204
4870.601579
4867.002948
4867.047652
4867.91937
4868.299349
4864.879532
4866.332396
4871.428594
4868.858143
4867.449983
4866.064175
4867.226466
4872.255608
4868.478163
4870.199248
4868.746384
4870.735689
4866.712375
4861.839695
4864.186628
4863.985463
4863.650186
4861.035032
4864.030166
4864.58896
4861.482067
4859.805686
4864.119573
4867.695852
4865.080698
4861.25855
4864.72307
4865.371271
4864.611312
4861.370309
4862.197323
4864.946588
4866.958245
4865.326567
4864.164277
4866.265341
4874.110803
4872.188553
4869.528695
4872.92616
4869.193419
4864.410146
4864.611312
4869.46164
4868.701681
4864.544256
4861.549123
4864.499553
4867.449983
4866.242989
4866.019471
4867.91937
4874.781355
4872.032091
4859.246893
4856.229407
4865.550085
4864.343091
4856.743497
4852.898997
4853.211922
4853.256625
4850.641471
4850.127381
4853.077811
4853.591901
4847.132247
4847.981614
4851.110858
4854.575378
4855.000061
4851.915521
4854.664785
4857.03407
4855.335338
4855.4918
4852.16139
4853.457791
4853.390736
4846.439343
4848.294538
4846.662861
4849.233311
4848.451
4852.921349
4858.464582
4856.788201
4848.406297
4850.574416
4852.384907
4854.798896
4850.283843
4845.567625
4852.787239
4858.621044
4854.307157
4847.646337
4848.920387
4853.211922
4852.429611
4846.998137
4848.942739
4852.317852
4851.155561
4845.098239
4846.729916
4852.027279
4850.172085
4848.339242
4849.523884
4851.714355
4852.697832
4851.714355
4851.714355
4840.694945
4836.045782
4834.838788
4834.771733
4834.816436
4837.029259
4837.655108
4832.022468
4830.971936
4831.597785
4827.574471
4832.000116
4832.268337
4834.704677
4839.845579
4834.592919
4838.973861
4843.824189
4844.561797
4842.371326
4838.102143
4840.560834
4838.057439
4832.581262
4829.60848
4834.816436
4838.32566
4830.368439
4830.323736
4835.531692
4839.510302
4834.838788
4833.251814
4835.956375
4838.638584
4839.309137
4835.330526
4827.30625
4831.709544
4830.882529
4820.734837
4815.683343
4817.762055
4815.593936
4808.799006
4802.741683
4804.909802
4811.123587
4813.314058
4814.074017
4815.951564
4815.973916
4808.061398
4806.988514
4812.643506
4814.297535
4809.24604
4804.708636
4809.067227
4809.335447
4808.620192
4804.976857
4805.200375
4811.168291
4810.207166
4805.110968
4808.351971
4809.290744
4804.999209
4799.768901
4802.473462
4807.301439
4809.089578
4804.865099
4804.082788
4805.558003
4806.541479
4799.768901
4790.381168
4795.253848
4802.428758
4800.39475
4803.300476
4802.696979
4806.8097
4804.351008
4799.187755
4800.39475
4802.026427
4798.696017
4798.248982
4804.641581
4810.676552
4810.497738
4806.899107
4803.635753
4797.869003
4796.438491
4806.317962
4811.101235
4818.387904
4824.042895
4825.451055
4827.641526
4836.716334
4845.791143
4850.797933
4851.446134
4852.273149
4857.168181
4854.396564
4848.763925
4847.065192
4851.13321
4850.037974
4846.819323
4845.768791
4849.322718
4846.841675
4848.138076
4848.808628
4851.222617
4849.188608
4847.914558
4847.668689
4848.138076
4855.514152
4853.636605
4847.489875
4853.033108
4856.38587
4852.094335
4848.003965
4848.920387
4855.067117
4854.910654
4851.714355
4855.804724
4862.130268
4858.95632
4854.173047
4854.620082
4853.502495
4851.066154
4846.349936
4846.819323
4850.328547
4848.987442
4844.539445
4844.6065
4848.674518
4850.864989
4851.356727
4850.23914
4851.177913
4853.547198
4847.020489
4843.891244
4851.446134
4853.636605
4860.319777
4862.264378
4858.06225
4851.312024
4848.227483
4841.834884
4841.007869
4846.864026
4848.585111
4843.086582
4840.806704
4844.114762
4845.657032
4838.169198
4835.822265
4840.002041
4838.862102
4832.201282
4830.457846
4833.497683
4837.006907
4836.515169
4834.391753
4838.280957
4840.896111
4837.163369
4833.698849
4837.29748
4837.498645
4838.146846
4837.163369
4836.068134
4836.850445
4838.526826
4834.10118
4830.569605
4840.24791
4838.951509
4834.10118
4830.323736
4835.799913
4838.795047
4834.592919
4835.397582
4837.364535
4838.415067
4834.771733
4836.157541
4837.006907
4839.73382
4839.309137
4836.112837
4840.024393
4842.438381
4839.286785
4833.989422
4838.638584
4846.059364
4847.378117
4840.225558
4840.404372
4845.835846
4845.209997
4839.398544
4837.610404
4843.533616
4843.086582
4837.833922
4836.448113
4840.359669
4843.332451
4836.78339
4832.670669
4833.497683
4836.716334
4837.588052
4831.351916
4832.93889
4840.762
4838.973861
4836.045782
4837.386887
4847.780448
4841.387849
4829.764942
4828.84852
4829.675535
4826.143959
4820.399561
4822.522977
4826.233366
4829.183797
4829.183797
4826.501587
4827.127436
4824.668744
4824.109951
4820.690134
4821.628907
4830.681363
4832.69302
4822.522977
4823.819378
4828.066209
4823.394695
4817.672648
4822.43357
4830.502549
4836.604576
4836.157541
4835.554044
4842.706602
4848.406297
4846.327585
4844.651204
4850.596768
4847.735744
4844.159465
4842.416029
4843.71243
4845.947605
4842.237215
4838.437419
4841.209035
4843.399506
4841.521959
4838.213901
4838.772695
4843.600672
4840.62789
4836.515169
4839.420896
4842.68425
4841.27609
4842.147808
4844.897073
4845.50057
4844.047707
4841.633718
4839.73382
4842.885416
4845.657032
4841.097276
4840.359669
4845.388811
4850.686175
4845.455867
4842.885416
4848.182779
4846.640509
4842.706602
4839.487951
4844.070058
4847.445172
4843.108933
4840.873759
4846.953433
4852.384907
4855.447096
4859.47041
4864.879532
4865.75125
4875.273094
4875.071928
4870.802745
4873.82023
4873.17203
4869.707509
4868.388756
4870.199248
4872.970864
4865.661843
4860.297425
4867.204114
4876.033053
4875.74248
4868.858143
4872.65794
4869.483992
4870.959207
4870.579227
4868.299349
4871.875628
4872.769698
4868.880495
4869.931027
4872.814402
4873.261437
4871.518001
4870.243951
4871.361538
4873.999044
4872.143849
4869.126364
4874.937817
4873.529658
4872.434422
4870.936855
4871.38389
4872.501477
4871.160373
4863.829
4863.471373
4867.740556
4868.746384
4869.349881
4873.037919
4877.709434
4876.681254
4871.138021
4866.958245
4868.478163
4868.075832
4864.253684
4861.303253
4860.990329
4860.923274
4865.147753
4862.309082
4864.320739
4866.466506
4862.644358
4862.577303
4861.437364
4860.453887
4858.866913
4859.179838
4855.938835
4858.151657
4856.363518
4857.726974
4859.269245
4860.208018
4858.352823
4856.676442
4854.038936
4859.917445
4860.431535
4854.262454
4854.396564
4859.515114
4864.432498
4861.705585
4861.549123
4852.854294
4856.117649
4865.773602
4857.190532
4854.240102
4849.769753
4848.585111
4842.661898
4845.321756
4853.390736
4846.752268
4847.959262
4846.90873
4846.998137
4848.696869
4840.583186
4845.724087
4842.751305
4841.924291
4835.107009
4832.536558
4836.492817
4838.32566
4838.303308
4835.129361
4834.972898
4836.604576
4831.351916
4828.736762
4833.363573
4835.263471
4833.251814
4833.609442
4832.447151
4837.766866
4838.795047
4836.962204
4838.862102
4841.320794
4836.78339
4829.988459
4829.362611
4834.99525
4836.872797
4834.436456
4834.749381
4840.784352
4842.885416
4838.169198
4835.777561
4839.21973
4842.147808
4843.310099
4836.78339
4834.034125
4842.483084
4842.416029
4835.88932
4836.336355
4839.443247
4841.343146
4840.180855
4843.846541
4846.774619
4847.512227
4847.400468
4845.232349
4849.34507
4850.999099
4843.220692
4840.449076
4840.091448
4843.175989
4844.360631
4844.874721
4845.88055
4847.467524
4842.147808
4843.779486
4849.769753
4847.311061
4845.567625
4845.701736
4845.835846
4847.065192
4844.181817
4842.773657
4844.718259
4839.35384
4837.94568
4838.079791
4840.829055
4845.36646
4842.505436
4839.242082
4837.923329
4840.337317
4843.287747
4843.310099
4844.919425
4845.835846
4842.192512
4843.555968
4844.382983
4845.522922
4849.188608
4843.377154
4840.314965
4844.09241
4846.439343
4848.696869
4845.165294
4838.817398
4840.426724
4838.593881
4839.800875
4841.410201
4843.779486
4846.931082
4844.47239
4842.147808
4844.047707
4848.540407
4843.980651
4839.845579
4841.298442
4844.226521
4844.003003
4837.878625
4836.179893
4841.499608
4839.577358
4837.073962
4836.179893
4841.410201
4845.455867
4845.88055
4836.470465
4842.594843
4848.607462
4847.847503
4842.751305
4841.209035
4844.450038
4843.287747
4841.589015
4842.527788
4838.795047
4834.99525
4834.972898
4830.569605
4830.100218
4824.981669
4823.819378
4821.606555
4825.920442
4828.155616
4820.51132
4821.248927
4824.400523
4823.797026
4818.611421
4820.198395
4821.472445
4818.3432
4815.482177
4818.58907
4822.746494
4822.478273
4818.700828
4818.097331
4820.712485
4824.378171
4820.779541
4819.281974
4824.48993
4824.020544
4822.701791
4820.064285
4816.488006
4819.863119
4820.712485
4815.370418
4818.432607
4824.825206
4824.556985
4822.321811
4821.763017
4825.607517
4822.321811
4819.036105
4817.851462
4822.321811
4822.522977
4818.3432
4816.063323
4818.298497
4823.014715
4820.399561
4817.136206
4818.432607
4821.718314
4818.790235
4810.6542
4813.604631
4820.488968
4823.215881
4818.432607
4820.220747
4826.680401
4827.909747
4828.245023
4829.340259
4833.58709
4837.230425
4829.519073
4820.801892
4825.361648
4828.222672
4827.060381
4826.769808
4823.193529
4825.384
4824.311116
4821.740666
4823.551157
4824.199358
4826.300422
4821.137169
4822.098294
4828.356782
4828.84852
4822.43357
4817.203262
4821.5395
4830.346087
4830.815474
4830.368439
4830.904881
4830.748419
4827.373305
4825.048724
4826.188663
4827.395657
4829.809645
4824.802855
4825.987497
4829.295555
4827.753285
4826.367477
4827.418009
4828.33443
4828.20032
4824.512282
4824.534634
4826.79216
4828.647355
4828.066209
4827.060381
4832.357744
4834.704677
4829.09439
4827.216843
4834.570567
4834.950547
4825.540462
4822.880605
4828.893224
4832.715372
4828.289727
4827.909747
4829.876701
4830.703715
4830.189625
4824.333468
4825.227538
4828.490892
4828.557948
4828.379134
4835.598747
4847.825151
4840.918462
4825.473407
4826.568642
4834.548215
4840.337317
4840.337317
4838.727991
4836.179893
4833.140055
4835.732858
4838.303308
4840.985518
4845.411163
4840.739648
4838.526826
4841.27609
4843.243044
4847.601634
4846.796971
4850.820285
4853.860122
4848.182779
4843.19834
4845.545273
4851.043803
4857.235236
4849.814457
4847.512227
4851.982576
4849.523884
4842.863064
4852.586073
4857.391698
4850.88734
4844.159465
4844.315928
4854.150695
4852.720183
4848.786276
4845.679384
4849.255663
4853.927178
4850.932044
4845.63468
4845.008832
4848.495704
4845.947605
4846.193474
4842.527788
4843.891244
4846.327585
4844.003003
4844.450038
4850.306195
4850.015622
4843.086582
4842.237215
4844.315928
4846.439343
4839.532654
4834.548215
4837.163369
4841.968994
4839.86793
4838.772695
4838.683288
4843.265396
4842.594843
4839.309137
4839.398544
4843.153637
4847.109896
4848.786276
4849.322718
4854.374213
4858.643396
4849.993271
4846.595805
4849.501532
4845.88055
4839.286785
4838.951509
4842.214864
4849.903864
4847.512227
4843.757134
4845.344108
4848.071021
4843.377154
4838.526826
4846.215826
4850.75323
4851.26732
4849.948567
4844.047707
4838.83975
4838.817398
4834.950547
4835.732858
4834.682326
4841.812532
4840.896111
4843.153637
4843.399506
4842.751305
4838.124494
4833.743552
4840.471427
4842.706602
4838.057439
4835.129361
4837.230425
4842.483084
4842.863064
4839.152675
4839.376192
4841.074925
4841.209035
4837.498645
4838.213901
4845.254701
4842.55014
4837.565701
4836.515169
4837.968032
4840.046744
4836.358707
4836.068134
4839.689116
4843.332451
4841.879587
4841.320794
4844.427686
4842.773657
4839.197378
4837.118666
4840.873759
4840.069096
4839.242082
4834.48116
4833.765904
4836.179893
4838.951509
4845.254701
4837.856273
4843.9583
4845.455867
4842.751305
4841.589015
4845.321756
4847.869855
4844.517093
4844.6065
4847.445172
4850.037974
4847.28871
4844.673555
4850.485009
4853.390736
4851.736707
4851.915521
4851.915521
4854.821247
4855.000061
4847.735744
4849.166256
4854.530675
4850.172085
4844.98648
4847.55693
4847.176951
4846.282881
4842.371326
4843.9583
4850.350899
4850.730878
4848.786276
4843.600672
4846.372288
4846.841675
4842.080753
4843.980651
4849.032146
4851.692003
4849.568587
4845.858198
4850.127381
4852.474314
4846.953433
4844.919425
4846.059364
4850.350899
4847.333413
4847.020489
4849.903864
4855.670614
4866.153582
4856.095297
4842.080753
4842.125457
4844.204169
4841.454904
4836.939852
4839.622061
4843.287747
4840.985518
4839.555006
4841.65607
4839.957337
4837.118666
4835.554044
4840.918462
4846.573454
4846.90873
4845.455867
4853.614253
4860.811515
4854.955358
4850.485009
4849.456829
4846.886378
4841.298442
4837.453942
4837.699811
4842.505436
4841.968994
4838.146846
4836.78339
4840.516131
4840.762
4833.385925
4834.816436
4839.912634
4843.511265
4838.884454
4834.503512
4840.516131
4844.919425
4842.03605
4836.78339
4840.806704
4841.164332
4835.486988
4836.336355
4840.516131
4844.09241
4846.774619
4844.427686
4842.438381
4845.321756
4844.98648
4841.27609
4842.594843
4846.282881
4843.19834
4837.386887
4843.488913
4856.944663
4857.659919
4855.849428
4852.16139
4848.674518
4854.374213
4854.105992
4844.315928
4849.85916
4851.155561
4848.786276
4849.188608
4847.623986
4848.920387
4850.909692
4847.825151
4845.545273
4846.774619
4845.567625
4844.137114
4843.131285
4847.445172
4849.233311
4850.127381
4849.389774
4851.826114
4852.317852
4846.796971
4843.533616
4844.941776
4850.037974
4852.697832
4848.696869
4849.814457
4848.182779
4848.853332
4848.719221
4846.662861
4850.306195
4851.602596
4851.6473
4853.502495
4855.290634
4852.474314
4847.311061
4844.852369
4849.032146
4854.105992
4847.758096
4843.891244
4849.903864
4856.944663
4862.085564
4855.044765
4845.768791
4845.791143
4841.857236
4834.61527
4834.592919
4838.727991
4838.83975
4833.698849
4831.798951
4840.851407
4843.667727
4837.163369
4835.107009
4842.438381
4844.09241
4839.756172
4840.717297
4843.757134
4844.47239
4840.404372
4835.598747
4838.593881
4842.259567
4837.453942
4831.776599
4837.878625
4843.265396
4837.900977
4832.335393
4836.492817
4842.03605
4840.784352
4833.296518
4833.58709
4834.816436
4836.78339
4834.436456
4830.591956
4834.727029
4837.498645
4834.883491
4835.218768
4838.19155
4841.14198
4840.314965
4842.080753
4843.108933
4843.935948
4843.71243
4843.600672
4847.378117
4844.382983
4839.398544
4836.716334
4835.263471
4839.040916
4834.212939
4831.910709
4835.397582
4839.622061
4840.337317
4835.084657
4831.821302
4836.671631
4833.810608
4828.893224
4827.30625
4826.79216
4834.279994
4834.682326
4831.709544
4835.397582
4837.632756
4834.10118
4832.916538
4834.324698
4833.274166
4831.798951
4828.647355
4831.307212
4834.749381
4836.716334
4834.212939
4831.709544
4839.040916
4840.404372
4834.324698
4831.866006
4831.01664
4831.776599
4832.715372
4832.625965
4836.805741
4837.744515
4838.012736
4836.716334
4835.107009
4833.609442
4825.853387
4830.63666
4838.862102
4844.718259
4844.293576
4844.6065
4850.462657
4854.642433
4855.514152
4851.312024
4848.585111
4849.85916
4851.714355
4848.495704
4847.355765
4848.026317
4849.412125
4844.718259
4843.421858
4848.272186
4848.406297
4847.646337
4847.132247
4851.848465
4854.061288
4849.367422
4852.094335
4854.910654
4851.468486
4854.485971
4849.456829
4848.898035
4856.743497
4855.692965
4856.117649
4858.084602
4855.849428
4854.843599
4848.629814
4853.770715
4858.866913
4867.584094
4856.251759
4846.662861
4847.981614
4847.020489
4837.252776
4831.709544
4828.71441
4828.245023
4824.601689
4822.522977
4823.439398
4830.435494
4833.073
4825.540462
4824.109951
4829.966108
4829.586128
4825.026372
4824.333468
4832.402448
4834.279994
4828.021506
4826.836863
4829.787294
4834.145884
4830.25668
4826.054552
4830.591956
4833.832959
4828.71441
4825.205186
4825.875738
4829.74259
4828.155616
4823.238233
4825.227538
4830.480198
4833.095352
4830.100218
4827.216843
4830.547253
4832.089523
4829.072038
4827.328602
4831.262509
4829.630831
4821.450093
4824.087599
4828.915576
4828.043858
4826.434532
4830.524901
4832.447151
4838.593881
4834.883491
4830.569605
4834.659974
4835.531692
4828.781465
4822.299459
4825.361648
4829.854349
4830.144922
4826.255718
4824.758151
4827.82034
4830.591956
4817.382075
4817.851462
4834.771733
4842.863064
4840.538483
4841.119628
4845.657032
4854.195399
4856.00589
4853.726012
4861.817343
4863.426669
4860.006852
4856.788201
4857.481105
4856.430573
4854.687137
4852.027279
4853.211922
4857.078774
4858.866913
4852.943701
4854.284806
4857.212884
4857.168181
4853.547198
4856.38587
4860.789163
4859.291596
4855.223579
4853.435439
4856.162352
4858.755154
4856.00589
4853.837771
4859.85039
4862.376137
4859.626872
4855.827076
4855.62591
4856.408221
4853.860122
4849.568587
4853.882474
4857.726974
4854.776544
4849.657994
4851.960224
4856.452925
4853.390736
4847.981614
4847.534579
4848.853332
4851.200265
4853.256625
4850.37325
4850.261492
4855.044765
4853.301329
4851.379079
4855.178875
4856.050593
4851.423782
4847.892207
4853.346032
4858.755154
4852.54137
4850.507361
4854.888303
4856.341166
4859.358652
4856.117649
4853.480143
4856.855256
4861.504419
4856.229407
4854.59773
4861.593826
4863.024338
4854.955358
4855.581207
4858.643396
4859.515114
4856.072945
4852.340204
4855.402393
4859.403355
4853.480143
4850.976747
4852.608425
4855.4918
4855.335338
4851.580244
4850.529713
4856.318814
4854.955358
4845.522922
4844.271224
4843.153637
4849.21096
4863.203152
4864.052518
4873.30614
4883.923219
4886.62778
4893.556821
4904.173899
4916.847338
4918.613126
4924.0446
4930.437199
4943.065935
4949.145609
4947.938615
4958.756859
4969.66451
4973.106679
4969.932731
4972.458479
4977.420566
4979.231057
4974.40308
4976.727662
4980.907438
4981.019197
4976.414737
4974.872467
4980.16983
4984.461365
4978.359339
4976.638255
4983.343778
4989.78108
4992.865621
4992.843269
4993.938505
4997.425377
4991.412758
4985.198973
4986.249505
4987.143575
4984.818993
4981.868563
4982.33795
4985.578953
4982.539115
4981.756804
4984.193144
4986.137746
4985.355435
4979.65574
4981.734452
4985.042511
4990.786909
4986.428319
4980.862734
4983.589647
4986.137746
4987.948237
4987.903534
4990.965723
5000.733435
5001.69456
5002.163947
5003.885031
5004.265011
4997.090101
4995.436072
4994.765519
4996.710121
4995.41372
4995.704293
4996.911287
5000.934601
4998.922944
4992.753862
4991.077482
4995.816051
4999.012351
4994.564354
4990.764557
4994.832575
4997.33597
4996.4419
4992.08331
4998.185336
4996.039569
4992.642104
4989.199935
4989.490508
4991.859793
4996.866583
4994.474947
4997.783005
4998.542964
4996.4419
4996.106624
4996.576011
4997.894764
4997.268915
4990.138708
4989.624618
4991.636275
4998.185336
4997.872412
4995.41372
4998.811185
5001.225174
4992.619752
4994.921982
4995.27961
4998.989999
5002.633334
4999.973476
4999.548793
4998.677075
4994.877278
4994.586706
4995.369017
4999.369979
4994.139671
4988.708197
4988.171755
4995.436072
4998.565316
4996.039569
4993.312656
4998.565316
5000.733435
4993.692636
4991.05513
4996.866583
5001.761615
4996.643066
4995.704293
4997.447729
5000.129938
5001.001656
4998.207688
4996.531307
4998.788833
5001.292229
5006.120206
5008.891822
4993.446767
4983.924923
4982.762633
4975.855944
4978.046415
4981.890915
4966.937598
4960.097964
4958.779211
4960.500295
4951.939577
4943.088286
4944.965833
4941.009574
4932.046525
4930.884234
4928.693763
4925.341001
4912.600507
4909.493614
4907.146681
4907.39255
4894.339132
4892.439233
4890.673446
4889.801728
4896.350789
4889.421748
4883.766757
4884.32555
4876.837716
4882.380948
4879.050538
4872.300312
4870.668634
4869.014605
4867.852314
4864.678367
4866.220637
4869.416937
4874.557838
4876.50244
4880.570457
4877.843544
4876.278922
4871.965035
4869.908675
4876.390681
4874.669597
4872.836753
4873.931989
4875.854239
4869.014605
4864.790125
4874.915466
4879.318759
4874.781355
4870.825096
4878.514097
4886.337207
4877.463565
4873.082623
4877.798841
4881.173954
4872.568533
4866.310044
4872.948512
4879.654036
4872.322663
4866.287692
4867.6735
4871.339187
4879.296408
4875.965998
4875.943646
4876.882419
4874.33432
4870.243951
4872.65794
4876.144812
4875.675425
4872.993216
4873.440251
4866.801782
4863.31491
4863.270207
4866.153582
4870.333358
4874.177858
4869.84162
4863.829
4862.443192
4866.466506
4866.891189
4866.108878
4863.896056
4863.493724
4865.572437
4861.146791
4861.817343
4869.036957
4871.540352
4866.153582
4863.158448
4865.348919
4864.477201
4863.001986
4862.979634
4867.248817
4865.661843
4865.326567
4863.896056
4863.493724
4868.478163
4865.438326
4861.77264
4862.577303
4864.879532
4862.264378
4861.079736
4865.035995
4868.746384
4865.348919
4849.926215
4846.774619
4864.186628
4873.641416
4872.479126
4871.696815
4878.5588
4887.186573
4884.459661
4888.214754
4893.601524
4898.183632
4904.352713
4903.279829
4908.577193
4915.997972
4918.948402
4915.997972
4919.887176
4920.669487
4924.022248
4919.328382
4920.691838
4920.870652
4918.903699
4919.082513
4921.831777
4926.637402
4921.98824
4916.512062
4914.880385
4919.350734
4922.547033
4920.557728
4919.618955
4917.875519
4916.422655
4918.769588
4920.71419
4922.144702
4925.922147
4920.155396
4916.936745
4915.416827
4917.696705
4918.166091
4913.628687
4916.981449
4924.513987
4923.329344
4915.573289
4913.941612
4917.339077
4919.015458
4917.450835
4917.629649
4919.373085
4918.434312
4916.400303
4913.762798
4915.729751
4920.71419
4919.328382
4916.959097
4921.898833
4921.876481
4919.350734
4922.278812
4924.983373
4929.163149
4928.805522
4925.139835
4919.149568
4928.805522
4930.593661
4917.204966
4906.789053
4920.445969
4931.286565
4918.881347
4911.818196
4919.753065
4913.40517
4907.057274
4907.660771
4907.571364
4906.923164
4902.296353
4896.171975
4897.803652
4896.127271
4889.466451
4882.045672
4881.352768
4884.280847
4875.474259
4870.288655
4873.216733
4875.161335
4872.65794
4863.31491
4861.549123
4870.646283
4866.175934
4858.285768
4858.129306
4865.99712
4864.924236
4862.264378
4859.425707
4862.309082
4866.13123
4861.303253
4859.448059
4859.805686
4863.806649
4862.622006
4857.771678
4857.972843
4862.599655
4859.805686
4856.587035
4854.888303
4859.671576
4863.449021
4857.503457
4851.446134
4855.4918
4856.832904
4848.853332
4851.602596
4859.962149
4858.777506
4849.121553
4847.109896
4850.440306
4857.458753
4858.151657
4850.306195
4851.937872
4853.457791
4849.546236
4845.455867
4847.28871
4849.032146
4851.826114
4851.043803
4845.478218
4850.127381
4848.741573
4844.584148
4846.01466
4849.300367
4847.04284
4843.801837
4842.661898
4850.37325
4847.892207
4842.863064
4844.718259
4849.34507
4848.741573
4848.96509
4849.143904
4851.692003
4853.882474
4855.916483
4858.598692
4853.748364
4853.927178
4855.134172
4852.116686
4851.580244
4854.687137
4856.609387
4849.166256
4847.914558
4854.195399
4856.89996
4852.071983
4851.177913
4854.59773
4857.950492
4855.268282
4855.290634
4854.553027
4853.837771
4854.821247
4852.697832
4855.022413
4858.44223
4850.395602
4847.668689
4853.748364
4858.911617
4858.419878
4857.794029
4849.434477
4852.608425
4853.256625
4855.156524
4856.229407
4852.094335
4848.473352
4847.869855
4846.416992
4849.367422
4852.921349
4846.707564
4845.411163
4848.808628
4847.93691
4844.003003
4842.594843
4848.741573
4851.13321
4851.356727
4850.149733
4852.764887
4857.883436
4858.017547
4852.854294
4851.021451
4854.776544
4853.837771
4847.244006
4843.131285
4847.467524
4851.26732
4848.518056
4849.21096
4852.116686
4850.75323
4851.446134
4847.892207
4853.390736
4855.715317
4851.312024
4850.127381
4849.389774
4851.200265
4852.854294
4844.762962
4844.450038
4852.966053
4852.384907
4847.735744
4845.411163
4852.988404
4850.775582
4847.467524
4847.020489
4848.272186
4850.932044
4850.641471
4847.534579
4850.775582
4852.720183
4850.485009
4846.819323
4847.534579
4850.75323
4848.383945
4842.885416
4848.182779
4851.043803
4845.36646
4846.774619
4848.987442
4852.16139
4853.211922
4850.976747
4849.322718
4854.553027
4854.59773
4852.787239
4853.18957
4853.815419
4854.664785
4847.847503
4845.768791
4847.445172
4853.70366
4851.826114
4848.518056
4848.987442
4848.361593
4850.797933
4861.593826
4866.019471
4868.589922
4872.210905
4870.467469
4870.758041
4877.754137
4878.670559
4876.681254
4879.564629
4883.006797
4880.972788
4878.357634
4876.390681
4879.229352
4877.240047
4873.708472
4874.468431
4878.916428
4878.42469
4875.340149
4876.904771
4873.328492
4878.402338
4877.128288
4873.462602
4875.273094
4879.363463
4877.910599
4872.65794
4874.110803
4876.524791
4875.518963
4872.322663
4872.881457
4870.400413
4872.65794
4873.194381
4870.333358
4873.574361
4876.12246
4873.216733
4872.099146
4877.798841
4883.565591
4878.759966
4874.736652
4879.788146
4881.777451
4875.429556
4870.042785
4873.104974
4878.871724
4882.738576
4878.022358
4881.263361
4883.632646
4879.274056
4876.569495
4873.17203
4875.407204
4875.518963
4878.715262
4877.418861
4881.777451
4882.537411
4877.843544
4875.273094
4881.822155
4879.564629
4871.406242
4870.35571
4874.602541
4878.268227
4872.65794
4874.222562
4880.86103
4879.341111
4879.855201
4879.475222
4879.989312
4886.605428
4888.728844
4888.058291
4889.533507
4894.897925
4892.953323
4890.0923
4884.616123
4885.063158
4881.688044
4875.116631
4875.250742
4881.978617
4885.666655
4881.017492
4879.363463
4886.225448
4890.449928
4884.616123
4883.342073
4882.78328
4882.895038
4878.067062
4880.145774
4882.112727
4884.727882
4882.02332
4880.212829
4881.129251
4883.185611
4879.318759
4875.586018
4872.613236
4877.888248
4882.313893
4879.989312
4881.777451
4883.163259
4880.771623
4879.497573
4880.704568
4880.436347
4886.203097
4883.342073
4876.703605
4877.687082
4877.351806
4877.597675
4874.781355
4875.943646
4880.950437
4887.946533
4890.718149
4879.855201
4869.863971
4866.444155
4863.940759
4862.711413
4864.097221
4857.503457
4851.379079
4845.411163
4849.099201
4849.121553
4849.434477
4847.244006
4846.819323
4853.658957
4853.949529
4848.741573
4854.620082
4856.184704
4854.508323
4849.590939
4852.16139
4859.425707
4858.799858
4853.278977
4852.139038
4857.056422
4857.458753
4852.876646
4851.803762
4852.2955
4850.306195
4849.099201
4851.066154
4857.950492
4857.950492
4849.792105
4846.439343
4847.132247
4851.580244
4853.837771
4850.552064
4849.792105
4857.011718
4857.346995
4853.793067
4854.396564
4856.698794
4852.54137
4850.37325
4849.501532
4850.350899
4850.105029
4853.435439
4852.273149
4854.73184
4858.084602
4854.709489
4852.67548
4853.904826
4853.726012
4856.564684
4856.631739
4858.732803
4857.950492
4856.855256
4853.278977
4854.351861
4862.242027
4858.643396
4852.764887
4852.049631
4857.92814
4858.576341
4855.938835
4851.021451
4859.179838
4859.783335
4854.776544
4853.502495
4858.531637
4857.995195
4856.117649
4855.067117
4859.939797
4862.085564
4855.692965
4854.374213
4851.736707
4854.776544
4854.061288
4846.796971
4847.020489
4855.178875
4852.049631
4846.90873
4850.775582
4854.262454
4853.413088
4850.261492
4846.998137
4847.758096
4855.983538
4859.760983
4861.459716
4869.46164
4874.669597
4874.33432
4878.804669
4883.275018
4879.050538
4876.12246
4877.284751
4879.251704
4883.386777
4886.426614
4887.052463
4886.694835
4887.946533
4889.466451
4882.090376
4881.643341
4887.611257
4889.086472
4885.689007
4884.750233
4889.265286
4892.305123
4890.360521
4885.376082
4884.772585
4886.896001
4884.459661
4884.750233
4886.851297
4889.354693
4885.510193
4885.040806
4886.091338
4889.041768
4883.722053
4877.642379
4879.676387
4883.118556
4879.899905
4879.877553
4884.683178
4889.220582
4890.651094
4887.678312
4887.030111
4884.996102
4885.398434
4881.665693
4880.525754
4888.55003
4891.053425
4886.76189
4883.118556
4888.348864
4888.952361
4884.616123
4883.006797
4885.577248
4887.946533
4891.031073
4886.381911
4886.426614
4892.506289
4890.874611
4887.678312
4889.980541
4901.223469
4891.679274
4875.764832
4878.134117
4878.603504
4872.367367
4867.315873
4860.811515
4856.609387
4857.972843
4857.235236
4854.396564
4856.810553
4863.001986
4863.158448
4854.910654
4858.844561
4864.186628
4858.844561
4849.479181
4853.323681
4857.168181
4857.257588
4851.915521
4852.630776
4859.381003
4855.648262
4852.67548
4854.821247
4857.458753
4857.257588
4855.514152
4856.832904
4859.291596
4859.224541
4858.665747
4857.972843
4861.77264
4865.885361
4861.705585
4860.118611
4856.542332
4860.520942
4861.504419
4857.123477
4857.190532
4861.973806
4861.884399
4856.564684
4859.358652
4864.052518
4861.77264
4859.001024
4854.575378
4856.721146
4861.705585
4857.391698
4854.910654
4856.788201
4861.862047
4858.129306
4854.888303
4858.598692
4864.253684
4859.559817
4854.642433
4857.212884
4858.464582
4859.47041
4853.770715
4853.435439
4859.962149
4857.503457
4851.915521
4854.173047
4859.202189
4860.945625
4855.514152
4856.989367
4862.510248
4859.760983
4853.390736
4852.586073
4853.346032
4857.861085
4854.105992
4852.720183
4856.944663
4860.409184
4860.409184
4861.482067
4865.259512
4871.808573
4870.467469
4864.790125
4862.487896
4859.805686
4858.30812
4857.861085
4856.832904
4858.911617
4861.482067
4855.938835
4850.932044
4852.228445
4853.278977
4852.54137
4853.882474
4854.843599
4856.564684
4853.167218
4848.96509
4853.949529
4857.972843
4857.056422
4854.150695
4857.279939
4859.85039
4855.827076
4852.653128
4854.329509
4859.179838
4856.072945
4852.586073
4855.871779
4859.716279
4859.805686
4857.078774
4854.396564
4856.631739
4856.922311
4854.262454
4854.351861
4856.564684
4859.313948
4857.749326
4853.033108
4854.530675
4859.537466
4858.30812
4856.967015
4860.431535
4859.492762
4856.38587
4854.284806
4854.955358
4859.246893
4861.102088
4855.961186
4857.235236
4858.688099
4860.319777
4857.257588
4853.211922
4856.296463
4864.343091
4860.655053
4853.949529
4860.655053
4865.058346
4851.289672
4848.339242
4853.457791
4857.190532
4856.296463
4849.881512
4849.85916
4856.631739
4857.346995
4847.087544
4847.579282
4851.26732
4853.211922
4851.580244
4848.719221
4854.955358
4856.89996
4852.116686
4850.127381
4851.714355
4852.049631
4848.562759
4851.982576
4854.508323
4854.865951
4851.13321
4849.814457
4851.26732
4854.284806
4853.882474
4849.568587
4850.306195
4853.457791
4850.932044
4846.841675
4851.826114
4857.682271
4855.603558
4849.434477
4847.914558
4852.206093
4853.278977
4853.390736
4850.976747
4853.05546
4847.825151
4845.344108
4846.439343
4849.702698
4846.953433
4847.623986
4846.305233
4848.182779
4854.351861
4855.514152
4853.05546
4854.73184
4858.285768
4855.156524
4850.462657
4852.384907
4849.233311
4850.015622
4855.961186
4863.56078
4864.700718
4855.4918
4847.132247
4846.551102
4850.686175
4853.658957
4855.514152
4852.563721
4851.490838
4854.329509
4853.368384
4850.015622
4849.34507
4853.994233
4850.663823
4844.561797
4847.847503
4854.620082
4852.384907
4842.974823
4848.518056
4859.9845
4859.3363
4858.06225
4861.012681
4864.566608
4861.504419
4856.095297
4851.6473
4855.067117
4859.001024
4853.658957
4854.508323
4856.631739
4859.693928
4858.129306
4856.452925
4851.312024
4857.749326
4859.783335
4853.591901
4851.110858
4855.402393
4858.799858
4852.049631
4853.56955
4858.576341
4852.898997
4850.462657
4853.457791
4852.764887
4852.183742
4851.021451
4852.988404
4857.525809
4857.458753
4851.066154
4848.585111
4849.993271
4851.312024
4848.96509
4845.835846
4849.233311
4857.972843
4856.564684
4849.970919
4848.920387
4854.016585
4859.224541
4854.955358
4853.904826
4855.827076
4859.917445
4852.2955
4855.961186
4859.090431
4856.162352
4851.826114
4852.250797
4855.402393
4859.090431
4851.937872
4847.914558
4851.736707
4851.088506
4849.076849
4850.797933
4851.356727
4850.820285
4852.988404
4849.814457
4848.562759
4854.262454
4856.922311
4850.663823
4847.691041
4851.446134
4852.16139
4849.188608
4850.864989
4855.827076
4853.837771
4848.473352
4849.367422
4850.127381
4848.540407
4848.853332
4849.479181
4850.350899
4847.691041
4846.953433
4840.963166
4844.427686
4849.34507
4847.55693
4846.215826
4847.199303
4852.027279
4854.955358
4848.585111
4847.512227
4851.759058
4850.507361
4840.583186
4840.762
4849.792105
4847.445172
4843.757134
4842.885416
4848.920387
4849.590939
4846.551102
4848.115724
4850.015622
4853.70366
4850.417954
4847.154599
4849.434477
4852.54137
4851.982576
4847.333413
4847.55693
4849.21096
4849.657994
4846.685212
4843.779486
4844.718259
4849.143904
4846.282881
4846.729916
4853.167218
4852.787239
4849.143904
4846.729916
4851.312024
4856.765849
4853.614253
4848.741573
4848.428649
4851.356727
4851.490838
4848.495704
4849.568587
4853.726012
4855.715317
4850.082678
4847.109896
4852.429611
4850.708526
4847.512227
4846.774619
4851.423782
4849.456829
4849.926215
4850.082678
4858.397527
4860.073907
4853.05546
4850.283843
4852.653128
4850.306195
4848.607462
4847.109896
4844.785314
4848.652166
4852.854294
4843.645375
4841.320794
4845.791143
4846.752268
4842.751305
4839.35384
4844.941776
4844.271224
4839.979689
4841.14198
4844.427686
4845.455867
4839.711468
4834.86114
4839.644413
4843.935948
4843.287747
4839.800875
4842.930119
4842.930119
4840.314965
4839.532654
4843.935948
4842.997175
4841.924291
4839.689116
4838.280957
4842.192512
4844.651204
4843.175989
4841.432553
4843.757134
4841.320794
4839.040916
4838.906805
4842.304271
4842.661898
4839.577358
4839.73382
4843.667727
4843.377154
4844.494741
4841.812532
4843.868893
4847.445172
4843.824189
4833.922366
4833.721201
4838.727991
4836.001079
4833.877663
4834.391753
4840.918462
4843.71243
4838.057439
4838.727991
4838.638584
4841.521959
4837.409239
4834.190587
4836.559872
4839.040916
4838.482122
4837.722163
4836.850445
4839.309137
4835.755209
4831.798951
4835.039954
4837.632756
4834.212939
4831.709544
4835.062305
4833.944718
4823.104122
4822.165349
4834.659974
4849.926215
4853.882474
4844.874721
4842.751305
4847.154599
4841.812532
4839.107971
4838.616233
4847.333413
4848.540407
4841.164332
4839.800875
4843.891244
4849.143904
4848.741573
4845.321756
4846.327585
4847.378117
4844.785314
4841.521959
4844.964128
4847.780448
4845.165294
4842.55014
4841.633718
4844.494741
4846.819323
4841.320794
4839.398544
4841.544311
4840.292614
4837.856273
4839.644413
4843.153637
4843.891244
4837.968032
4838.526826
4841.410201
4846.037012
4848.808628
4842.192512
4846.059364
4850.172085
4845.321756
4839.443247
4842.192512
4848.607462
4848.987442
4848.451
4846.52875
4847.892207
4847.512227
4843.265396
4843.935948
4849.635643
4849.680346
4843.086582
4840.24791
4840.918462
4845.902901
4850.954396
4852.16139
4856.698794
4854.709489
4850.015622
4845.388811
4845.813494
4845.902901
4839.555006
4835.330526
4841.678422
4850.485009
4847.869855
4840.24791
4838.616233
4843.265396
4842.617195
4839.86793
4843.153637
4847.780448
4848.853332
4842.147808
4842.438381
4843.220692
4846.01466
4843.44421
4844.494741
4849.099201
4849.21096
4841.097276
4841.544311
4845.277053
4851.021451
4850.015622
4845.277053
4845.50057
4849.903864
4847.400468
4843.332451
4841.946643
4843.265396
4845.902901
4846.931082
4847.109896
4850.127381
4853.435439
4847.892207
4845.388811
4845.50057
4845.701736
4844.450038
4842.416029
4845.12059
4847.735744
4843.846541
4843.868893
4847.199303
4846.662861
4843.913596
4841.14198
4842.55014
4846.662861
4843.891244
4842.304271
4842.371326
4845.612329
4848.071021
4845.232349
4843.533616
4845.277053
4842.840712
4841.365497
4841.298442
4845.992308
4847.579282
4842.103105
4841.65607
4844.98648
4848.786276
4846.305233
4839.555006
4843.377154
4846.39464
4842.751305
4839.130323
4842.68425
4848.249835
4846.618157
4845.277053
4843.600672
4844.6065
4845.031183
4841.052573
4839.845579
4844.6065
4846.796971
4842.147808
4841.857236
4848.003965
4846.148771
4842.438381
4842.348974
4845.701736
4844.137114
4843.488913
4841.745477
4845.344108
4854.08364
4856.296463
4846.796971
4844.874721
4851.379079
4846.618157
4842.416029
4846.998137
4854.642433
4852.2955
4846.238178
4843.667727
4847.892207
4848.629814
4846.439343
4842.885416
4847.780448
4849.523884
4849.367422
4849.903864
4850.909692
4852.004928
4849.278015
4843.332451
4847.93691
4854.240102
4849.970919
4847.244006
4846.998137
4852.54137
4851.759058
4847.467524
4848.205131
4850.037974
4848.138076
4846.282881
4847.311061
4850.730878
4852.80959
4851.312024
4852.720183
4855.245931
4853.346032
4850.75323
4851.066154
4854.843599
4860.140963
4857.950492
4853.05546
4853.167218
4856.676442
4856.855256
4849.836808
4846.953433
4850.730878
4849.188608
4846.01466
4850.574416
4858.017547
4859.3363
4853.435439
4849.367422
4853.815419
4861.794992
4852.429611
4849.21096
4853.770715
4853.05546
4851.244968
4847.55693
4852.586073
4856.698794
4852.697832
4849.076849
4848.160428
4854.173047
4852.384907
4846.238178
4850.529713
4857.503457
4854.664785
4847.892207
4845.165294
4853.390736
4853.658957
4847.333413
4851.423782
4856.944663
4858.643396
4854.329509
4849.456829
4854.374213
4856.564684
4851.177913
4846.439343
4846.662861
4849.143904
4851.088506
4848.249835
4854.530675
4855.201227
4851.468486
4847.735744
4849.032146
4853.010756
4853.591901
4853.05546
4850.23914
4854.150695
4858.464582
4854.798896
4848.96509
4851.535541
4855.089468
4850.485009
4851.78141
4858.44223
4855.335338
4850.149733
4850.976747
4853.927178
4855.268282
4851.356727
4847.914558
4852.049631
4857.816381
4854.038936
4849.143904
4849.680346
4852.116686
4851.669651
4847.311061
4845.388811
4853.502495
4853.368384
4846.439343
4853.167218
4855.938835
4854.642433
4851.200265
4851.446134
4858.263416
4856.408221
4853.435439
4852.653128
4855.268282
4857.726974
4855.447096
4850.037974
4851.6473
4857.615215
4858.621044
4853.390736
4852.451963
4857.905788
4858.174009
4853.636605
4847.467524
4853.726012
4857.481105
4850.775582
4849.389774
4854.262454
4856.050593
4849.456829
4850.641471
4853.770715
4856.65409
4855.178875
4851.312024
4852.094335
4855.380041
4852.2955
4845.433515
4845.701736
4850.462657
4851.110858
4846.551102
4846.662861
4849.032146
4847.176951
4844.584148
4847.668689
4849.389774
4844.6065
4842.594843
4840.359669
4845.969957
4849.590939
4844.830018
4843.175989
4845.478218
4849.143904
4849.233311
4850.775582
4853.793067
4850.999099
4851.446134
4849.613291
4850.529713
4852.586073
4850.306195
4845.545273
4843.19834
4847.199303
4851.513189
4847.109896
4843.57832
4851.6473
4850.663823
4845.411163
4846.551102
4852.094335
4853.278977
4847.959262
4848.898035
4849.814457
4849.568587
4852.586073
4852.228445
4856.832904
4857.346995
4853.122515
4851.624948
4853.368384
4855.290634
4855.648262
4854.664785
4854.553027
4860.87857
4860.140963
4857.168181
4855.402393
4857.682271
4862.733765
4860.632701
4857.995195
4856.65409
4859.246893
4856.877608
4851.13321
4846.126419
4857.123477
4866.734727
4863.158448
4864.253684
4868.634626
4872.948512
4876.100108
4882.336245
4889.533507
4889.533507
4886.717187
4885.823117
4888.438271
4886.359559
4882.336245
4879.519925
4885.152565
4885.5996
4883.654998
4883.386777
4884.504364
4888.572382
4883.900867
4881.956265
4884.727882
4888.080643
4885.5996
4883.587943
4886.672483
4888.415919
4885.845469
4883.878515
4889.108823
4890.315818
4889.220582
4883.878515
4886.024283
4889.511155
4891.723978
4888.460623
4889.19823
4898.317742
4890.360521
4874.088451
4872.076794
4872.702643
4869.416937
4864.611312
4859.068079
4862.309082
4865.438326
4866.108878
4861.169143
4859.492762
4864.745422
4863.225503
4856.184704
4861.549123
4868.679329
4864.790125
4862.443192
4863.985463
4867.338224
4867.002948
4862.867875
4865.393623
4868.656977
4869.707509
4862.934931
4862.957282
4865.885361
4869.528695
4864.767774
4859.9845
4864.611312
4868.299349
4862.264378
4861.213846
4863.940759
4866.868838
4867.293521
4865.460678
4863.784297
4867.651149
4869.774564
4865.527733
4864.410146
4866.399451
4865.840657
4861.90675
4862.264378
4866.421803
4868.344053
4863.761945
4862.66671
4868.344053
4863.449021
4860.811515
4863.046689
4869.439288
4873.775527
4872.099146
4869.372233
4871.205076
4872.054442
4875.675425
4873.507306
4856.631739
4854.150695
4857.279939
4854.508323
4856.51998
4861.951454
4858.151657
4853.457791
4851.356727
4857.078774
4858.129306
4854.910654
4851.826114
4858.688099
4861.571474
4857.145829
4853.815419
4854.709489
4860.498591
4858.844561
4854.150695
4856.117649
4855.067117
4852.273149
4853.211922
4856.967015
4860.029204
4857.682271
4850.909692
4849.657994
4855.983538
4859.693928
4855.692965
4852.966053
4857.861085
4859.179838
4853.390736
4854.016585
4861.079736
4861.370309
4855.134172
4851.759058
4855.11182
4857.056422
4855.156524
4851.580244
4853.927178
4860.923274
4860.990329
4855.603558
4856.698794
4859.403355
4856.51998
4852.80959
4855.581207
4857.816381
4858.352823
4850.105029
4848.406297
4852.273149
4854.776544
4852.586073
4853.033108
4853.636605
4853.726012
4852.049631
4850.730878
4851.535541
4854.664785
4854.776544
4851.088506
4850.909692
4851.312024
4848.473352
4857.279939
4868.142887
4867.092355
4866.690024
4868.008777
4873.596713
4881.129251
4882.895038
4888.348864
4890.874611
4896.75312
4897.468376
4898.071873
4893.243896
4892.327475
4898.720074
4894.517946
4887.52185
4889.846431
4897.066044
4897.200155
4891.567515
4896.149623
4901.290524
4898.720074
4900.955248
4902.765739
4896.23903
4899.435329
4898.585963
4892.349826
4892.171012
4894.227373
4894.294428
4896.75312
4897.557783
4893.109786
4891.388701
4891.388701
4890.360521
4885.465489
4885.174916
4888.974713
4892.595696
4888.728844
4884.19144
4878.804669
4882.090376
4885.934876
4882.045672
4876.614198
4875.541315
4876.345977
4874.379024
4873.17203
4873.037919
4877.172992
4877.15064
4871.987387
4867.047652
4870.690986
4867.338224
4867.606445
4864.924236
4864.231332
4868.701681
4868.165239
4870.534524
4875.22839
4878.268227
4879.229352
4878.402338
4876.703605
4880.883381
4878.022358
4875.116631
4875.295445
4875.831887
4874.624893
4871.473297
4876.681254
4877.932951
4874.33432
4871.048614
4865.214809
4873.730823
4877.172992
4873.17203
4871.093317
4874.982521
4875.764832
4874.066099
4873.619065
4876.368329
4880.548105
4879.117594
4878.245876
4881.129251
4885.845469
4885.085509
4882.872687
4883.990274
4888.952361
4888.147698
4882.671521
4881.062195
4883.833812
4884.727882
4878.894076
4876.234219
4882.582114
4885.309027
4880.659864
4879.408166
4880.413995
4880.548105
4877.128288
4873.82023
4875.854239
4874.110803
4871.76387
4870.400413
4872.769698
4873.373195
4870.847448
4866.466506
4862.487896
4869.931027
4872.143849
4867.0253
4866.846486
4872.009739
4870.8698
4868.254646
4868.254646
4870.825096
4873.417899
4868.701681
4862.644358
4865.348919
4869.372233
4867.181762
4865.326567
4863.113745
4866.354748
4871.808573
4871.24978
4869.685157
4872.523829
4869.193419
4863.918407
4868.075832
4872.367367
4872.009739
4868.522867
4866.690024
4871.853277
4875.518963
4870.690986
4875.116631
4871.070966
4866.846486
4868.008777
4865.125402
4863.650186
4863.225503
4864.879532
4857.816381
4858.039899
4863.516076
4862.756117
4859.962149
4859.917445
4861.862047
4859.649224
4859.358652
4860.945625
4865.99712
4868.05348
4866.108878
4863.896056
4867.91937
4866.220637
4860.431535
4861.638529
4865.371271
4869.774564
4864.477201
4861.973806
4859.917445
4863.873704
4864.030166
4859.649224
4863.650186
4866.712375
4868.835791
4861.459716
4861.77264
4869.394585
4867.449983
4864.097221
4863.493724
4862.979634
4863.896056
4860.923274
4863.761945
4867.91937
4866.466506
4859.403355
4856.408221
4861.325605
4864.119573
4858.643396
4855.447096
4858.732803
4862.487896
4863.404317
4862.867875
4867.517038
4872.546181
4870.199248
4868.299349
4871.160373
4883.140908
4876.278922
4858.933968
4858.643396
4864.857181
4857.749326
4850.529713
4847.735744
4852.586073
4853.301329
4843.19834
4838.795047
4840.963166
4844.964128
4844.315928
4846.059364
4853.033108
4852.027279
4846.39464
4843.801837
4845.947605
4848.920387
4848.562759
4847.244006
4847.869855
4851.401431
4849.434477
4850.954396
4848.562759
4852.206093
4853.726012
4852.317852
4848.853332
4851.915521
4857.235236
4852.608425
4851.692003
4854.843599
4857.302291
4852.407259
4852.519018
4855.11182
4857.369346
4853.256625
4848.406297
4851.379079
4862.018509
4865.281864
4858.531637
4860.096259
4857.056422
4848.227483
4850.552064
4864.946588
4872.523829
4870.311006
4862.443192
4861.191495
4867.91937
4872.009739
4867.181762
4864.454849
4862.979634
4862.912579
4864.231332
4865.10305
4870.556876
4870.936855
4866.220637
4862.309082
4864.164277
4865.48303
4864.052518
4856.564684
4859.246893
4862.420841
4861.102088
4857.972843
4855.670614
4859.716279
4861.057384
4856.00589
4857.503457
4858.621044
4859.157486
4850.641471
4848.294538
4850.730878
4854.284806
4853.726012
4853.457791
4854.642433
4855.335338
4858.866913
4852.653128
4851.401431
4853.502495
4851.6473
4847.400468
4847.668689
4853.524846
4854.016585
4852.049631
4850.641471
4852.16139
4852.362556
4849.054497
4844.405335
4852.586073
4853.815419
4849.613291
4850.864989
4857.346995
4859.9845
4856.00589
4850.306195
4852.898997
4858.688099
4853.211922
4850.306195
4851.155561
4854.485971
4857.190532
4855.245931
4851.244968
4853.70366
4853.837771
4849.300367
4852.474314
4857.123477
4854.754192
4852.139038
4849.032146
4854.955358
4858.263416
4854.061288
4850.037974
4854.955358
4855.827076
4853.278977
4851.021451
4851.915521
4856.341166
4853.077811
4850.328547
4856.251759
4859.85039
4858.531637
4855.737669
4852.876646
4856.743497
4855.044765
4847.28871
4849.099201
4850.686175
4851.982576
4849.121553
4843.757134
4850.976747
4852.608425
4850.440306
4845.12059
4849.434477
4853.077811
4847.8028
4844.427686
4847.914558
4849.434477
4846.215826
4844.740611
4845.344108
4846.640509
4845.947605
4841.745477
4843.667727
4851.401431
4848.451
4842.192512
4843.377154
4843.71243
4842.438381
4839.040916
4838.236253
4843.913596
4849.72505
4849.143904
4844.025355
4848.160428
4846.618157
4843.779486
4838.683288
4844.382983
4848.674518
4845.187646
4840.493779
4842.371326
4842.68425
4840.382021
4840.583186
4845.321756
4855.335338
4856.229407
4850.686175
4847.467524
4854.240102
4857.41405
4853.681308
4852.139038
4852.80959
4852.80959
4851.289672
4850.708526
4849.099201
4850.909692
4845.344108
4848.115724
4853.681308
4857.168181
4853.949529
4850.842637
4854.21775
4857.771678
4856.050593
4851.468486
4851.446134
4857.011718
4854.374213
4849.367422
4851.960224
4853.882474
4855.961186
4850.350899
4846.662861
4850.149733
4853.435439
4851.535541
4851.110858
4852.384907
4857.54816
4855.581207
4853.167218
4854.150695
4851.535541
4852.54137
4849.568587
4851.602596
4852.966053
4851.580244
4846.662861
4847.8028
4855.223579
4858.241064
4852.831942
4853.278977
4857.92814
4859.962149
4858.151657
4857.123477
4861.370309
4860.900922
4857.704622
4854.843599
4857.503457
4858.911617
4856.00589
4854.73184
4858.44223
4861.90675
4858.486934
4855.447096
4854.575378
4856.341166
4855.871779
4851.26732
4852.988404
4854.664785
4853.457791
4852.697832
4854.865951
4857.369346
4857.078774
4855.737669
4849.188608
4854.150695
4859.693928
4860.006852
4861.482067
4850.976747
4847.266358
4848.495704
4849.590939
4851.312024
4852.496666
4858.06225
4855.268282
4856.229407
4859.962149
4859.202189
4858.397527
4857.682271
4856.564684
4856.050593
4850.641471
4846.461695
4851.043803
4852.608425
4846.662861
4844.226521
4847.623986
4849.479181
4848.071021
4846.349936
4851.692003
4851.356727
4847.847503
4855.62591
4863.69489
4857.369346
4853.234274
4845.388811
4842.974823
4848.741573
4849.85916
4849.523884
4847.8028
4849.970919
4851.915521
4850.932044
4846.126419
4849.054497
4852.720183
4850.060326
4852.384907
4855.335338
4857.570512
4856.609387
4855.312986
4855.223579
4859.626872
4856.38587
4853.05546
4848.339242
4849.72505
4846.573454
4842.416029
4845.612329
4853.05546
4854.374213
4848.786276
4847.892207
4848.406297
4848.361593
4848.96509
4850.864989
4853.390736
4856.721146
4850.417954
4849.479181
4852.586073
4855.938835
4861.25855
4868.344053
4869.439288
4865.170105
4859.492762
4858.285768
4860.36448
4864.72307
4858.509285
4851.937872
4849.970919
4858.95632
4860.297425
4855.268282
4854.262454
4857.458753
4858.151657
4850.842637
4854.08364
4859.47041
4858.799858
4852.630776
4850.172085
4850.909692
4850.507361
4845.902901
4843.399506
4848.003965
4854.821247
4849.121553
4843.533616
4845.925253
4851.580244
4849.72505
4838.45977
4839.420896
4851.200265
4855.134172
4847.623986
4842.103105
4842.483084
4839.085619
4836.9175
4840.180855
4847.55693
4845.813494
4841.186683
4841.968994
4851.155561
4853.770715
4843.377154
4837.476294
4844.382983
4848.406297
4845.679384
4842.326622
4844.09241
4844.539445
4841.566663
4838.906805
4842.438381
4851.401431
4849.792105
4836.671631
4841.410201
4847.512227
4844.6065
4837.632756
4837.118666
4840.963166
4840.605538
4834.302346
4834.928195
4838.392715
4838.929157
4838.124494
4835.50934
4837.096314
4844.450038
4846.774619
4845.36646
4844.204169
4845.12059
4841.209035
4838.057439
4842.281919
4852.2955
4857.771678
4851.714355
4842.125457
4844.964128
4850.574416
4841.633718
4840.426724
4843.824189
4845.701736
4839.622061
4837.766866
4853.882474
4857.592864
4850.641471
4847.400468
4846.059364
4848.719221
4851.6473
4846.551102
4845.791143
4851.826114
4855.156524
4849.121553
4851.155561
4851.244968
4849.993271
4845.902901
4841.030221
4850.708526
4856.072945
4849.143904
4844.271224
4844.785314
4850.194436
4852.876646
4848.249835
4854.038936
4859.202189
4859.604521
4849.412125
4846.90873
4846.059364
4845.277053
4843.935948
4842.371326
4846.059364
4849.188608
4850.172085
4844.047707
4846.059364
4844.003003
4835.822265
4842.68425
4849.769753
4845.232349
4839.86793
4836.515169
4843.555968
4850.306195
4858.017547
4854.105992
4846.215826
4845.478218
4846.171122
4844.539445
4840.62789
4847.020489
4848.272186
4842.483084
4841.611366
4848.003965
4851.803762
4852.563721
4854.262454
4853.100163
4852.474314
4853.346032
4845.277053
4832.93889
4840.583186
4859.515114
4866.555913
4859.47041
4855.961186
4847.176951
4844.941776
4855.134172
4856.564684
4851.222617
4846.52875
4843.935948
4849.322718
4861.303253
4855.62591
4840.829055
4842.527788
4848.83098
4839.063268
4833.788256
4839.309137
4845.388811
4841.27609
4837.073962
4845.008832
4853.502495
4844.785314
4832.536558
4833.028297
4835.934023
4837.476294
4839.107971
4841.633718
4842.863064
4845.053535
4847.959262
4847.981614
4842.192512
4838.951509
4845.657032
4850.663823
4851.490838
4842.192512
4837.476294
4836.716334
4835.956375
4843.44421
4841.879587
4839.778523
4846.864026
4842.147808
4834.816436
4843.153637
4855.11182
4851.155561
4841.946643
4839.689116
4843.824189
4849.278015
4849.188608
4852.094335
4848.026317
4846.059364
4849.523884
4854.754192
4856.832904
4859.358652
4849.814457
4839.197378
4843.667727
4858.978672
4859.805686
4850.552064
4843.667727
4842.952471
4845.344108
4851.043803
4854.284806
4848.96509
4849.792105
4846.864026
4847.780448
4845.858198
4840.471427
4842.773657
4844.114762
4849.702698
4860.722108
4863.940759
4850.708526
4842.416029
4846.193474
4848.339242
4842.103105
4841.030221
4851.602596
4855.983538
4849.501532
4845.813494
4844.338279
4845.522922
4847.087544
4849.322718
4847.311061
4848.696869
4852.586073
4848.808628
4841.097276
4841.879587
4844.070058
4846.39464
4851.513189
4854.284806
4843.243044
4835.486988
4844.762962
4851.736707
4853.904826
4848.495704
4846.774619
4852.586073
4855.715317
4849.702698
4844.450038
4851.893169
4853.077811
4844.539445
4838.348012
4841.924291
4845.813494
4850.060326
4859.582169
4864.052518
4860.789163
4849.948567
4845.388811
4844.517093
4859.246893
4864.611312
4849.21096
4846.439343
4853.413088
4856.00589
4849.523884
4844.494741
4841.164332
4839.979689
4850.172085
4859.313948
4852.071983
4851.423782
4852.362556
4856.050593
4861.794992
4866.690024
4857.168181
4851.13321
4852.071983
4847.467524
4846.01466
4847.42282
4851.423782
4861.437364
4861.750288
4852.67548
4852.80959
4866.667672
4867.427631
4857.682271
4853.144867
4859.760983
4862.622006
4859.045727
4856.89996
4866.712375
4866.108878
4845.925253
4841.007869
4862.644358
4875.60837
4866.578265
4851.356727
4853.681308
4861.079736
4858.129306
4850.954396
4853.949529
4860.208018
4860.811515
4858.911617
4853.524846
4856.743497
4860.073907
4854.396564
4855.067117
4852.764887
4854.061288
4851.870817
4848.696869
4858.129306
4855.178875
4853.100163
4857.726974
4859.760983
4863.940759
4863.091393
4860.252721
4858.06225
4859.604521
4859.693928
4851.13321
4852.876646
4861.750288
4865.058346
4860.520942
4855.178875
4857.950492
4856.587035
4848.674518
4852.362556
4858.464582
4856.877608
4847.176951
4842.527788
4855.11182
4867.517038
4863.359614
4850.037974
4849.72505
4851.535541
4850.507361
4849.188608
4849.590939
4855.000061
4857.861085
4854.038936
4853.658957
4855.670614
4857.078774
4853.726012
4854.933006
4852.988404
4844.897073
4848.585111
4863.426669
4867.15941
4859.582169
4853.524846
4853.681308
4856.51998
4856.117649
4851.960224
4852.027279
4859.202189
4867.91937
4869.416937
4863.940759
4863.091393
4863.113745
4857.726974
4848.853332
4845.232349
4853.770715
4853.435439
4852.943701
4860.006852
4872.859105
4878.737614
4862.264378
4849.367422
4851.624948
4854.396564
4852.340204
4850.172085
4857.682271
4866.108878
4870.020434
4859.313948
4857.011718
4857.816381
4855.067117
4851.759058
4851.580244
4853.70366
4851.423782
4851.356727
4850.686175
4855.782372
4855.670614
4856.095297
4855.245931
4857.011718
4857.905788
4857.749326
4856.296463
4858.911617
4857.011718
4849.702698
4848.003965
4854.173047
4856.363518
4857.235236
4854.150695
4852.697832
4854.351861
4855.223579
4854.97771
4853.167218
4857.056422
4856.207056
4852.362556
4851.26732
4854.396564
4865.348919
4861.325605
4856.028242
4857.346995
4857.615215
4853.301329
4852.071983
4852.54137
4855.983538
4852.921349
4854.21775
4859.246893
4864.477201
4858.710451
4852.697832
4854.016585
4856.855256
4850.037974
4844.09241
4851.803762
4861.862047
4861.035032
4854.374213
4851.982576
4859.425707
4855.648262
4850.350899
4852.876646
4861.593826
4869.752213
4868.254646
4856.38587
4855.670614
4860.565646
4861.012681
4859.693928
4858.95632
4858.889265
4857.659919
4858.799858
4874.624893
4880.123422
4856.89996
4839.599709
4845.701736
4854.620082
4855.000061
4854.329509
4857.03407
4860.431535
4866.064175
4855.469448
4844.941776
4843.846541
4855.000061
4863.292559
4867.248817
4867.315873
4870.311006
4872.680291
4866.287692
4871.585056
4884.549068
4878.916428
4875.22839
4878.692911
4883.990274
4874.490783
4868.701681
4870.668634
4881.308065
4883.81146
4873.395547
4871.272131
4875.653073
4872.948512
4874.021396
4874.7143
4880.458698
4878.804669
4869.126364
4871.093317
4876.904771
4878.04471
4876.725957
4877.620027
4879.318759
4879.274056
4872.993216
4867.785259
4872.300312
4875.09428
4876.949474
4873.753175
4873.976692
4877.977655
4876.949474
4872.702643
4872.076794
4876.278922
4875.831887
4870.35571
4874.557838
4877.105937
4875.049576
4872.27796
4873.552009
4882.448004
4881.084547
4868.701681
4858.866913
4861.102088
4867.204114
4867.002948
4865.840657
4871.115669
4878.447041
4876.725957
4873.17203
4872.054442
4874.222562
4871.026262
4863.337262
4869.014605
