Detector 2,,,,,,,,Detector 4,,,,,,,,Detector 6,,,,,,,,Detector 8,,,,,,,,Detector 10,,,,,,,,Detector 12,,,,,,,,Detector 14,,,,,,,,Detector 16,,,,,,,
"RED1,2,3,4","IR1,2,3,4 ","RED5,6,7,8","IR5,6,7,8 ","RED9,10,11,12","IR9,10,11,12 ","RED13,14,15,16","IR13,14,15,16 ","RED1,2,3,4","IR1,2,3,4 ","RED5,6,7,8","IR5,6,7,8 ","RED9,10,11,12","IR9,10,11,12 ","RED13,14,15,16","IR13,14,15,16 ","RED1,2,3,4","IR1,2,3,4 ","RED5,6,7,8","IR5,6,7,8 ","RED9,10,11,12","IR9,10,11,12 ","RED13,14,15,16","IR13,14,15,16 ","RED1,2,3,4","IR1,2,3,4 ","RED5,6,7,8","IR5,6,7,8 ","RED9,10,11,12","IR9,10,11,12 ","RED13,14,15,16","IR13,14,15,16 ","RED1,2,3,4","IR1,2,3,4 ","RED5,6,7,8","IR5,6,7,8 ","RED9,10,11,12","IR9,10,11,12 ","RED13,14,15,16","IR13,14,15,16 ","RED1,2,3,4","IR1,2,3,4 ","RED5,6,7,8","IR5,6,7,8 ","RED9,10,11,12","IR9,10,11,12 ","RED13,14,15,16","IR13,14,15,16 ","RED1,2,3,4","IR1,2,3,4 ","RED5,6,7,8","IR5,6,7,8 ","RED9,10,11,12","IR9,10,11,12 ","RED13,14,15,16","IR13,14,15,16 ","RED1,2,3,4","IR1,2,3,4 ","RED5,6,7,8","IR5,6,7,8 ","RED9,10,11,12","IR9,10,11,12 ","RED13,14,15,16","IR13,14,15,16 "
39183,65535,4729,207,171,163,162,158,35983,65535,4908,216,177,172,170,166,3155,30235,581,179,161,162,154,156,3527,27830,626,309,293,295,293,287,319,408,28601,24419,21068,21471,597,349,561,600,5058,5947,13761,11670,682,573,1105,6170,31716,32418,32464,31445,25849,37024,1650,10834,25392,32598,36263,34908,33758,16486
38778,65535,4687,209,169,165,159,157,35592,65535,4869,215,183,174,173,171,3107,30231,580,177,160,162,155,154,3479,27843,624,309,293,289,289,289,323,410,28634,24475,21087,21518,601,348,558,599,5063,5963,13802,11727,687,574,1558,6182,31729,32437,32476,31475,25859,37055,1838,10851,25387,32587,36317,34985,33761,16497
38811,65535,4732,213,169,164,159,158,35615,65535,4914,217,180,174,169,165,3110,30245,581,178,164,162,161,155,3483,27868,627,307,298,296,293,287,325,410,28673,24529,21115,21553,598,347,558,602,5071,5974,13820,11743,689,572,1558,6195,31745,32467,32500,31493,25873,37071,1840,10861,25383,32597,36333,34995,33763,16501
38812,65535,4686,208,170,162,160,160,35633,65535,4866,217,179,177,171,166,3113,30242,577,176,161,158,156,156,3483,27873,625,306,293,293,287,290,323,409,28697,24549,21134,21594,603,348,555,598,5075,5977,13838,11775,684,572,1558,6197,31751,32473,32511,31515,25875,37099,1842,10864,25378,32583,36350,35036,33764,16510
38826,65535,4729,210,169,165,160,160,35657,65535,4910,217,179,175,169,167,3115,30273,582,177,162,158,157,157,3484,27894,629,307,295,293,291,288,321,410,28754,24646,21174,21674,602,350,557,598,5082,5996,13876,11834,684,572,1557,6206,31763,32511,32534,31567,25887,37128,1842,10879,25370,32590,36399,35111,33777,16519
38857,65535,4685,208,170,163,160,161,35674,65535,4862,218,183,171,169,164,3118,30307,578,177,161,161,159,156,3483,27922,624,308,293,291,293,288,322,410,28823,24742,21220,21752,602,343,555,600,5089,6018,13920,11891,683,568,1562,6221,31789,32565,32561,31619,25901,37176,1843,10892,25383,32615,36466,35196,33790,16531
38914,65535,4729,209,170,163,159,161,35703,65535,4912,215,178,172,169,166,3118,30345,583,178,161,161,157,153,3485,27958,628,312,291,294,294,285,322,407,28884,24841,21259,21826,604,346,553,596,5102,6042,13965,11959,681,565,1563,6238,31811,32625,32595,31686,25920,37218,1843,10909,25395,32645,36533,35302,33806,16551
38957,65535,4682,210,171,159,159,149,35746,65535,4867,216,179,171,169,167,3121,30386,580,179,158,156,160,157,3486,27993,625,304,293,286,288,283,324,409,28938,24889,21277,21832,602,347,552,593,5113,6055,13977,11935,677,561,1566,6255,31866,32688,32638,31716,25935,37199,1847,10929,25409,32678,36541,35270,33826,16545
38898,65535,4727,210,169,162,161,162,35751,65535,4905,214,179,171,169,168,3121,30294,585,178,161,159,157,159,3484,27872,627,299,290,289,285,283,319,404,28733,24505,21134,21535,595,343,546,585,5067,5961,13803,11697,666,558,1564,6217,31791,32489,32553,31527,25890,37098,1843,10881,25435,32643,36325,34969,33802,16518
38833,65535,4675,209,169,162,161,158,35710,65535,4858,223,183,175,169,168,3119,30217,580,178,161,158,158,153,3477,27814,616,301,287,286,284,279,317,403,28610,24367,21063,21442,594,337,539,582,5046,5931,13752,11637,664,555,1559,6183,31726,32395,32487,31452,25872,37068,1843,10851,25425,32608,36260,34877,33782,16502
38814,65535,4719,209,169,164,160,160,35695,65535,4902,219,183,173,169,166,3116,30195,581,177,160,162,158,157,3472,27787,620,293,286,287,279,281,315,400,28587,24358,21054,21445,595,339,538,575,5041,5924,13757,11661,664,551,1558,6171,31694,32366,32472,31431,25863,37069,1839,10837,25387,32561,36263,34895,33768,16501
38818,65535,4675,209,170,162,162,159,35690,65535,4855,215,180,171,168,169,3116,30196,575,179,158,159,157,152,3471,27799,617,299,287,288,284,279,309,402,28638,24435,21087,21503,592,344,541,579,5047,5941,13790,11696,661,554,1557,6182,31702,32383,32487,31457,25861,37067,1840,10849,25371,32550,36286,34917,33763,16502
38826,65535,4718,210,169,165,161,159,35702,65535,4899,217,179,175,169,167,3119,30184,581,177,166,158,157,154,3468,27785,619,298,287,284,278,282,312,399,28644,24442,21099,21531,591,335,535,574,5047,5939,13797,11709,659,547,1556,6180,31690,32375,32485,31458,25855,37071,1839,10845,25362,32530,36291,34929,33755,16500
38825,65535,4671,209,168,162,161,159,35697,65535,4855,215,180,172,169,169,3117,30197,576,178,161,157,157,153,3467,27793,611,298,285,283,281,277,309,397,28693,24519,21136,21607,591,338,533,571,5053,5956,13834,11763,659,545,1559,6189,31694,32402,32491,31488,25861,37095,1839,10858,25359,32547,36333,34995,33765,16508
38860,65535,4718,210,168,163,161,159,35724,65535,4899,220,178,173,166,170,3119,30223,583,175,164,160,152,159,3462,27804,617,295,285,283,284,276,310,398,28763,24623,21183,21683,591,335,529,569,5058,5974,13875,11826,657,544,1559,6196,31712,32449,32515,31538,25877,37131,1839,10869,25352,32542,36386,35078,33771,16519
38901,65535,4672,213,169,162,159,162,35738,65535,4854,217,183,177,171,166,3119,30263,577,181,162,159,157,157,3463,27821,615,293,282,281,278,278,311,397,28829,24723,21216,21759,591,333,527,567,5071,5996,13924,11896,656,539,1560,6213,31740,32511,32547,31595,25886,37171,1843,10883,25351,32563,36447,35171,33782,16532
38947,65535,4721,209,169,164,163,162,35756,65535,4898,217,177,173,172,163,3123,30309,583,178,163,160,159,154,3459,27846,616,293,282,281,281,269,305,396,28893,24820,21255,21828,591,332,527,566,5078,6020,13966,11951,653,536,1560,6232,31767,32574,32580,31657,25912,37202,1842,10905,25358,32585,36518,35255,33807,16545
38958,65535,4674,209,174,162,163,162,35788,65535,4852,216,178,171,166,163,3126,30275,577,177,165,157,157,155,3457,27768,610,291,278,281,277,272,306,390,28799,24577,21167,21591,579,327,520,560,5061,5954,13825,11715,639,526,1564,6223,31767,32472,32540,31511,25869,37077,1841,10889,25390,32590,36317,34943,33793,16515
38849,65535,4713,211,169,169,163,159,35726,65535,4895,215,178,171,168,168,3119,30158,581,185,163,159,157,160,3451,27662,609,291,282,276,275,264,311,388,28573,24288,21043,21406,579,327,511,551,5019,5894,13721,11599,636,524,1555,6166,31660,32306,32449,31375,25843,37021,1837,10838,25395,32552,36196,34796,33771,16492
38811,65535,4668,209,165,163,160,161,35691,65535,4846,216,177,176,171,166,3117,30111,575,177,161,159,154,156,3443,27608,604,290,278,276,274,269,304,387,28526,24232,20999,21354,578,326,510,549,5005,5876,13697,11570,635,523,1555,6151,31618,32245,32413,31322,25827,36999,1835,10808,25361,32495,36159,34736,33751,16486
38796,65535,4713,207,172,162,157,159,35670,65535,4889,216,175,171,167,162,3117,30111,581,179,161,158,157,153,3437,27601,607,292,276,274,273,270,300,386,28554,24307,21028,21429,579,326,507,548,5010,5893,13740,11631,633,523,1551,6147,31601,32253,32413,31345,25823,37001,1833,10807,25324,32471,36204,34797,33747,16485
38811,65535,4665,211,168,163,160,157,35676,65535,4844,218,176,177,167,165,3119,30115,576,178,162,157,161,156,3437,27597,603,288,277,274,273,268,301,386,28588,24333,21045,21453,577,326,507,547,5016,5898,13747,11643,632,519,1554,6155,31611,32263,32411,31339,25820,36991,1834,10812,25323,32467,36201,34793,33741,16481
38806,65535,4711,210,170,157,162,159,35661,65535,4888,217,178,172,168,169,3119,30107,581,176,162,157,156,159,3434,27591,607,290,276,274,273,268,296,385,28610,24381,21072,21510,578,323,504,546,5015,5907,13773,11682,631,519,1551,6159,31605,32271,32415,31360,25817,37010,1832,10815,25324,32470,36228,34833,33744,16491
38823,65535,4664,210,169,164,162,162,35654,65535,4845,218,177,172,169,166,3119,30130,575,177,165,159,157,157,3431,27599,603,288,274,273,271,271,298,387,28682,24489,21119,21595,580,324,511,546,5027,5927,13813,11747,633,516,1555,6167,31615,32317,32427,31406,25823,37042,1833,10824,25320,32478,36282,34927,33745,16499
38858,65535,4714,210,173,167,159,158,35671,65535,4890,221,177,169,170,164,3119,30173,584,175,162,158,160,154,3433,27621,606,286,274,274,271,269,298,385,28749,24591,21167,21680,583,327,505,546,5035,5951,13859,11817,634,519,1553,6183,31635,32374,32455,31462,25841,37079,1833,10841,25317,32499,36339,35020,33758,16514
38904,65535,4667,211,169,163,160,159,35688,65535,4844,217,182,169,172,166,3123,30222,577,176,161,159,154,158,3434,27643,603,286,275,274,272,271,299,388,28818,24692,21193,21748,583,323,505,546,5048,5975,13902,11876,635,518,1556,6200,31673,32447,32484,31516,25854,37117,1836,10859,25326,32524,36407,35107,33777,16530
38956,65535,4713,211,169,162,159,159,35699,65535,4891,215,180,172,168,166,3125,30270,581,180,159,158,159,157,3433,27677,605,287,274,272,272,268,301,387,28889,24796,21228,21813,584,325,505,546,5062,6000,13947,11938,632,518,1556,6215,31693,32509,32516,31582,25875,37157,1837,10879,25331,32548,36472,35209,33798,16546
38971,65535,4667,213,169,162,159,159,35738,65535,4842,215,176,173,167,166,3127,30258,577,181,164,158,161,159,3435,27619,601,286,274,272,273,268,302,380,28816,24596,21157,21600,576,321,502,542,5050,5946,13812,11701,623,511,1558,6210,31715,32431,32490,31454,25833,37021,1837,10863,25351,32547,36285,34899,33797,16515
38849,65535,4709,209,168,162,163,160,35662,65535,4883,215,177,169,170,167,3121,30127,581,181,164,158,161,160,3425,27505,602,288,275,272,271,266,297,380,28561,24248,21011,21375,575,322,497,537,5002,5877,13691,11565,619,509,1553,6152,31602,32244,32393,31306,25799,36959,1831,10808,25362,32515,36150,34723,33775,16494
38815,65535,4660,209,168,167,157,161,35611,65535,4837,216,179,171,167,162,3117,30079,575,178,159,160,157,156,3420,27439,601,287,271,273,270,266,294,380,28503,24169,20956,21295,573,319,495,534,4991,5853,13657,11522,620,508,1549,6132,31558,32182,32351,31235,25781,36924,1833,10778,25339,32465,36098,34647,33750,16483
38795,65535,4707,208,170,162,160,158,35590,65535,4881,216,178,172,167,162,3119,30070,583,181,164,158,157,156,3414,27419,604,287,274,271,270,267,293,378,28519,24223,20965,21347,572,322,495,534,4991,5865,13686,11573,622,509,1548,6126,31540,32184,32339,31244,25775,36931,1827,10773,25315,32447,36135,34705,33747,16487
38812,65535,4661,210,169,161,151,160,35583,65535,4835,219,176,171,168,164,3117,30067,573,176,162,159,158,157,3414,27412,597,285,273,272,273,267,296,379,28556,24267,20992,21383,574,320,494,537,4998,5873,13698,11589,621,510,1555,6133,31544,32201,32340,31247,25774,36919,1828,10779,25324,32461,36135,34704,33743,16482
38810,65535,4705,211,168,165,157,160,35574,65535,4883,216,178,170,164,168,3117,30070,579,178,162,157,156,154,3416,27397,601,285,275,272,271,267,299,381,28588,24310,21013,21433,576,321,495,535,5002,5886,13719,11626,623,511,1547,6135,31541,32207,32338,31261,25773,36944,1830,10779,25319,32466,36158,34751,33747,16486
38837,65535,4658,211,169,162,171,158,35570,65535,4836,215,178,173,167,166,3118,30079,575,180,158,155,159,159,3413,27400,599,285,274,272,274,267,297,381,28650,24419,21066,21529,576,322,496,538,5016,5904,13770,11693,623,515,1550,6149,31550,32250,32354,31314,25783,36978,1829,10797,25318,32472,36213,34829,33748,16497
38871,65535,4708,211,170,164,163,161,35583,65535,4881,216,179,169,171,169,3120,30133,581,178,161,158,157,158,3410,27417,605,287,273,271,274,269,297,383,28726,24529,21111,21621,578,325,503,541,5029,5933,13823,11772,633,519,1548,6161,31570,32319,32383,31376,25798,37017,1829,10809,25295,32473,36275,34928,33761,16513
38920,65535,4661,212,169,164,160,158,35597,65535,4839,210,177,170,171,168,3121,30179,576,181,162,158,153,153,3409,27435,601,287,274,275,271,266,297,380,28801,24649,21165,21706,581,325,506,545,5046,5962,13882,11851,639,522,1553,6179,31606,32387,32423,31444,25817,37066,1831,10824,25284,32483,36348,35031,33781,16534
38975,65535,4710,212,168,162,160,159,35620,65535,4880,219,182,175,167,165,3124,30237,582,177,158,156,156,157,3413,27463,603,285,273,271,271,266,299,387,28870,24755,21208,21791,583,325,510,550,5059,5992,13931,11921,639,525,1552,6199,31644,32473,32460,31521,25833,37109,1832,10845,25286,32505,36420,35142,33804,16550
39029,65535,4664,209,170,159,158,160,35646,65535,4837,217,179,172,168,165,3127,30295,578,175,161,156,159,157,3413,27493,600,286,275,273,275,268,299,388,28951,24867,21250,21867,582,325,512,555,5077,6023,13984,11993,642,528,1559,6219,31683,32551,32503,31599,25852,37168,1834,10869,25287,32535,36493,35253,33831,16575
39094,65535,4715,213,169,165,161,160,35669,65535,4882,216,183,170,167,165,3131,30349,586,177,157,158,156,156,3415,27526,606,287,273,274,271,267,299,390,29014,24971,21292,21948,586,327,515,555,5092,6053,14031,12067,646,530,1556,6237,31733,32640,32550,31691,25879,37229,1833,10890,25311,32579,36574,35373,33862,16598
39158,65535,4667,210,172,162,161,159,35705,65535,4839,217,179,171,169,166,3135,30418,580,177,164,157,157,154,3417,27552,602,287,274,274,271,269,302,391,29092,25084,21340,22034,588,327,516,557,5113,6087,14089,12143,649,533,1561,6259,31784,32737,32610,31781,25917,37293,1839,10917,25319,32615,36663,35500,33889,16622
39205,65535,4717,210,170,162,159,162,35766,65535,4885,215,179,171,165,169,3140,30471,588,177,163,162,157,156,3423,27576,607,286,276,276,274,272,303,388,29086,24993,21312,21908,584,326,514,560,5112,6057,13993,11933,644,529,1563,6276,31856,32751,32630,31733,25891,37178,1839,10925,25345,32644,36527,35239,33905,16595
39090,65535,4663,209,172,162,160,161,35700,65535,4837,216,177,175,169,163,3138,30304,578,177,164,158,157,157,3414,27391,602,289,275,274,274,269,300,385,28754,24471,21117,21558,580,322,514,552,5049,5939,13780,11682,637,524,1558,6205,31713,32481,32513,31523,25849,37090,1835,10853,25365,32609,36294,34941,33875,16565
39041,65535,4708,212,173,163,159,159,35654,65535,4879,216,177,174,167,163,3132,30221,582,180,162,157,156,152,3408,27297,602,288,275,275,272,270,301,384,28626,24314,21037,21420,579,323,510,549,5019,5895,13705,11587,635,526,1553,6173,31653,32391,32451,31423,25827,37033,1834,10816,25379,32593,36195,34802,33857,16546
38990,65535,4659,211,169,163,159,157,35615,65535,4828,216,179,170,172,171,3130,30176,578,181,159,158,154,159,3403,27237,597,287,275,277,273,271,299,384,28577,24264,21009,21406,583,325,514,548,5011,5888,13697,11593,638,526,1554,6155,31621,32346,32420,31390,25823,37033,1831,10795,25365,32570,36182,34801,33842,16541
38999,65535,4705,209,170,164,162,162,35600,65535,4874,220,177,175,168,168,3131,30182,581,175,162,155,157,155,3402,27223,602,288,275,276,275,275,301,385,28615,24334,21033,21451,579,326,512,553,5020,5901,13720,11618,641,529,1550,6163,31619,32374,32430,31403,25818,37029,1831,10797,25343,32555,36205,34819,33834,16534
39002,65535,4661,210,169,167,162,157,35596,65535,4827,218,177,171,167,168,3129,30180,576,178,161,159,157,155,3400,27198,598,288,279,275,274,269,301,387,28641,24360,21045,21479,582,329,515,557,5028,5909,13739,11645,642,532,1552,6167,31625,32386,32430,31411,25814,37027,1832,10803,25337,32559,36215,34835,33825,16538
39010,65535,4705,209,169,165,159,160,35584,65535,4873,220,173,171,169,167,3129,30182,581,175,161,157,160,159,3400,27187,601,284,277,276,275,271,304,386,28685,24441,21081,21554,587,330,516,558,5035,5928,13774,11699,647,534,1553,6175,31623,32411,32433,31445,25820,37050,1833,10810,25356,32581,36247,34907,33821,16542
39027,65535,4662,213,170,161,158,159,35582,65535,4829,215,182,173,164,165,3130,30210,577,181,161,154,160,160,3396,27193,602,291,278,276,276,273,303,394,28769,24566,21135,21647,583,330,522,563,5049,5957,13824,11772,652,539,1552,6186,31645,32465,32457,31500,25831,37092,1832,10823,25338,32583,36314,35000,33833,16555
39059,65535,4707,210,168,160,159,155,35599,65535,4875,216,178,176,165,166,3131,30252,581,182,159,155,155,156,3399,27207,604,291,279,278,277,273,306,393,28844,24682,21188,21735,591,333,529,566,5063,5983,13875,11844,658,543,1553,6203,31672,32535,32491,31568,25846,37130,1834,10840,25330,32598,36380,35098,33839,16569
39110,65535,4662,209,170,162,162,163,35623,65535,4827,219,179,172,170,166,3135,30298,580,177,159,158,158,160,3399,27229,600,292,280,279,278,275,306,395,28925,24794,21233,21832,590,332,531,572,5077,6014,13929,11926,661,547,1557,6221,31706,32607,32526,31634,25859,37178,1834,10861,25335,32615,36450,35208,33855,16585
39161,65535,4710,210,170,161,161,159,35646,65535,4875,216,184,173,169,170,3138,30348,583,179,159,158,160,157,3403,27255,605,295,281,280,279,278,307,397,28999,24907,21281,21919,599,336,533,574,5100,6044,13981,11997,667,551,1559,6240,31742,32681,32567,31710,25878,37228,1837,10881,25330,32640,36526,35316,33878,16603
39212,65535,4665,210,170,163,160,163,35671,65535,4828,219,178,177,168,164,3140,30407,582,177,161,158,155,156,3405,27285,603,294,281,280,279,275,308,401,29074,25020,21327,22002,597,336,535,581,5112,6075,14032,12068,670,551,1559,6263,31791,32775,32607,31793,25902,37285,1838,10901,25349,32683,36597,35435,33901,16623
39279,65535,4714,211,172,163,162,157,35706,65535,4878,219,181,172,166,165,3144,30463,587,177,161,158,155,155,3405,27319,609,295,283,281,280,275,311,403,29137,25121,21371,22086,601,337,537,580,5127,6105,14079,12141,673,553,1562,6283,31836,32859,32657,31885,25929,37340,1838,10924,25375,32737,36680,35561,33930,16649
39345,65535,4669,209,180,164,159,157,35743,65535,4831,218,178,175,163,169,3147,30523,583,177,163,157,160,153,3407,27350,606,295,283,283,283,276,315,402,29214,25238,21413,22150,599,340,540,585,5149,6138,14133,12207,675,560,1564,6304,31883,32953,32713,31978,25965,37393,1841,10952,25390,32767,36766,35676,33960,16664
39354,65535,4713,209,170,159,162,157,35812,65535,4877,216,179,173,171,167,3151,30509,586,178,165,159,161,157,3414,27286,606,296,283,283,281,276,312,403,29100,24953,21327,21917,599,338,541,583,5125,6059,13946,11895,666,551,1566,6299,31909,32858,32689,31839,25921,37249,1842,10929,25425,32783,36518,35284,33954,16628
39246,65535,4665,211,171,162,159,158,35731,65535,4825,221,181,173,169,170,3145,30366,578,177,161,158,156,154,3408,27158,603,295,286,283,281,278,311,397,28831,24585,21181,21683,596,339,536,576,5074,5981,13807,11737,665,551,1560,6239,31798,32681,32608,31703,25898,37199,1841,10876,25444,32775,36375,35094,33929,16609
39214,65535,4709,210,169,165,159,161,35711,65535,4872,215,179,170,170,166,3142,30307,583,177,160,159,159,156,3404,27081,605,295,284,282,281,276,314,395,28751,24485,21125,21598,592,337,535,574,5055,5956,13757,11680,663,549,1557,6221,31763,32621,32567,31632,25883,37157,1839,10847,25431,32732,36318,35018,33910,16594
39189,65535,4660,210,175,164,162,157,35674,65535,4825,216,180,175,169,166,3141,30279,578,179,159,158,157,158,3396,27045,605,294,285,284,285,279,310,396,28749,24515,21134,21637,594,336,539,577,5059,5960,13781,11721,666,551,1560,6215,31749,32611,32561,31639,25883,37172,1835,10838,25406,32712,36351,35067,33899,16590
39200,65535,4708,209,169,164,163,158,35685,65535,4868,217,182,170,168,167,3141,30279,582,179,157,158,157,156,3401,27035,607,298,283,283,282,278,315,397,28791,24571,21156,21677,595,338,539,580,5066,5971,13803,11743,668,555,1555,6218,31751,32631,32570,31651,25881,37163,1837,10836,25399,32711,36367,35087,33893,16586
39197,65535,4657,211,169,163,160,159,35683,65535,4823,217,178,172,172,167,3142,30276,578,178,161,158,155,157,3399,27019,604,300,286,285,282,282,316,399,28821,24618,21185,21730,598,339,542,582,5076,5987,13823,11781,674,554,1557,6227,31757,32648,32581,31675,25879,37175,1838,10839,25399,32716,36387,35135,33892,16590
39206,65535,4706,210,171,163,161,156,35679,65535,4866,220,180,177,169,163,3143,30278,584,177,163,158,158,155,3399,27019,609,298,286,286,283,279,312,400,28888,24718,21230,21817,599,339,543,582,5082,6003,13863,11842,668,557,1556,6237,31768,32689,32599,31717,25889,37205,1837,10850,25408,32741,36441,35211,33889,16599
39226,65535,4660,213,170,162,160,160,35692,65535,4826,216,183,183,173,166,3141,30308,579,178,161,158,155,157,3401,27025,605,299,287,288,285,280,315,404,28963,24833,21283,21909,604,341,543,587,5097,6034,13916,11922,681,562,1563,6249,31792,32740,32628,31784,25904,37239,1839,10869,25413,32763,36508,35313,33897,16611
39270,65535,4708,209,170,167,162,159,35717,65535,4870,218,183,171,170,167,3145,30344,584,172,158,159,157,157,3402,27053,609,295,286,284,287,277,314,404,29035,24945,21329,21999,603,341,545,587,5111,6061,13972,11997,679,561,1559,6268,31821,32813,32659,31849,25917,37279,1839,10883,25420,32780,36580,35424,33910,16626
39317,65535,4663,212,170,162,163,158,35746,65535,4824,217,185,174,166,167,3150,30390,579,176,162,155,156,155,3403,27079,607,299,288,284,284,280,316,407,29115,25055,21372,22080,605,343,547,589,5127,6091,14021,12068,681,563,1563,6285,31859,32886,32695,31923,25935,37333,1840,10901,25428,32816,36651,35535,33927,16641
39368,65535,4711,207,168,163,160,157,35772,65535,4871,216,179,173,166,164,3151,30442,585,179,163,154,157,153,3405,27116,609,297,291,285,284,281,317,405,29181,25164,21415,22163,607,343,551,593,5142,6122,14065,12142,683,569,1562,6303,31895,32963,32735,32007,25959,37384,1842,10921,25434,32842,36727,35642,33939,16660
39420,65535,4668,213,169,162,160,157,35813,65535,4826,215,185,176,173,170,3152,30490,581,179,161,158,156,153,3409,27154,606,300,290,287,286,281,316,406,29247,25267,21460,22247,609,345,554,594,5159,6153,14123,12217,688,572,1568,6323,31943,33039,32785,32090,25979,37435,1843,10938,25448,32876,36801,35759,33958,16677
39479,65535,4713,214,169,163,159,160,35857,65535,4873,217,180,178,168,165,3157,30550,589,172,161,163,155,155,3411,27185,614,300,288,289,286,284,317,413,29311,25380,21508,22330,612,346,557,598,5176,6191,14177,12305,691,574,1567,6344,31981,33130,32836,32177,26007,37495,1844,10968,25449,32907,36890,35894,33983,16697
39531,65535,4669,210,169,162,163,159,35939,65535,4831,216,175,174,169,167,3157,30595,586,177,159,155,156,156,3421,27216,612,298,288,286,286,282,321,409,29320,25313,21491,22245,607,343,558,599,5181,6167,14111,12137,688,567,1570,6362,32059,33163,32879,32160,26009,37414,1847,10977,25463,32925,36793,35697,34005,16682
39423,65535,4709,207,168,163,160,161,35900,65535,4869,217,180,178,162,171,3156,30441,586,180,162,161,157,157,3416,27069,611,303,289,289,285,282,317,407,29050,24879,21344,21977,604,343,553,594,5125,6061,13915,11902,679,566,1569,6301,31947,32927,32790,31985,25973,37332,1844,10911,25514,32923,36588,35417,33978,16656
39375,65535,4660,212,170,163,159,157,35865,65535,4821,217,179,171,173,167,3155,30367,584,179,165,159,155,158,3414,27003,606,300,287,290,286,284,316,402,28960,24771,21295,21896,605,343,549,590,5106,6031,13861,11839,681,564,1565,6278,31908,32862,32753,31923,25962,37302,1843,10887,25514,32886,36528,35341,33962,16644
39344,65535,4705,210,168,163,162,160,35861,65535,4867,217,179,175,172,168,3152,30333,587,179,161,158,158,156,3410,26969,608,300,289,286,290,282,317,406,28938,24773,21293,21921,606,343,551,591,5105,6035,13876,11875,684,568,1563,6267,31893,32843,32742,31927,25963,37305,1841,10872,25478,32854,36549,35378,33948,16642
39342,65535,4659,209,169,162,160,159,35867,65535,4821,217,177,173,168,168,3149,30333,578,176,161,154,161,157,3412,26970,607,303,288,287,286,285,316,405,28982,24835,21315,21965,604,344,555,595,5116,6050,13901,11898,688,568,1564,6275,31900,32858,32754,31941,25959,37297,1841,10875,25473,32856,36574,35402,33953,16639
39338,65535,4705,212,172,167,159,157,35880,65535,4866,221,178,175,168,163,3149,30315,584,175,161,157,157,156,3411,26968,609,302,289,287,286,281,317,404,28999,24861,21335,21998,607,344,554,594,5119,6054,13916,11928,682,570,1562,6278,31902,32861,32763,31949,25961,37305,1841,10874,25480,32856,36588,35433,33945,16641
39339,65535,4660,209,172,167,160,156,35891,65535,4820,217,179,173,171,167,3151,30323,577,176,160,162,157,159,3411,26965,607,299,290,289,286,283,319,409,29050,24945,21369,22070,608,344,555,597,5126,6074,13951,11983,687,570,1563,6286,31911,32891,32777,31990,25963,37329,1842,10879,25471,32865,36639,35509,33948,16648
39365,65535,4708,211,170,163,160,159,35916,65535,4865,217,180,180,169,167,3152,30344,584,177,163,159,155,157,3414,26987,611,301,289,287,288,283,320,407,29119,25050,21410,22148,610,347,557,599,5140,6104,14000,12058,691,573,1565,6299,31926,32940,32801,32041,25977,37359,1843,10891,25469,32871,36702,35605,33951,16655
39403,65535,4661,209,170,162,162,162,35955,65535,4821,217,183,173,168,167,3153,30375,579,177,162,157,158,155,3416,27011,608,304,290,287,287,283,323,409,29195,25157,21459,22235,610,346,560,602,5156,6133,14058,12139,689,575,1567,6312,31953,32999,32832,32108,25991,37402,1845,10911,25469,32885,36767,35706,33963,16671
39447,65535,4707,209,168,164,159,159,35991,65535,4869,217,180,171,173,167,3153,30426,585,178,161,158,157,156,3419,27047,611,303,290,288,287,284,319,411,29256,25262,21501,22317,614,346,560,605,5172,6161,14109,12219,695,581,1567,6333,31982,33069,32869,32180,26007,37442,1843,10924,25463,32899,36839,35819,33981,16690
39498,65535,4666,210,172,165,161,159,36028,65535,4823,218,179,173,171,159,3157,30467,582,179,164,162,157,157,3425,27087,609,305,289,288,286,287,323,410,29320,25354,21546,22395,615,348,562,605,5183,6191,14156,12286,699,580,1569,6347,32025,33139,32913,32256,26033,37495,1847,10946,25486,32942,36907,35924,34001,16702
39551,65535,4711,211,169,165,159,161,36077,65535,4871,220,182,175,172,169,3159,30521,587,179,162,155,157,156,3429,27126,614,303,291,287,287,285,323,413,29379,25454,21587,22471,618,349,563,608,5201,6222,14209,12370,701,588,1570,6370,32062,33218,32955,32338,26051,37547,1849,10968,25496,32967,36988,36045,34015,16721
39601,65535,4665,210,169,162,163,158,36137,65535,4826,217,177,173,170,165,3161,30582,585,178,163,155,158,160,3434,27167,611,305,292,289,289,285,324,413,29434,25508,21605,22483,617,347,567,611,5214,6240,14223,12343,701,581,1574,6387,32128,33298,33017,32393,26075,37529,1851,10988,25483,32972,37004,36020,34043,16721
39543,65535,4711,209,169,161,161,159,36165,65535,4868,218,179,174,167,164,3161,30467,587,178,162,158,153,153,3437,27057,613,302,290,290,290,285,324,415,29235,25139,21501,22255,613,347,565,606,5173,6136,14020,12066,695,577,1574,6353,32073,33093,32949,32219,26041,37429,1848,10942,25537,32977,36759,35687,34027,16694
39471,65535,4660,210,170,163,164,157,36133,65535,4821,219,182,172,167,164,3157,30377,580,177,162,159,156,157,3433,27003,609,302,291,289,289,287,321,410,29113,24995,21444,22179,613,347,564,603,5149,6101,13967,12003,691,577,1570,6319,32015,33009,32904,32161,26030,37404,1848,10915,25534,32942,36694,35603,34013,16681
39451,65535,4706,208,168,164,159,161,36148,65535,4865,218,179,173,169,171,3159,30365,585,178,162,162,157,159,3434,26982,613,300,293,293,289,286,323,409,29106,25011,21442,22190,613,349,562,603,5148,6103,13975,12035,696,582,1568,6312,32003,32995,32901,32157,26021,37412,1845,10900,25501,32907,36715,35641,34000,16685
39465,65535,4657,211,169,166,163,158,36159,65535,4823,218,180,173,169,165,3159,30373,580,180,159,162,157,159,3432,26997,611,303,291,290,289,286,326,411,29154,25082,21462,22235,613,349,565,609,5161,6123,14006,12069,697,581,1568,6319,32018,33023,32914,32177,26025,37407,1847,10902,25493,32903,36749,35677,34003,16683
39469,65535,4706,214,169,165,163,160,36185,65535,4865,216,180,174,170,166,3157,30365,584,177,161,157,160,153,3435,26998,614,303,293,290,290,285,323,412,29159,25091,21473,22254,616,349,568,607,5162,6129,14015,12091,699,582,1567,6319,32020,33033,32922,32191,26026,37417,1846,10906,25488,32898,36759,35693,34005,16684
39471,65535,4661,210,168,163,162,161,36209,65535,4821,219,181,175,179,164,3157,30374,581,178,161,158,157,157,3440,27011,610,305,294,291,291,286,324,411,29203,25157,21504,22314,616,349,569,609,5169,6143,14050,12145,700,583,1570,6332,32025,33050,32935,32223,26033,37436,1850,10913,25487,32897,36807,35765,34005,16690
39502,65535,4706,212,171,163,159,156,36235,65535,4868,229,175,172,168,167,3157,30401,585,177,161,159,154,156,3443,27035,613,303,292,292,290,285,324,412,29259,25259,21540,22389,617,351,570,612,5180,6171,14093,12214,705,585,1570,6344,32040,33099,32956,32278,26045,37471,1850,10926,25489,32909,36863,35850,34014,16703
39546,65535,4660,209,169,162,164,158,36279,65535,4822,220,180,174,172,167,3162,30443,582,178,159,156,157,159,3443,27060,612,305,292,291,291,287,325,414,29329,25355,21575,22463,619,351,570,612,5196,6197,14149,12292,705,587,1572,6359,32069,33159,32992,32343,26058,37508,1849,10939,25487,32924,36935,35955,34029,16717
39586,65535,4709,211,169,164,159,157,36316,65535,4868,217,182,173,169,171,3162,30485,587,179,164,160,157,159,3446,27102,615,304,295,292,289,286,325,415,29385,25451,21619,22535,621,352,574,614,5210,6224,14196,12371,707,587,1571,6373,32095,33219,33021,32408,26073,37552,1849,10960,25496,32951,37000,36057,34044,16729
39636,65535,4665,211,170,163,159,157,36369,65535,4823,222,178,171,166,167,3167,30539,582,176,161,159,157,158,3450,27143,611,305,293,292,291,287,326,418,29446,25547,21658,22615,623,354,573,617,5223,6256,14250,12447,710,590,1576,6392,32135,33291,33063,32483,26090,37601,1852,10979,25503,32974,37074,36171,34053,16751
39688,65535,4711,211,171,164,159,161,36424,65535,4875,215,177,173,170,170,3169,30602,587,178,162,158,157,154,3455,27186,618,304,294,292,291,288,331,418,29507,25641,21691,22667,625,352,575,621,5240,6285,14291,12491,707,591,1574,6411,32172,33376,33111,32556,26123,37626,1853,11000,25498,32985,37129,36239,34081,16756
39676,65535,4664,210,168,163,159,160,36477,65535,4823,219,180,174,166,167,3169,30552,583,177,159,159,157,151,3461,27132,613,305,292,292,290,286,326,417,29405,25387,21627,22498,619,351,574,616,5217,6207,14135,12230,703,585,1576,6397,32179,33253,33087,32436,26094,37515,1854,10976,25542,33005,36921,35912,34077,16728
39583,65535,4706,209,169,162,163,159,36452,65535,4870,216,179,173,173,165,3165,30443,587,178,162,158,159,153,3459,27067,616,306,294,291,294,287,325,413,29239,25175,21557,22391,618,351,570,610,5181,6155,14045,12140,702,583,1570,6354,32104,33127,33037,32347,26081,37491,1850,10945,25547,32971,36830,35802,34058,16715
39561,65535,4659,209,168,163,162,158,36461,65535,4823,217,179,184,167,167,3167,30430,581,182,162,158,158,145,3459,27052,615,305,294,293,291,286,325,412,29235,25195,21551,22397,617,352,567,609,5179,6158,14055,12160,703,586,1571,6347,32091,33130,33025,32342,26082,37497,1851,10926,25521,32935,36845,35825,34055,16717
39575,65535,4706,207,169,162,162,158,36477,65535,4868,217,181,175,170,167,3166,30454,586,178,162,159,157,155,3459,27073,616,305,293,292,293,286,325,415,29282,25276,21566,22440,619,352,571,612,5193,6181,14090,12211,704,585,1569,6355,32103,33157,33043,32376,26083,37505,1847,10932,25505,32933,36894,35885,34055,16722
39594,65535,4657,209,168,164,160,157,36513,65535,4822,222,178,175,174,167,3167,30458,581,177,162,159,155,163,3465,27087,614,305,288,292,291,287,327,416,29294,25283,21575,22455,620,353,571,613,5201,6183,14095,12223,706,586,1573,6359,32120,33167,33041,32388,26085,37509,1851,10937,25507,32925,36899,35893,34054,16722
39595,65535,4705,215,170,165,159,158,36539,65535,4868,217,178,173,171,167,3167,30467,586,178,167,158,157,155,3467,27099,614,303,303,293,291,287,329,415,29316,25331,21602,22500,621,353,571,613,5201,6198,14121,12274,703,589,1572,6365,32117,33186,33055,32415,26085,37527,1851,10949,25504,32935,36933,35951,34054,16731
39619,65535,4664,211,167,162,161,159,36568,65535,4823,217,178,179,169,172,3167,30506,582,178,165,158,157,159,3468,27135,612,308,295,293,293,288,327,415,29375,25430,21634,22569,622,355,575,617,5211,6225,14166,12338,711,594,1574,6378,32136,33240,33079,32469,26095,37565,1853,10956,25507,32953,36996,36040,34062,16742
39670,65535,4710,209,171,162,163,159,36611,65535,4869,221,180,175,174,169,3173,30549,588,181,161,161,158,156,3471,27167,619,309,294,295,294,287,327,418,29432,25523,21666,22639,626,354,579,618,5228,6254,14220,12413,721,595,1573,6395,32161,33297,33109,32530,26111,37599,1851,10971,25507,32972,37062,36139,34075,16756
39708,65535,4663,211,172,162,160,159,36654,65535,4826,218,185,174,170,167,3174,30606,583,179,162,158,158,153,3475,27210,617,306,295,295,296,287,327,421,29494,25622,21704,22714,624,355,579,623,5247,6286,14274,12499,715,593,1578,6411,32193,33373,33145,32594,26127,37650,1853,10995,25515,32996,37133,36255,34084,16769
39765,65535,4712,210,169,163,159,161,36702,65535,4872,218,178,173,168,165,3179,30659,590,183,167,159,157,157,3480,27255,621,308,295,294,292,292,328,420,29559,25730,21737,22783,627,357,581,624,5261,6320,14328,12577,719,601,1574,6431,32229,33450,33178,32677,26152,37695,1854,11016,25522,33026,37213,36375,34111,16785
39792,65535,4665,209,168,163,164,159,36772,65535,4825,219,181,163,167,168,3179,30676,586,180,160,158,156,155,3491,27261,612,308,296,294,293,287,328,421,29535,25609,21713,22683,624,355,583,624,5256,6281,14234,12388,711,589,1579,6439,32277,33427,33197,32619,26142,37606,1857,11017,25557,33047,37086,36131,34117,16766
39680,65535,4707,210,169,162,161,159,36745,65535,4870,222,181,176,180,174,3175,30554,587,173,163,159,157,152,3488,27175,618,305,296,295,292,290,328,418,29356,25331,21633,22539,621,353,575,617,5218,6206,14111,12243,709,590,1575,6389,32187,33252,33133,32501,26119,37560,1853,10973,25581,33041,36951,35967,34097,16746
39662,65535,4661,211,169,163,161,158,36746,65535,4823,220,179,171,169,170,3175,30536,583,178,158,159,167,152,3487,27166,615,307,296,295,294,288,326,419,29328,25327,21616,22534,622,355,575,619,5207,6201,14105,12251,706,595,1578,6381,32170,33239,33115,32491,26112,37565,1853,10965,25559,33008,36946,35967,34081,16745
39676,65535,4707,212,168,164,165,158,36753,65535,4868,221,183,173,174,163,3177,30557,592,182,173,159,160,156,3488,27191,622,309,295,295,293,288,328,417,29375,25422,21634,22581,625,355,576,619,5218,6227,14151,12314,714,594,1573,6387,32167,33273,33124,32523,26117,37580,1853,10965,25542,33004,37010,36048,34084,16753
39697,65535,4660,211,169,163,160,159,36794,65535,4823,218,176,177,174,167,3176,30575,586,177,160,158,160,157,3495,27223,618,308,295,295,294,291,327,421,29393,25435,21641,22591,627,353,579,621,5226,6236,14157,12322,710,593,1576,6394,32194,33296,33137,32538,26123,37581,1855,10975,25551,33012,37021,36054,34087,16750
39703,65535,4708,211,171,165,160,162,36822,65535,4871,217,180,174,171,167,3179,30585,587,181,165,156,153,154,3498,27242,621,308,296,293,293,291,328,417,29408,25471,21658,22633,624,354,579,621,5230,6245,14175,12365,716,599,1574,6399,32191,33311,33139,32564,26123,37599,1855,10983,25550,33015,37045,36111,34089,16759
39725,65535,4664,211,171,166,160,158,36844,65535,4824,220,185,174,170,168,3178,30618,585,178,155,162,154,157,3500,27278,619,308,295,297,293,288,329,419,29465,25561,21687,22697,626,355,579,622,5240,6270,14221,12430,717,597,1576,6412,32209,33365,33167,32612,26136,37636,1856,10996,25549,33035,37108,36196,34095,16772
39771,65535,4708,211,170,167,159,160,36883,65535,4873,218,180,174,163,163,3181,30671,590,179,157,157,155,153,3509,27319,619,307,296,295,295,291,329,419,29519,25650,21716,22759,629,357,584,625,5255,6297,14268,12500,719,603,1574,6426,32231,33423,33191,32671,26154,37671,1859,11012,25556,33057,37167,36296,34105,16781
39817,65535,4664,211,169,163,160,158,36931,65535,4828,217,187,176,171,169,3185,30720,586,181,157,160,155,154,3510,27363,623,307,297,295,293,289,329,422,29578,25747,21756,22833,630,357,583,627,5269,6325,14319,12582,725,599,1580,6443,32266,33495,33222,32742,26170,37715,1857,11030,25562,33081,37240,36405,34123,16800
39865,65535,4713,211,169,163,162,161,36981,65535,4873,221,179,171,171,166,3188,30779,591,178,164,159,156,153,3516,27408,625,310,298,296,295,291,331,424,29638,25839,21782,22879,630,357,587,634,5283,6357,14362,12631,724,600,1578,6462,32303,33572,33270,32812,26187,37739,1859,11056,25558,33099,37302,36476,34145,16806
39852,65535,4667,211,168,163,161,161,37031,65535,4825,218,179,176,170,164,3188,30742,587,178,162,155,159,157,3524,27365,620,309,296,295,295,290,331,425,29549,25610,21730,22729,626,356,586,626,5261,6285,14220,12385,716,595,1583,6452,32310,33464,33246,32693,26161,37623,1860,11034,25617,33132,37101,36163,34134,16775
39762,65535,4708,210,173,162,160,157,37005,65535,4869,217,178,173,165,167,3184,30643,589,178,161,159,158,157,3524,27318,623,308,297,296,294,288,333,417,29401,25413,21668,22630,626,357,579,624,5229,6239,14141,12303,714,593,1575,6411,32237,33341,33186,32606,26147,37610,1859,11002,25619,33104,37022,36065,34119,16766
39745,65535,4663,211,169,165,159,161,37007,65535,4823,218,179,172,169,165,3186,30642,587,180,161,159,158,156,3525,27311,620,308,299,297,297,290,331,420,29417,25463,21659,22643,626,357,581,623,5233,6245,14152,12341,717,599,1576,6406,32222,33346,33170,32608,26136,37623,1860,10995,25604,33085,37050,36109,34103,16767
39775,65535,4708,211,170,163,163,158,37024,65535,4871,219,180,178,173,168,3187,30679,589,176,164,155,161,157,3527,27347,624,306,298,298,296,292,331,420,29459,25525,21675,22681,629,358,584,627,5242,6266,14183,12375,721,601,1575,6417,32233,33386,33186,32633,26141,37619,1858,11003,25587,33077,37081,36147,34109,16764
39774,65535,4663,210,171,161,162,157,37089,65535,4826,218,180,174,170,167,3187,30674,586,170,167,150,158,159,3531,27351,623,311,298,298,297,292,331,419,29455,25517,21696,22698,628,358,589,630,5243,6264,14193,12387,723,603,1579,6419,32249,33386,33195,32646,26139,37621,1860,11015,25535,33023,37077,36155,34105,16766
39799,65535,4709,212,168,163,159,160,37085,65535,4872,218,182,174,170,167,3187,30691,589,179,160,160,158,153,3534,27376,625,310,299,298,295,292,330,423,29485,25579,21702,22730,630,359,592,631,5251,6282,14214,12430,724,603,1575,6425,32233,33405,33200,32663,26143,37645,1858,11015,25565,33076,37118,36213,34109,16775
39812,65535,4663,210,172,163,160,160,37099,65535,4828,218,181,172,172,168,3190,30728,586,178,160,155,157,156,3539,27412,622,310,298,297,295,295,329,421,29540,25659,21725,22780,631,359,588,629,5263,6304,14243,12478,725,602,1577,6435,32255,33457,33205,32699,26146,37667,1861,11026,25615,33139,37163,36282,34115,16785
39845,65535,4710,211,169,162,160,157,37140,65535,4874,218,181,179,169,165,3192,30775,591,178,164,156,164,149,3542,27451,627,310,300,298,295,293,332,422,29588,25742,21755,22850,632,359,589,630,5269,6324,14289,12546,726,605,1576,6447,32277,33507,33233,32757,26155,37697,1863,11047,25614,33145,37217,36365,34124,16803
39900,65535,4665,213,170,166,160,159,37192,65535,4831,219,183,174,171,168,3194,30807,587,181,161,161,156,155,3543,27486,626,312,301,300,297,294,335,424,29628,25822,21803,22919,635,361,590,634,5285,6353,14342,12622,730,610,1581,6463,32304,33568,33264,32824,26181,37746,1864,11071,25606,33152,37278,36474,34139,16808
39919,65535,4713,211,169,161,162,162,37265,65535,4873,218,180,174,172,171,3195,30834,593,180,162,159,153,154,3550,27483,629,310,300,299,300,295,333,425,29614,25727,21779,22823,631,358,595,633,5281,6322,14269,12455,725,606,1580,6472,32339,33549,33275,32767,26172,37652,1865,11077,25597,33139,37165,36247,34140,16782
39795,65535,4663,206,169,163,164,159,37226,65535,4825,217,182,177,168,167,3195,30720,585,179,160,158,157,158,3549,27397,623,311,303,299,297,293,334,422,29440,25428,21678,22646,626,358,587,630,5241,6248,14140,12297,719,601,1575,6421,32255,33365,33195,32627,26135,37596,1863,11024,25635,33143,37027,36053,34115,16765
39767,65535,4707,212,168,163,162,159,37209,65535,4871,218,183,173,170,166,3197,30698,591,178,160,159,163,146,3547,27385,628,311,301,299,298,293,329,420,29405,25408,21653,22625,627,357,585,629,5231,6236,14121,12287,721,603,1575,6407,32218,33329,33162,32593,26127,37583,1861,11007,25635,33135,37015,36035,34099,16756
39772,65535,4660,209,171,162,160,159,37221,65535,4825,219,180,176,172,168,3196,30712,587,178,159,155,156,158,3548,27403,624,312,300,300,297,296,331,422,29443,25483,21668,22663,629,359,588,633,5239,6258,14167,12347,725,606,1575,6409,32219,33362,33167,32616,26127,37590,1862,11013,25607,33108,37054,36101,34100,16757
39791,65535,4707,211,169,163,160,158,37257,65535,4871,220,184,175,170,168,3193,30710,590,171,159,161,161,158,3553,27420,628,314,301,305,301,295,331,422,29452,25488,21666,22660,629,359,592,629,5246,6263,14166,12342,727,606,1573,6413,32221,33355,33166,32601,26119,37571,1862,11017,25605,33111,37051,36083,34091,16759
39789,65535,4660,209,174,164,163,158,37258,65535,4826,217,180,177,168,168,3194,30718,586,178,165,158,157,160,3555,27436,627,316,301,301,299,297,331,422,29464,25518,21676,22689,629,359,592,634,5250,6274,14183,12375,726,607,1574,6415,32214,33359,33160,32613,26119,37591,1864,11022,25627,33145,37071,36115,34087,16763
39802,65535,4706,211,169,163,158,162,37283,65535,4871,221,181,175,170,169,3196,30737,589,178,162,159,157,165,3555,27466,630,310,303,301,300,295,331,427,29505,25585,21701,22739,631,360,592,637,5255,6288,14208,12420,729,610,1573,6423,32221,33393,33155,32639,26122,37607,1864,11039,25642,33167,37107,36184,34090,16768
39823,65535,4661,210,169,166,159,158,37315,65535,4826,220,179,175,171,172,3195,30773,588,177,161,153,161,154,3560,27493,628,315,305,301,301,297,334,429,29552,25657,21732,22798,633,363,595,638,5263,6307,14250,12485,731,613,1575,6438,32239,33443,33180,32686,26135,37636,1867,11055,25626,33161,37157,36265,34095,16771
39865,65535,4709,211,169,164,161,159,37360,65535,4876,219,184,177,169,168,3201,30825,592,178,158,155,167,154,3565,27533,633,313,303,302,303,295,335,427,29610,25750,21758,22852,634,362,596,640,5281,6337,14301,12554,735,612,1577,6447,32256,33495,33208,32741,26148,37666,1868,11067,25611,33177,37219,36357,34103,16789
39893,65535,4665,211,169,162,161,160,37404,65535,4827,220,179,174,171,169,3202,30850,587,178,162,158,157,158,3573,27547,629,314,304,306,300,299,337,425,29613,25686,21731,22771,633,360,597,639,5283,6321,14241,12412,728,607,1578,6459,32298,33494,33209,32684,26127,37572,1872,11072,25650,33218,37124,36162,34109,16765
39788,65535,4704,210,169,163,159,161,37371,65535,4870,219,182,174,170,171,3199,30716,593,178,162,161,159,156,3569,27447,632,315,305,303,300,297,335,422,29411,25347,21624,22561,630,358,591,632,5239,6237,14097,12227,723,606,1573,6401,32194,33274,33113,32507,26092,37499,1867,11018,25681,33198,36960,35937,34075,16737
39733,65535,4659,210,168,164,163,155,37351,65535,4823,218,179,177,168,169,3196,30666,585,175,163,158,157,170,3569,27419,627,314,304,301,301,297,333,421,29348,25279,21593,22513,627,359,591,631,5228,6213,14071,12194,723,605,1571,6379,32151,33217,33070,32448,26077,37471,1868,11000,25658,33150,36923,35876,34053,16724
39719,65535,4703,209,169,163,163,160,37354,65535,4869,219,182,173,175,168,3194,30671,592,180,162,158,161,153,3568,27435,633,317,303,302,303,299,335,421,29357,25321,21586,22529,630,358,593,634,5229,6228,14099,12243,731,611,1568,6378,32126,33214,33047,32440,26069,37460,1867,11000,25624,33122,36955,35925,34040,16723
39721,65535,4655,210,170,163,162,159,37369,65535,4825,219,181,174,171,168,3196,30672,583,178,159,160,157,153,3570,27451,629,317,302,303,301,298,333,422,29372,25331,21583,22523,630,360,596,637,5238,6236,14104,12245,731,613,1571,6379,32130,33205,33048,32426,26062,37449,1866,10999,25621,33117,36947,35904,34031,16718
39705,65535,4703,210,169,163,163,159,37383,65535,4870,220,181,174,174,167,3197,30681,588,178,165,159,162,155,3571,27463,632,318,305,303,302,298,333,427,29389,25354,21587,22543,630,359,597,640,5240,6240,14113,12270,735,613,1568,6374,32113,33191,33025,32406,26047,37440,1863,10998,25615,33121,36960,35920,34022,16717
39714,65535,4658,207,173,165,160,161,37390,65535,4823,219,181,174,174,168,3193,30684,586,178,165,160,154,160,3577,27492,629,317,305,305,302,299,336,425,29425,25417,21608,22593,630,361,599,642,5247,6256,14146,12318,735,616,1572,6381,32107,33215,33018,32423,26047,37451,1867,11009,25623,33134,36992,35974,34020,16719
39735,65535,4702,210,169,162,160,159,37415,65535,4871,218,184,177,170,170,3195,30706,590,179,158,157,156,154,3580,27526,635,318,305,304,301,299,336,426,29469,25485,21633,22641,632,361,601,644,5255,6279,14184,12370,737,617,1566,6396,32108,33246,33029,32460,26049,37476,1869,11023,25612,33138,37035,36045,34026,16727
39757,65535,4658,213,167,162,159,160,37445,65535,4825,219,181,176,172,168,3198,30740,588,181,158,155,152,156,3582,27561,632,319,305,304,303,299,335,426,29519,25565,21665,22697,633,362,602,644,5265,6302,14223,12429,739,618,1570,6405,32134,33294,33040,32500,26062,37503,1869,11039,25621,33168,37083,36131,34031,16736
39771,65535,4705,214,169,163,160,160,37489,65535,4871,218,182,174,172,170,3203,30764,592,183,158,160,161,155,3584,27562,635,321,306,305,302,299,334,429,29511,25483,21626,22586,633,359,601,643,5266,6275,14158,12270,730,613,1569,6406,32155,33265,33028,32413,26035,37395,1869,11036,25638,33182,36979,35911,34027,16709
39662,65535,4655,209,170,162,159,157,37443,65535,4823,220,185,174,172,168,3196,30621,583,177,161,159,153,159,3585,27467,631,316,304,306,305,299,334,422,29307,25146,21511,22376,625,358,595,636,5226,6195,14028,12109,724,608,1563,6351,32043,33048,32922,32235,25995,37313,1867,10984,25669,33164,36829,35687,33992,16680
39599,65535,4698,210,173,163,161,159,37423,65535,4866,222,180,174,170,167,3193,30569,587,177,159,159,156,153,3581,27437,633,315,303,304,303,299,332,424,29239,25066,21470,22308,625,359,594,634,5207,6175,13993,12065,726,608,1559,6327,31987,32976,32865,32149,25979,37279,1864,10963,25646,33116,36777,35621,33965,16663
39579,65535,4652,212,168,167,160,159,37421,65535,4820,219,183,173,174,168,3191,30554,584,180,161,162,157,155,3581,27454,630,318,305,305,302,300,331,419,29251,25105,21467,22327,630,360,595,634,5210,6186,14020,12111,731,611,1561,6321,31966,32963,32843,32137,25969,37265,1864,10961,25618,33087,36803,35657,33950,16658
39575,65535,4697,210,170,163,162,157,37437,65535,4868,218,181,175,172,169,3193,30549,587,178,172,161,158,155,3583,27471,634,318,306,307,306,298,332,422,29258,25111,21468,22321,626,359,597,637,5215,6187,14025,12110,728,610,1558,6319,31948,32949,32829,32107,25958,37241,1862,10963,25617,33090,36786,35630,33933,16650
39553,65535,4651,211,170,166,163,160,37436,65535,4823,219,181,174,169,169,3190,30549,583,178,160,153,157,156,3587,27490,632,316,305,304,303,298,333,423,29271,25129,21474,22346,625,359,596,637,5219,6190,14037,12135,729,612,1559,6315,31927,32933,32807,32090,25946,37241,1866,10961,25606,33079,36799,35649,33927,16648
39551,65535,4696,210,169,166,163,158,37449,65535,4868,220,180,175,174,167,3189,30557,588,177,157,158,158,154,3588,27514,635,319,306,305,305,300,332,423,29309,25190,21491,22386,629,360,601,639,5225,6209,14063,12176,733,615,1557,6320,31922,32949,32797,32100,25943,37252,1862,10972,25611,33099,36831,35692,33921,16653
39567,65535,4651,211,170,164,162,158,37470,65535,4822,219,184,173,171,168,3189,30577,583,177,160,162,151,160,3591,27548,633,319,305,304,303,305,335,427,29353,25257,21519,22433,629,361,601,642,5233,6226,14097,12223,733,614,1561,6331,31933,32981,32801,32123,25947,37275,1865,10982,25602,33103,36857,35759,33918,16660
39587,65535,4699,207,169,163,159,161,37501,65535,4866,219,184,174,172,173,3193,30610,588,186,158,162,158,158,3596,27585,636,318,304,307,303,303,335,425,29398,25332,21547,22487,632,362,599,641,5237,6244,14136,12279,732,615,1559,6340,31938,33021,32810,32158,25959,37301,1866,11002,25600,33112,36908,35829,33923,16668
39599,65535,4652,211,171,162,159,158,37532,65535,4822,219,182,173,175,173,3195,30621,585,171,166,159,152,155,3603,27600,633,318,305,307,304,297,337,428,29402,25258,21507,22377,627,361,599,640,5242,6224,14073,12132,729,611,1560,6343,31953,32989,32796,32074,25929,37187,1869,10997,25634,33151,36803,35626,33922,16642
39501,65535,4694,209,169,163,159,158,37486,65535,4863,218,182,174,171,170,3188,30477,589,180,162,158,158,160,3601,27509,643,318,306,309,303,299,336,420,29183,24903,21389,22143,624,362,595,635,5199,6147,13949,11971,723,609,1553,6286,31839,32767,32692,31889,25890,37106,1865,10945,25650,33109,36653,35404,33887,16610
39434,65535,4647,210,169,167,158,157,37470,65535,4818,219,179,175,171,168,3186,30432,579,177,161,165,159,160,3598,27488,631,318,310,305,306,299,332,418,29110,24815,21338,22067,621,357,595,634,5187,6125,13917,11925,724,609,1554,6260,31787,32690,32626,31792,25870,37064,1863,10920,25619,33060,36608,35326,33862,16591
39397,65535,4691,210,169,166,162,157,37459,65535,4862,218,182,172,171,169,3185,30413,585,179,162,158,157,154,3600,27507,635,320,307,303,303,300,331,421,29119,24843,21331,22082,622,360,595,637,5189,6135,13935,11960,727,612,1547,6251,31750,32664,32599,31767,25855,37053,1862,10917,25605,33048,36630,35359,33843,16586
39392,65535,4646,209,169,163,160,159,37468,65535,4817,221,180,175,171,169,3182,30400,580,177,161,160,160,156,3607,27534,633,320,310,306,306,299,333,420,29130,24847,21333,22077,621,358,597,639,5191,6135,13939,11958,727,613,1549,6251,31738,32643,32566,31722,25842,37028,1865,10919,25599,33037,36611,35331,33827,16579
39378,65535,4690,209,171,163,163,159,37491,65535,4860,220,179,175,175,167,3181,30377,586,178,161,162,156,153,3609,27547,637,320,307,307,305,302,332,423,29126,24855,21354,22116,624,356,599,639,5191,6137,13959,11980,732,616,1549,6245,31708,32619,32557,31714,25827,37017,1861,10915,25545,32970,36605,35333,33814,16569
39380,65535,4643,209,169,162,160,162,37498,65535,4816,219,181,173,174,168,3183,30374,581,177,159,155,156,156,3606,27553,631,319,306,307,303,300,335,423,29153,24914,21382,22160,622,358,598,640,5197,6149,14012,12051,731,615,1548,6251,31710,32640,32579,31748,25843,37042,1863,10935,25486,32915,36654,35399,33802,16573
39402,65535,4690,210,172,163,161,159,37533,65535,4863,218,180,174,170,167,3189,30474,585,179,161,158,155,150,3614,27639,634,316,303,302,300,295,332,421,29259,25021,21388,22206,621,355,598,639,5212,6173,14015,12067,719,601,1546,6253,31721,32673,32558,31728,25836,37050,1857,10911,25558,33065,36697,35449,33819,16588
39400,65535,4646,215,170,163,162,159,37484,65535,4816,219,181,178,170,169,3181,30412,580,178,163,155,158,153,3615,27659,630,315,304,302,299,288,328,420,29265,25054,21425,22255,621,355,585,628,5205,6178,14029,12100,718,604,1550,6269,31732,32711,32563,31772,25857,37090,1862,10962,25699,33179,36735,35521,33820,16596
39418,65535,4694,211,169,163,160,158,37566,65535,4864,222,180,177,172,166,3185,30461,585,177,165,159,155,155,3616,27687,637,315,303,303,299,297,331,420,29286,25081,21423,22232,621,356,587,630,5210,6186,14041,12081,719,602,1550,6277,31749,32741,32577,31767,25851,37047,1864,10974,25599,33080,36730,35477,33821,16579
39364,65535,4642,212,170,161,161,161,37586,65535,4814,218,183,175,171,167,3183,30381,581,181,165,159,161,156,3615,27598,628,315,302,299,301,294,328,416,29127,24737,21297,21957,615,352,590,627,5181,6106,13906,11862,711,595,1548,6236,31681,32535,32495,31566,25810,36933,1862,10917,25590,33031,36533,35182,33795,16545
39273,65535,4684,207,172,162,160,160,37539,65535,4861,218,182,175,170,167,3184,30314,584,180,161,161,152,150,3609,27562,630,312,301,300,296,293,326,415,28996,24577,21202,21804,614,351,581,625,5160,6068,13846,11783,705,594,1542,6197,31603,32418,32417,31442,25787,36878,1856,10881,25594,33014,36472,35070,33764,16526
39220,65535,4637,211,169,162,159,158,37516,65535,4812,217,179,174,173,168,3178,30261,582,179,161,156,155,159,3608,27563,626,313,299,301,296,294,325,417,28957,24527,21184,21789,611,352,577,620,5147,6059,13834,11783,705,591,1539,6178,31565,32362,32361,31389,25778,36864,1855,10872,25627,33035,36455,35062,33751,16519
39217,65535,4683,209,168,163,160,158,37543,65535,4859,220,184,174,169,167,3180,30263,587,180,159,158,161,139,3608,27586,632,314,297,299,297,293,326,413,28984,24574,21197,21812,613,353,578,618,5153,6069,13860,11805,706,591,1537,6178,31549,32359,32374,31377,25770,36851,1855,10876,25546,32959,36471,35061,33733,16507
39203,65535,4637,210,171,163,162,157,37558,65535,4813,219,179,176,172,167,3179,30251,579,177,163,158,157,159,3611,27604,627,312,306,298,293,293,331,413,28994,24565,21193,21801,614,351,576,613,5151,6067,13857,11803,703,586,1539,6174,31533,32331,32345,31341,25761,36845,1857,10875,25579,32998,36468,35060,33726,16506
39199,65535,4683,211,169,165,159,161,37539,65535,4859,218,179,177,168,171,3177,30237,582,178,161,155,157,155,3615,27637,631,311,296,296,297,297,326,414,29007,24608,21201,21831,614,353,571,608,5152,6073,13867,11826,700,588,1537,6175,31515,32337,32326,31340,25764,36863,1856,10888,25639,33068,36495,35097,33723,16507
39211,65535,4638,210,167,163,160,160,37567,65535,4815,218,179,176,172,169,3173,30245,579,178,161,157,157,156,3618,27667,630,314,301,299,293,293,326,419,29038,24664,21228,21879,616,355,573,615,5160,6089,13905,11872,707,593,1539,6183,31517,32361,32327,31359,25773,36884,1859,10899,25609,33038,36523,35154,33723,16513
39230,65535,4683,209,172,163,163,159,37623,65535,4863,219,179,178,173,166,3178,30286,582,179,161,154,156,157,3619,27703,633,313,304,299,302,295,329,416,29084,24739,21248,21931,619,355,577,619,5171,6111,13947,11934,713,599,1539,6193,31524,32395,32349,31392,25776,36914,1857,10910,25538,32973,36571,35223,33727,16525
39280,65535,4640,209,168,161,160,158,37655,65535,4818,217,179,176,170,170,3180,30327,579,178,162,158,157,156,3627,27751,631,314,300,299,299,297,330,419,29147,24838,21274,21985,620,356,583,627,5192,6141,13991,11995,717,600,1541,6204,31534,32438,32359,31432,25793,36951,1860,10924,25541,33009,36628,35309,33744,16545
39305,65535,4685,215,171,164,163,158,37697,65535,4863,218,179,175,174,166,3181,30364,585,177,162,159,159,153,3631,27781,630,313,301,301,302,297,330,419,29163,24785,21239,21870,618,355,586,629,5194,6127,13950,11869,714,597,1538,6211,31570,32434,32359,31360,25774,36857,1862,10924,25563,33025,36554,35143,33751,16515
39197,65535,4638,211,173,163,158,157,37675,65535,4815,218,180,174,170,168,3178,30231,579,180,165,160,159,158,3629,27692,631,313,304,305,303,296,329,416,28933,24413,21098,21604,611,354,582,622,5153,6048,13820,11705,707,594,1537,6154,31466,32218,32251,31175,25739,36779,1859,10879,25589,32997,36406,34930,33726,16491
39141,65535,4679,211,168,162,160,160,37658,65535,4859,215,181,174,169,168,3173,30177,582,172,162,161,153,153,3631,27675,643,314,304,304,302,299,328,414,28849,24319,21055,21534,612,355,581,619,5139,6027,13790,11666,709,597,1532,6133,31407,32137,32199,31100,25726,36753,1857,10860,25558,32935,36366,34863,33699,16472
39135,65535,4634,206,170,164,162,158,37673,65535,4814,217,181,177,171,172,3174,30158,577,178,160,159,157,154,3631,27695,632,315,311,303,303,298,329,414,28848,24345,21063,21564,611,356,582,621,5140,6035,13819,11709,711,599,1535,6125,31385,32119,32197,31094,25725,36759,1858,10858,25509,32891,36388,34909,33696,16471
39131,65535,4679,207,169,164,163,160,37691,65535,4860,218,181,173,174,169,3173,30161,583,178,162,159,158,156,3635,27725,637,316,303,303,301,294,333,415,28870,24351,21072,21573,613,354,582,623,5143,6039,13819,11705,711,595,1529,6131,31384,32111,32185,31070,25719,36740,1857,10862,25519,32911,36384,34893,33688,16469
39111,65535,4633,209,170,163,163,157,37687,65535,4813,219,184,175,170,168,3171,30163,580,178,161,155,157,160,3639,27749,633,318,303,301,301,298,331,420,28887,24371,21081,21594,614,354,581,623,5145,6045,13833,11729,711,595,1529,6127,31371,32101,32177,31071,25725,36753,1857,10866,25531,32917,36398,34921,33690,16471
39122,65535,4680,211,172,164,160,162,37714,65535,4861,217,179,173,171,170,3175,30185,582,178,162,158,157,157,3640,27787,637,317,303,301,303,301,331,418,28923,24444,21107,21647,614,356,581,623,5150,6059,13871,11777,712,598,1530,6131,31377,32133,32191,31098,25735,36782,1857,10873,25516,32911,36443,34979,33699,16479
39145,65535,4634,209,169,164,160,158,37751,65535,4814,218,183,176,170,171,3175,30211,578,177,162,158,158,154,3643,27827,634,315,303,301,303,297,331,415,28976,24514,21133,21695,614,358,583,623,5159,6075,13900,11819,712,599,1532,6141,31392,32167,32205,31127,25741,36809,1859,10887,25521,32924,36486,35044,33710,16489
39174,65535,4682,213,169,164,159,159,37785,65535,4861,218,183,178,167,169,3175,30235,583,177,159,155,155,156,3648,27873,639,316,303,302,298,295,332,417,29017,24585,21168,21764,615,357,582,624,5168,6091,13936,11871,713,597,1532,6155,31403,32205,32223,31166,25757,36850,1861,10909,25515,32940,36534,35123,33730,16504
39203,65535,4638,210,169,161,159,162,37818,65535,4817,218,179,175,175,166,3177,30269,580,176,161,156,153,155,3653,27912,635,316,305,302,301,303,332,417,29065,24659,21188,21790,615,358,584,624,5177,6111,13966,11893,715,598,1535,6168,31435,32261,32251,31206,25774,36853,1864,10929,25514,32947,36579,35157,33749,16504
39190,65535,4680,211,169,162,160,158,37863,65535,4863,219,182,177,170,167,3178,30225,583,179,159,158,157,157,3656,27860,636,316,303,303,301,295,333,418,28945,24368,21075,21524,612,354,582,622,5157,6045,13838,11684,705,592,1534,6147,31403,32111,32193,31041,25739,36751,1862,10903,25533,32927,36394,34874,33735,16477
39111,65535,4631,209,169,166,159,158,37822,65535,4814,221,181,175,172,169,3175,30146,578,176,159,163,155,156,3653,27827,633,315,303,301,298,297,331,413,28792,24179,20982,21385,607,355,577,615,5131,6008,13778,11608,702,592,1529,6106,31327,31993,32127,30929,25731,36713,1859,10863,25548,32907,36329,34777,33719,16458
39077,65535,4675,209,169,163,164,157,37833,65535,4858,219,180,174,175,164,3174,30117,581,178,162,158,161,153,3652,27822,638,316,303,301,301,301,324,416,28755,24137,20966,21365,610,353,576,615,5124,6000,13770,11614,708,593,1526,6088,31298,31947,32103,30901,25725,36715,1858,10852,25526,32879,36323,34778,33703,16454
39073,65535,4631,213,169,162,160,161,37840,65535,4814,218,178,174,170,167,3175,30133,576,179,162,158,158,157,3654,27859,634,318,304,305,302,298,329,412,28795,24199,20993,21406,609,353,579,618,5134,6016,13799,11641,705,593,1528,6097,31306,31964,32110,30905,25725,36717,1859,10864,25491,32847,36355,34795,33703,16450
39077,65535,4675,211,170,165,163,160,37863,65535,4863,217,181,174,173,168,3174,30124,578,175,161,158,162,157,3658,27876,638,316,304,303,301,297,330,414,28795,24199,20995,21419,612,355,581,622,5137,6021,13811,11656,709,596,1529,6100,31303,31954,32111,30905,25732,36720,1860,10865,25481,32830,36357,34807,33698,16452
39076,65535,4631,209,167,165,163,159,37881,65535,4815,219,181,176,171,169,3176,30133,581,179,161,155,157,157,3659,27899,636,319,309,302,301,303,329,415,28831,24252,21027,21473,612,355,582,620,5142,6031,13840,11699,711,597,1529,6100,31302,31971,32124,30929,25735,36748,1860,10874,25477,32831,36397,34865,33709,16458
39096,65535,4679,207,170,163,159,159,37902,65535,4861,218,181,174,169,167,3175,30159,582,180,165,162,154,157,3663,27945,639,316,306,306,303,297,326,416,28877,24333,21056,21535,612,355,586,624,5153,6050,13878,11751,714,599,1525,6113,31315,32009,32142,30967,25751,36781,1859,10890,25473,32841,36445,34938,33723,16471
39123,65535,4634,209,168,163,160,158,37935,65535,4818,219,179,173,169,172,3175,30189,579,173,161,159,161,155,3665,27984,635,319,304,303,303,298,329,417,28931,24413,21093,21605,613,355,587,624,5162,6075,13921,11809,713,602,1529,6125,31343,32059,32170,31019,25770,36825,1861,10906,25482,32865,36508,35027,33745,16486
39155,65535,4681,207,169,166,161,159,37967,65535,4863,220,183,176,171,167,3178,30235,582,180,158,155,157,156,3669,28025,640,319,304,301,300,298,331,418,28985,24510,21130,21671,615,356,587,625,5174,6096,13963,11867,716,601,1529,6141,31370,32115,32201,31080,25794,36866,1863,10928,25476,32878,36574,35118,33771,16502
39184,65535,4633,205,169,166,161,158,38031,65535,4819,219,181,175,172,170,3181,30248,578,177,157,162,156,156,3676,28025,639,317,304,302,303,303,333,420,28971,24390,21076,21505,613,354,588,627,5176,6068,13888,11704,711,597,1531,6143,31399,32074,32200,30994,25775,36765,1867,10927,25493,32874,36456,34897,33775,16475
39097,65535,4676,210,169,162,159,159,37985,65535,4861,221,181,175,168,169,3178,30133,583,179,161,160,155,155,3673,27945,641,316,304,304,303,295,330,415,28731,24043,20942,21270,608,353,583,620,5135,5999,13775,11565,705,592,1526,6089,31297,31878,32106,30837,25752,36708,1862,10875,25521,32862,36339,34726,33755,16452
39047,65535,4627,212,169,163,160,161,37969,65535,4815,217,179,178,173,166,3177,30080,578,177,160,157,156,157,3673,27918,636,316,304,302,303,294,331,412,28664,23944,20891,21183,607,353,579,617,5121,5981,13747,11522,705,592,1523,6070,31259,31803,32072,30763,25741,36681,1862,10855,25505,32805,36292,34655,33742,16436
39013,65535,4672,211,172,162,160,157,37965,65535,4863,218,180,179,169,166,3175,30063,580,176,160,158,153,155,3672,27928,639,310,304,303,304,298,327,411,28667,23975,20904,21230,607,354,582,620,5125,5990,13772,11567,709,597,1521,6060,31237,31795,32063,30769,25741,36689,1859,10853,25471,32763,36325,34703,33732,16433
39025,65535,4629,212,172,166,154,158,37987,65535,4816,219,180,174,171,171,3176,30065,576,181,161,162,157,155,3674,27946,638,318,305,305,302,294,328,415,28689,24000,20919,21248,607,356,579,620,5131,5995,13783,11580,709,599,1522,6064,31242,31791,32068,30762,25742,36682,1859,10853,25460,32755,36326,34695,33735,16433
39007,65535,4671,212,169,162,159,159,37996,65535,4861,220,183,175,169,168,3173,30058,582,181,161,160,155,156,3676,27965,642,320,305,309,304,297,329,414,28696,24023,20937,21286,609,353,584,622,5131,6001,13802,11607,710,597,1521,6063,31234,31789,32074,30774,25747,36700,1860,10855,25449,32739,36349,34728,33735,16437
39015,65535,4628,210,168,168,165,158,38007,65535,4815,220,179,173,170,170,3176,30073,573,177,161,159,161,155,3680,27987,639,318,307,304,305,298,329,417,28746,24101,20972,21359,609,357,585,626,5141,6020,13837,11664,713,602,1524,6074,31249,31817,32087,30814,25759,36728,1860,10867,25440,32731,36398,34798,33747,16448
39043,65535,4673,214,172,166,159,159,38032,65535,4862,222,180,176,168,169,3175,30102,581,177,161,155,155,155,3682,28023,642,319,305,303,304,299,332,419,28802,24190,21009,21430,611,354,587,626,5153,6041,13880,11722,717,601,1523,6087,31270,31866,32117,30863,25775,36767,1863,10884,25430,32737,36449,34877,33765,16461
39075,65535,4628,210,170,164,164,158,38059,65535,4817,219,180,173,170,168,3177,30139,575,175,161,161,162,156,3686,28065,639,316,307,303,312,298,331,416,28864,24280,21046,21509,611,356,587,627,5165,6063,13921,11782,716,603,1525,6103,31298,31922,32147,30919,25793,36813,1865,10899,25438,32755,36510,34962,33788,16479
39117,65535,4675,210,172,165,159,158,38091,65535,4865,219,181,171,168,169,3181,30185,583,176,161,159,154,156,3687,28102,644,318,304,304,304,297,330,418,28925,24381,21091,21583,614,357,587,629,5178,6087,13967,11843,720,603,1526,6116,31333,31985,32181,30987,25818,36863,1863,10923,25444,32774,36575,35055,33817,16495
39143,65535,4630,210,169,163,157,160,38143,65535,4819,218,178,173,171,166,3185,30209,577,178,162,157,157,155,3695,28095,641,318,308,305,301,299,332,419,28900,24259,21041,21409,612,354,590,629,5176,6061,13888,11675,712,597,1527,6123,31367,31949,32185,30905,25798,36756,1866,10917,25449,32765,36459,34826,33824,16475
39048,65535,4671,209,169,162,161,160,38093,65535,4863,219,181,173,170,169,3177,30072,580,180,163,159,156,156,3689,27989,641,315,299,303,302,298,328,414,28647,23880,20892,21152,605,354,586,622,5134,5984,13765,11523,706,595,1522,6066,31255,31735,32089,30741,25773,36692,1860,10862,25479,32732,36317,34631,33807,16451
38994,65535,4623,209,169,162,162,161,38067,65535,4815,219,183,175,171,165,3179,30009,574,177,162,162,158,155,3686,27943,639,316,313,305,303,297,329,412,28561,23768,20831,21052,603,353,580,618,5118,5958,13728,11473,706,596,1520,6041,31216,31655,32045,30655,25763,36653,1860,10831,25455,32669,36261,34536,33788,16431
38953,65535,4668,209,170,165,161,157,38051,65535,4858,218,180,172,171,167,3174,29984,579,177,161,158,159,154,3684,27935,643,318,298,304,304,299,328,408,28549,23782,20839,21091,608,354,581,623,5116,5968,13746,11513,709,598,1521,6030,31190,31635,32035,30657,25758,36663,1858,10818,25425,32625,36283,34574,33773,16426
38960,65535,4623,209,169,174,160,162,38059,65535,4814,218,181,174,174,165,3175,29977,569,176,158,161,154,156,3687,27945,637,318,304,302,303,299,331,414,28578,23821,20860,21120,609,355,583,624,5124,5971,13763,11525,711,599,1520,6035,31196,31628,32043,30651,25760,36653,1858,10821,25404,32598,36291,34565,33775,16424
38943,65535,4669,211,169,163,162,157,38059,65535,4859,219,182,173,173,168,3172,29969,579,178,159,158,161,153,3686,27941,640,317,297,305,304,298,328,413,28589,23840,20878,21161,607,353,584,623,5126,5976,13780,11552,711,599,1517,6035,31189,31631,32041,30659,25765,36661,1856,10816,25391,32583,36305,34589,33770,16431
38942,65535,4622,210,169,165,158,158,38063,65535,4814,218,181,174,173,167,3172,29969,575,178,159,159,154,159,3687,27953,639,317,302,302,302,299,328,414,28643,23925,20919,21245,607,355,584,621,5132,5995,13813,11607,714,599,1521,6041,31202,31663,32060,30695,25771,36695,1858,10828,25391,32590,36346,34653,33789,16437
38970,65535,4670,211,169,164,158,159,38077,65535,4861,219,181,172,168,168,3177,29996,581,178,161,159,155,156,3688,27977,643,317,305,303,302,301,328,416,28695,24017,20964,21324,610,354,585,625,5142,6017,13857,11669,714,601,1520,6053,31217,31704,32087,30754,25787,36731,1859,10842,25383,32590,36398,34729,33803,16455
39003,65535,4625,209,170,166,160,159,38094,65535,4817,219,183,175,170,168,3178,30037,575,175,161,162,158,159,3691,27999,638,317,309,307,303,299,330,418,28760,24117,21002,21403,610,358,586,628,5154,6037,13902,11732,714,601,1522,6073,31249,31764,32117,30811,25811,36783,1859,10856,25387,32608,36461,34815,33819,16470
39046,65535,4672,210,169,163,160,160,38118,65535,4862,221,180,175,172,169,3179,30077,579,178,162,159,161,155,3694,28034,642,319,305,305,304,299,330,417,28816,24206,21045,21474,613,356,586,627,5166,6060,13938,11788,717,602,1524,6087,31285,31823,32153,30875,25833,36830,1859,10875,25395,32626,36515,34899,33848,16490
39089,65535,4627,210,170,161,161,157,38142,65535,4818,219,181,173,170,168,3179,30116,575,178,162,158,157,159,3695,28065,638,321,304,305,301,300,329,419,28880,24308,21083,21545,614,353,590,629,5177,6087,13985,11855,719,602,1525,6105,31322,31892,32199,30949,25859,36872,1865,10894,25399,32643,36589,34998,33881,16504
39115,65535,4672,209,169,163,161,158,38193,65535,4863,220,185,175,170,167,3184,30127,581,181,160,158,157,156,3699,28026,642,318,303,303,308,297,333,417,28835,24127,21014,21339,609,355,589,627,5172,6043,13885,11651,711,596,1527,6105,31344,31827,32186,30841,25835,36753,1863,10883,25415,32637,36446,34732,33886,16483
39017,65535,4621,211,166,162,160,161,38128,65535,4814,225,181,173,170,169,3179,29997,574,179,159,157,159,155,3692,27921,635,316,304,303,303,297,328,413,28581,23783,20875,21107,604,353,584,621,5131,5973,13771,11514,706,595,1526,6052,31245,31641,32099,30699,25812,36706,1862,10825,25437,32594,36314,34554,33865,16459
38964,65535,4664,212,168,163,159,156,38102,65535,4858,218,181,173,166,167,3178,29938,578,177,162,163,155,157,3688,27864,640,317,305,304,304,292,326,411,28503,23682,20821,21013,604,352,582,619,5115,5949,13738,11470,708,595,1519,6031,31212,31566,32067,30623,25801,36669,1857,10796,25401,32522,36266,34469,33844,16447
38937,65535,4621,209,171,163,160,159,38075,65535,4810,223,180,174,174,169,3174,29918,573,178,161,160,153,157,3691,27847,630,317,305,303,302,301,327,412,28508,23711,20825,21056,604,351,579,621,5117,5960,13765,11517,710,597,1519,6024,31195,31558,32063,30631,25803,36679,1857,10786,25371,32486,36301,34509,33842,16448
38942,65535,4664,212,171,163,159,157,38077,65535,4857,217,181,179,171,164,3175,29912,579,175,166,156,157,153,3689,27845,641,317,305,303,309,298,329,411,28533,23743,20846,21079,604,353,585,625,5122,5968,13777,11527,708,599,1516,6027,31194,31557,32063,30623,25798,36669,1855,10782,25366,32473,36296,34501,33840,16441
38925,65535,4622,210,167,163,162,164,38069,65535,4811,221,178,175,167,168,3171,29896,573,177,161,158,156,156,3687,27834,633,316,304,305,303,298,327,414,28547,23775,20873,21126,607,352,583,624,5125,5971,13792,11558,710,597,1518,6025,31190,31560,32067,30637,25803,36683,1857,10784,25363,32469,36317,34529,33842,16449
38931,65535,4665,209,169,164,159,161,38060,65535,4857,219,180,176,173,170,3172,29908,576,177,161,162,159,156,3688,27839,639,317,304,304,302,300,332,413,28595,23865,20914,21209,609,355,583,623,5132,5991,13828,11616,711,601,1518,6036,31203,31600,32084,30681,25815,36714,1856,10791,25356,32470,36363,34587,33846,16457
38959,65535,4620,210,174,165,159,159,38069,65535,4814,217,181,174,170,169,3171,29929,572,177,165,160,160,155,3690,27856,635,318,303,303,305,296,329,415,28665,23968,20959,21296,607,353,586,627,5147,6017,13877,11680,714,601,1521,6049,31231,31644,32117,30732,25833,36751,1860,10808,25356,32478,36425,34674,33867,16476
38991,65535,4666,214,169,162,166,160,38087,65535,4859,217,181,174,174,167,3179,29971,578,178,162,159,161,156,3688,27877,639,317,305,303,302,298,329,416,28729,24078,21001,21375,613,355,586,629,5159,6041,13925,11748,717,603,1521,6068,31259,31710,32150,30793,25846,36797,1856,10820,25362,32497,36481,34769,33887,16490
39033,65535,4623,210,166,162,160,163,38107,65535,4813,219,179,174,169,167,3180,30012,576,178,161,158,160,157,3692,27905,636,317,307,304,302,298,329,416,28793,24170,21045,21455,610,354,588,630,5171,6064,13963,11808,718,605,1524,6086,31295,31773,32187,30867,25874,36846,1859,10838,25373,32522,36550,34861,33913,16508
39084,65535,4670,205,169,160,158,159,38127,65535,4860,219,181,174,169,168,3180,30059,581,177,161,160,157,156,3697,27929,640,318,305,305,301,297,328,416,28852,24271,21083,21533,611,355,591,631,5182,6087,14007,11875,721,606,1523,6101,31327,31843,32222,30937,25897,36890,1861,10859,25368,32535,36618,34967,33939,16529
39127,65535,4626,210,172,162,159,156,38174,65535,4814,218,180,175,172,167,3184,30095,579,178,163,155,156,159,3699,27934,637,318,305,303,301,298,331,418,28859,24202,21055,21422,613,354,591,633,5185,6072,13952,11731,715,599,1529,6113,31374,31843,32249,30895,25883,36798,1860,10861,25381,32540,36539,34790,33952,16512
39027,65535,4666,209,169,168,160,159,38117,65535,4855,222,181,174,170,166,3180,29962,579,176,161,157,157,154,3695,27809,639,317,304,302,302,298,325,414,28595,23803,20910,21151,605,351,587,624,5139,5988,13809,11559,709,598,1521,6062,31272,31631,32159,30731,25852,36738,1858,10804,25419,32520,36378,34561,33935,16489
38973,65535,4618,210,169,160,161,159,38081,65535,4807,217,181,173,172,167,3175,29898,574,177,161,158,157,160,3693,27739,633,315,304,303,301,298,328,411,28514,23706,20855,21065,605,352,582,622,5123,5962,13764,11503,710,597,1519,6040,31239,31565,32119,30656,25840,36701,1860,10774,25402,32465,36323,34481,33916,16474
38939,65535,4666,208,169,165,158,159,38050,65535,4852,218,183,174,171,168,3174,29868,576,178,158,155,158,155,3687,27714,637,316,303,302,302,299,329,411,28496,23719,20851,21090,609,347,583,623,5121,5968,13782,11542,711,601,1516,6029,31213,31539,32104,30642,25833,36693,1855,10760,25365,32423,36352,34510,33902,16475
38923,65535,4619,209,171,166,160,159,38039,65535,4808,218,181,175,175,168,3172,29884,573,177,165,161,156,159,3680,27658,633,317,304,305,302,301,327,409,28527,23753,20861,21099,607,352,588,626,5131,5979,13779,11539,714,599,1518,6034,31215,31549,32076,30612,25823,36674,1851,10752,25377,32450,36337,34484,33905,16469
38837,65535,4663,213,168,162,156,159,37981,65535,4851,219,184,178,170,169,3174,29868,576,178,159,159,156,154,3682,27461,635,318,306,306,305,301,329,412,28523,23739,20852,21096,605,355,589,626,5134,5984,13775,11547,716,607,1517,6027,31197,31535,32046,30589,25811,36665,1850,10753,25430,32487,36330,34487,33897,16473
38852,65535,4619,211,170,163,153,159,37803,65535,4804,220,185,177,171,169,3172,29855,571,183,161,159,159,156,3683,27246,630,322,310,308,310,306,327,413,28547,23807,20879,21152,607,355,591,633,5142,6001,13802,11590,724,615,1516,6032,31199,31550,32045,30602,25807,36665,1852,10790,25415,32457,36353,34530,33906,16479
38915,65535,4662,210,169,163,159,161,37759,65535,4849,218,182,178,172,172,3171,29865,576,177,162,157,157,161,3690,27249,636,324,312,310,308,304,330,414,28602,23908,20923,21250,614,356,603,644,5157,6023,13861,11671,739,626,1515,6047,31194,31580,32083,30653,25808,36690,1858,10825,25311,32354,36404,34603,33910,16489
39003,65535,4620,210,169,166,164,157,37748,65535,4803,218,184,175,175,171,3175,29895,572,177,161,162,152,155,3691,27263,632,326,311,310,308,303,333,416,28664,24014,20975,21337,613,359,611,652,5171,6049,13923,11747,743,631,1518,6055,31211,31627,32109,30707,25822,36723,1864,10849,25237,32299,36461,34689,33928,16499
39026,65535,4667,210,169,163,161,159,37722,65535,4848,218,184,178,172,170,3178,29935,581,177,159,156,157,156,3682,27248,636,320,309,309,308,303,335,418,28734,24115,21013,21411,615,358,614,656,5186,6076,13959,11808,745,631,1518,6071,31241,31692,32143,30768,25838,36762,1863,10869,25281,32363,36525,34780,33944,16523
39081,65535,4622,211,168,163,160,157,37726,65535,4807,219,179,175,169,169,3180,29984,574,177,161,154,157,159,3678,27270,633,323,311,309,309,304,333,424,28799,24215,21066,21509,615,359,616,660,5201,6101,14013,11882,748,634,1523,6087,31279,31759,32199,30844,25853,36809,1865,10890,25290,32387,36591,34883,33967,16539
39139,65535,4670,215,169,163,162,158,37745,65535,4851,219,185,175,173,167,3186,30034,579,177,158,158,159,156,3675,27293,637,320,308,307,310,301,336,422,28851,24293,21111,21561,619,359,620,665,5211,6120,14047,11904,749,633,1522,6105,31321,31824,32245,30911,25870,36797,1866,10916,25265,32355,36638,34910,33989,16541
39112,65535,4622,212,169,167,157,158,37703,65535,4801,216,181,174,175,172,3182,29959,573,178,158,160,155,154,3650,27130,629,319,305,305,303,299,333,420,28683,23945,21023,21321,614,359,620,655,5177,6034,13893,11668,738,623,1523,6080,31268,31635,32194,30747,25822,36685,1867,10868,25258,32304,36429,34601,33967,16511
39047,65535,4666,211,169,165,158,162,37602,65535,4842,218,182,172,167,172,3180,29851,579,178,159,157,155,158,3617,27039,629,316,303,301,300,296,332,417,28533,23775,20955,21217,609,357,612,647,5147,5991,13836,11591,730,615,1516,6045,31189,31527,32145,30666,25803,36639,1858,10803,25240,32247,36360,34494,33945,16493
39013,65535,4618,210,170,164,164,158,37548,65535,4795,217,185,175,169,168,3176,29804,570,177,161,158,156,156,3596,27031,620,313,300,299,295,292,331,412,28499,23741,20942,21204,609,356,601,639,5134,5971,13827,11592,722,609,1519,6028,31162,31473,32125,30635,25791,36627,1854,10751,25189,32179,36355,34483,33938,16489
39003,65535,4663,212,169,163,160,160,37491,65535,4843,219,181,175,169,169,3172,29786,575,176,164,159,157,159,3580,27033,621,309,297,298,294,290,330,416,28533,23816,20969,21255,607,357,592,632,5131,5978,13852,11625,712,599,1513,6034,31154,31480,32138,30647,25791,36627,1848,10728,25195,32199,36397,34513,33941,16488
38996,65535,4618,210,169,164,160,158,37459,65535,4792,219,178,173,171,170,3170,29762,569,176,160,161,161,153,3556,26954,614,306,295,291,292,286,328,412,28547,23831,20977,21265,605,348,589,625,5123,5977,13853,11627,703,590,1518,6035,31157,31473,32141,30639,25796,36635,1844,10703,25226,32233,36411,34522,33937,16488
38968,65535,4660,215,168,162,162,158,37357,65535,4839,217,181,178,173,168,3168,29759,574,176,164,157,162,155,3541,26912,614,303,293,293,291,285,326,411,28568,23876,20989,21295,606,350,572,614,5121,5980,13857,11655,698,583,1515,6039,31153,31487,32135,30650,25804,36647,1836,10674,25282,32289,36437,34568,33944,16498
38963,65535,4617,209,168,160,161,158,37209,65535,4789,218,179,176,171,171,3163,29766,570,177,159,158,158,155,3533,26908,611,308,293,292,291,286,325,411,28615,23966,21017,21370,604,351,569,611,5126,5998,13893,11711,698,589,1517,6051,31160,31523,32153,30693,25812,36682,1830,10626,25278,32293,36489,34643,33966,16507
38971,65535,4663,210,169,165,161,159,37171,65535,4833,218,175,175,172,167,3159,29767,575,179,161,155,157,156,3546,27024,616,304,293,290,293,286,329,414,28656,24053,21057,21446,607,351,570,610,5134,6019,13938,11778,702,587,1516,6065,31171,31564,32172,30742,25822,36714,1822,10583,25275,32299,36550,34731,33982,16522
38981,65535,4621,209,169,168,159,159,37197,65535,4789,222,179,171,174,170,3151,29753,570,177,158,159,157,154,3572,27197,619,305,294,293,291,285,326,411,28719,24149,21099,21529,612,350,579,614,5150,6045,13989,11853,709,594,1519,6079,31197,31619,32204,30803,25827,36755,1813,10558,25277,32310,36607,34823,33998,16539
39023,65535,4666,207,169,164,163,158,37278,65535,4838,220,183,172,174,167,3149,29761,575,177,158,158,159,156,3577,27236,620,306,293,293,294,288,327,413,28771,24257,21156,21625,615,353,580,622,5165,6076,14057,11947,716,600,1518,6100,31219,31687,32256,30890,25846,36799,1813,10581,25237,32278,36688,34946,34014,16555
39064,65535,4623,208,167,164,164,160,37374,65535,4795,217,183,174,170,167,3147,29793,571,176,160,162,157,159,3569,27222,618,306,295,294,292,290,329,418,28836,24338,21178,21657,612,354,587,628,5182,6101,14079,11949,717,601,1524,6120,31279,31763,32306,30935,25860,36789,1816,10617,25227,32280,36728,34959,34035,16551
39007,65535,4665,209,169,163,160,157,37402,65535,4837,218,182,174,168,171,3142,29686,575,180,166,161,157,160,3564,27098,620,309,297,297,293,288,330,413,28669,23999,21073,21405,608,353,588,623,5153,6020,13919,11711,711,595,1521,6088,31222,31583,32236,30770,25819,36683,1816,10579,25275,32293,36529,34661,34009,16522
38943,65535,4615,210,173,161,162,160,37363,65535,4790,214,179,173,169,168,3137,29576,566,177,159,160,157,156,3559,27045,614,309,295,293,293,287,328,412,28550,23855,21001,21308,608,356,581,623,5133,5989,13855,11641,708,597,1520,6057,31166,31498,32185,30687,25796,36639,1814,10549,25311,32311,36476,34567,33989,16509
38911,65535,4660,209,169,164,164,165,37396,65535,4835,217,183,177,174,171,3128,29537,574,177,164,158,160,158,3559,27012,622,307,297,295,295,290,329,411,28527,23843,20986,21296,609,355,582,621,5131,5991,13855,11659,709,597,1516,6047,31149,31471,32159,30664,25792,36638,1814,10534,25332,32311,36477,34573,33979,16502
38873,65535,4615,208,169,162,160,161,37441,65535,4794,217,180,174,168,167,3131,29525,566,178,160,158,159,159,3551,26985,615,313,297,295,295,290,329,414,28559,23903,21015,21347,610,358,582,623,5138,6005,13887,11695,711,597,1518,6051,31162,31497,32179,30680,25798,36637,1813,10555,25283,32256,36497,34602,33971,16501
38860,65535,4660,215,169,163,167,160,37466,65535,4841,219,179,176,169,171,3127,29499,570,175,161,155,156,156,3550,26971,619,309,297,295,295,292,330,414,28551,23906,21035,21366,609,355,584,625,5139,6005,13902,11718,709,597,1515,6054,31162,31501,32181,30687,25802,36642,1811,10559,25257,32232,36511,34625,33967,16500
38859,65535,4614,210,167,165,161,162,37493,65535,4793,218,183,172,166,171,3126,29488,566,180,162,159,156,153,3551,26982,615,309,299,296,293,290,334,415,28590,23975,21065,21426,614,359,583,621,5142,6023,13936,11767,711,600,1517,6062,31175,31534,32191,30718,25805,36677,1813,10573,25276,32262,36555,34691,33969,16509
38905,65535,4662,212,169,162,163,159,37566,65535,4840,218,179,174,170,165,3127,29527,571,177,161,159,157,152,3558,27051,621,309,297,296,296,291,329,416,28662,24088,21095,21499,613,355,583,625,5155,6047,13977,11835,714,598,1516,6077,31195,31591,32217,30771,25831,36718,1814,10598,25313,32325,36619,34785,33975,16523
38945,65535,4615,212,171,163,161,152,37681,65535,4797,217,184,178,166,168,3130,29581,568,178,160,158,157,157,3568,27123,618,310,296,296,297,290,332,416,28731,24195,21131,21567,611,356,583,622,5171,6078,14029,11908,713,600,1519,6095,31233,31653,32255,30836,25854,36764,1822,10635,25339,32363,36691,34887,33993,16540
38991,65535,4663,209,169,160,161,165,37735,65535,4844,219,179,174,167,167,3132,29630,574,179,164,163,154,153,3571,27155,623,311,299,299,296,291,331,418,28790,24296,21173,21651,615,355,585,625,5183,6103,14079,11983,717,601,1522,6110,31275,31730,32303,30915,25877,36819,1822,10664,25353,32395,36763,34997,34006,16559
39035,65535,4621,213,173,163,160,163,37764,65535,4802,218,180,177,169,171,3135,29679,569,178,160,157,158,152,3570,27186,620,311,300,300,295,291,331,417,28861,24399,21219,21715,618,358,586,627,5202,6130,14127,12042,719,603,1525,6132,31320,31813,32356,30992,25907,36848,1824,10684,25362,32412,36833,35079,34032,16570
39036,65535,4666,209,170,163,163,162,37787,65535,4843,219,180,172,170,172,3135,29648,572,180,165,159,154,159,3575,27123,621,311,300,295,297,294,335,419,28761,24167,21160,21540,613,357,586,632,5183,6068,13992,11817,713,599,1524,6125,31322,31713,32329,30875,25874,36745,1826,10665,25389,32407,36645,34796,34021,16540
38954,65535,4619,210,175,166,161,162,37719,65535,4795,219,180,160,168,166,3127,29537,567,174,161,160,158,156,3569,27071,618,310,297,299,295,291,330,415,28591,23942,21077,21403,612,355,584,621,5152,6020,13909,11726,708,596,1521,6082,31256,31595,32277,30786,25863,36715,1821,10632,25403,32403,36570,34679,34000,16524
38935,65535,4663,211,172,158,157,159,37721,65535,4841,217,179,176,169,169,3127,29508,571,177,162,159,157,157,3568,27044,620,309,298,298,297,291,332,415,28564,23925,21058,21391,610,356,582,624,5146,6022,13907,11729,713,598,1519,6075,31235,31579,32261,30771,25863,36717,1820,10620,25393,32381,36562,34679,33983,16523
38945,65535,4616,211,170,164,159,156,37738,65535,4798,218,187,178,170,167,3125,29510,567,178,162,156,159,157,3568,27064,620,313,298,297,297,294,330,415,28612,24015,21083,21449,611,357,584,624,5161,6043,13954,11783,714,600,1519,6082,31248,31617,32281,30804,25871,36735,1821,10631,25377,32369,36613,34742,33985,16524
38971,65535,4665,213,169,163,160,160,37762,65535,4842,222,181,173,169,172,3129,29513,570,175,164,159,155,157,3569,27068,622,309,299,297,296,295,329,418,28626,24033,21094,21465,612,355,585,625,5163,6047,13956,11797,716,602,1520,6088,31261,31628,32289,30812,25875,36743,1819,10641,25389,32379,36615,34749,33983,16523
38965,65535,4617,209,168,163,160,160,37765,65535,4796,218,180,174,170,166,3126,29526,566,177,159,155,157,155,3571,27069,619,313,297,298,297,291,331,416,28654,24092,21122,21518,612,355,585,626,5168,6059,13983,11842,717,601,1521,6094,31278,31665,32303,30847,25889,36777,1822,10647,25396,32392,36648,34820,33985,16533
39000,65535,4663,212,168,163,159,158,37780,65535,4842,219,180,174,170,169,3129,29561,575,181,161,159,161,156,3568,27089,623,310,299,297,296,291,330,415,28719,24201,21163,21597,617,355,587,627,5179,6083,14025,11911,717,603,1522,6109,31295,31722,32330,30909,25907,36821,1821,10669,25399,32411,36707,34913,33996,16548
39045,65535,4621,211,169,162,160,158,37819,65535,4801,218,182,175,169,172,3134,29610,568,178,160,156,160,153,3571,27113,621,311,299,298,297,292,331,418,28787,24304,21199,21675,615,360,586,626,5194,6109,14071,11978,721,607,1525,6125,31340,31792,32376,30974,25934,36871,1826,10687,25417,32443,36772,35007,34009,16563
39097,65535,4667,206,172,167,159,160,37853,65535,4843,219,181,173,170,174,3136,29670,574,179,161,156,156,153,3573,27141,625,312,300,297,296,292,332,419,28856,24413,21253,21759,619,362,592,634,5206,6137,14127,12061,722,608,1525,6147,31374,31871,32417,31053,25955,36927,1825,10714,25431,32476,36844,35125,34026,16582
39147,65535,4624,211,169,162,160,160,37893,65535,4801,218,183,171,171,167,3140,29735,569,177,161,159,158,156,3575,27174,621,313,299,301,298,291,333,422,28917,24483,21271,21779,617,359,591,635,5218,6155,14143,12053,725,603,1528,6166,31437,31949,32470,31108,25979,36912,1827,10739,25429,32483,36872,35123,34045,16578
39107,65535,4667,206,168,163,161,162,37899,65535,4843,218,183,174,171,164,3142,29663,574,177,159,161,156,159,3576,27095,622,311,298,301,296,295,332,417,28749,24157,21180,21557,614,361,588,629,5185,6073,13982,11815,714,600,1526,6138,31390,31784,32411,30961,25941,36823,1826,10701,25468,32487,36671,34836,34025,16554
39058,65535,4619,211,168,163,159,159,37874,65535,4798,219,194,175,169,170,3138,29606,567,185,160,155,159,156,3571,27055,619,311,301,296,299,291,326,415,28643,24029,21126,21482,611,359,586,624,5165,6039,13930,11759,710,599,1525,6112,31352,31727,32375,30908,25941,36814,1826,10681,25484,32481,36620,34766,34007,16541
39055,65535,4664,209,168,162,161,161,37886,65535,4844,219,181,173,165,170,3140,29603,572,177,160,158,157,159,3571,27043,621,311,300,299,299,292,329,415,28633,24043,21123,21501,612,361,584,624,5163,6046,13940,11799,715,601,1521,6108,31341,31722,32374,30912,25941,36826,1825,10680,25472,32461,36642,34810,33997,16545
39079,65535,4621,210,171,162,163,156,37916,65535,4799,218,179,175,167,167,3141,29637,568,177,164,158,158,160,3571,27067,618,312,299,300,297,294,331,418,28691,24130,21150,21548,614,356,587,629,5175,6067,13969,11830,717,601,1524,6115,31362,31768,32391,30943,25945,36844,1825,10693,25476,32475,36675,34841,33993,16545
39097,65535,4665,208,172,163,161,160,37958,65535,4844,221,180,178,168,169,3148,29662,573,179,159,156,161,157,3577,27095,624,313,301,298,298,296,331,420,28708,24158,21162,21570,615,358,587,626,5179,6076,13981,11853,715,605,1524,6120,31373,31788,32397,30962,25955,36861,1827,10709,25486,32495,36690,34875,33993,16549
39116,65535,4621,209,169,166,162,158,38014,65535,4803,217,180,173,169,168,3149,29707,570,177,159,162,157,156,3585,27139,621,314,301,300,298,293,331,416,28755,24241,21195,21639,614,356,588,627,5190,6094,14015,11915,715,603,1524,6133,31393,31833,32421,31012,25969,36904,1831,10733,25492,32500,36737,34963,33996,16559
39162,65535,4670,211,168,162,160,158,38055,65535,4847,217,179,178,170,171,3156,29764,575,177,164,161,157,159,3586,27153,624,312,302,300,297,294,333,419,28819,24353,21233,21718,616,360,586,631,5199,6118,14064,11982,721,607,1526,6150,31420,31902,32457,31080,25987,36941,1831,10759,25497,32525,36796,35057,34007,16571
39212,65535,4624,210,171,161,159,158,38119,65535,4806,217,188,175,171,171,3160,29830,571,178,163,156,157,154,3585,27170,624,312,300,299,298,294,331,419,28892,24463,21278,21802,618,359,590,630,5215,6147,14111,12058,721,607,1530,6165,31461,31975,32499,31150,26013,37005,1835,10781,25512,32564,36867,35171,34016,16593
39268,65535,4671,209,171,164,163,156,38154,65535,4850,219,179,174,170,166,3163,29903,580,181,161,158,159,155,3586,27211,628,313,300,298,299,294,334,420,28965,24578,21323,21879,622,359,589,635,5226,6180,14165,12138,726,608,1529,6188,31503,32063,32543,31239,26043,37053,1836,10808,25526,32601,36940,35287,34038,16610
39307,65535,4626,210,169,162,161,157,38202,65535,4806,219,182,177,173,171,3169,29935,572,179,161,158,158,155,3593,27204,623,311,303,299,299,294,333,419,28966,24493,21299,21778,617,360,593,634,5229,6149,14089,11962,717,601,1533,6197,31551,32058,32570,31191,26031,36959,1841,10821,25554,32619,36827,35069,34044,16588
39215,65535,4668,210,169,163,159,159,38187,65535,4848,217,184,173,160,168,3165,29820,578,177,159,159,157,156,3586,27090,626,312,300,299,297,293,332,417,28733,24137,21185,21565,612,355,589,626,5184,6073,13948,11801,713,595,1528,6148,31459,31877,32495,31057,26006,36911,1839,10774,25586,32605,36678,34875,34016,16566
39179,65535,4620,212,170,163,160,159,38167,65535,4801,217,180,172,167,168,3165,29787,571,178,163,159,157,158,3581,27048,620,314,301,302,298,294,330,419,28677,24074,21150,21505,612,355,587,627,5172,6057,13915,11767,713,600,1526,6135,31433,31841,32471,31017,26000,36901,1835,10761,25581,32571,36646,34825,33992,16551
39178,65535,4667,213,169,162,162,159,38172,65535,4849,219,179,176,171,169,3165,29795,578,176,161,159,156,159,3586,27059,624,312,302,300,297,295,330,417,28687,24126,21155,21550,614,359,588,631,5177,6067,13947,11820,717,607,1525,6132,31422,31853,32473,31035,26000,36914,1836,10763,25551,32546,36680,34879,33991,16554
39197,65535,4623,213,167,162,159,159,38211,65535,4802,217,181,177,172,167,3169,29813,571,175,159,158,156,158,3588,27069,623,313,301,299,300,296,327,419,28726,24175,21173,21580,614,358,590,629,5187,6082,13962,11835,718,602,1527,6140,31440,31879,32485,31052,26008,36926,1838,10775,25559,32565,36691,34899,33981,16553
39201,65535,4668,210,171,164,162,157,38239,65535,4848,220,180,173,172,167,3170,29830,575,180,161,162,157,154,3587,27060,624,315,301,302,302,295,331,419,28747,24219,21189,21616,617,357,590,630,5190,6090,13978,11866,720,605,1525,6145,31449,31897,32490,31075,26017,36955,1836,10785,25560,32570,36714,34934,33980,16559
39214,65535,4625,209,169,166,160,162,38260,65535,4800,220,182,172,174,166,3171,29857,571,176,161,158,158,156,3591,27082,621,314,301,301,299,294,332,418,28803,24316,21219,21684,615,358,589,632,5197,6111,14018,11932,720,606,1529,6154,31467,31947,32513,31128,26029,36991,1838,10802,25565,32587,36763,35017,33986,16569
39258,65535,4670,209,170,164,159,158,38280,65535,4849,217,181,172,171,165,3174,29908,581,179,160,158,159,154,3589,27106,629,315,302,300,300,297,332,419,28875,24423,21265,21767,621,358,591,635,5209,6136,14067,12003,723,608,1529,6174,31492,32014,32547,31197,26047,37036,1839,10821,25571,32615,36824,35117,33993,16586
39305,65535,4625,209,169,163,162,157,38316,65535,4808,219,181,175,170,168,3177,29956,574,176,160,158,157,159,3593,27139,622,314,303,301,299,298,335,419,28945,24535,21306,21852,619,357,597,633,5223,6163,14115,12079,724,608,1533,6190,31531,32084,32590,31277,26071,37095,1842,10846,25589,32642,36885,35225,34007,16602
39352,65535,4674,210,169,165,161,158,38355,65535,4852,219,180,177,169,168,3184,30015,580,181,159,155,155,157,3595,27180,626,316,303,302,300,295,331,420,29013,24628,21343,21899,620,359,593,635,5234,6189,14150,12114,726,607,1533,6209,31578,32169,32641,31343,26103,37110,1842,10877,25594,32657,36947,35287,34026,16605
39325,65535,4625,210,168,162,161,161,38389,65535,4804,221,180,175,172,166,3182,29966,575,179,159,157,157,157,3606,27133,622,313,302,301,299,295,332,419,28893,24335,21253,21675,616,357,590,630,5211,6113,13989,11855,716,601,1537,6190,31560,32039,32606,31197,26060,37003,1844,10848,25639,32671,36732,34963,34009,16573
39249,65535,4669,212,169,161,162,162,38338,65535,4847,216,181,174,173,170,3178,29875,579,179,164,158,161,157,3602,27049,628,313,301,301,299,298,331,416,28716,24124,21171,21540,616,357,585,626,5180,6067,13908,11762,713,602,1528,6153,31487,31926,32542,31119,26047,36980,1843,10822,25647,32648,36647,34844,33981,16553
39211,65535,4622,210,169,163,162,158,38317,65535,4800,218,180,175,166,167,3179,29849,574,182,161,155,157,157,3596,27010,621,315,302,300,298,296,329,419,28687,24088,21145,21518,615,354,581,626,5171,6057,13892,11755,715,599,1530,6141,31473,31893,32529,31091,26038,36977,1843,10805,25620,32607,36626,34826,33967,16552
39215,65535,4668,210,169,166,160,159,38301,65535,4846,217,179,174,170,172,3179,29855,573,178,164,156,156,159,3598,27025,626,314,303,301,300,296,330,415,28721,24168,21158,21563,613,357,586,626,5182,6075,13928,11806,715,602,1527,6147,31473,31926,32534,31109,26045,36988,1840,10809,25603,32602,36663,34874,33959,16550
39222,65535,4622,209,169,162,163,158,38311,65535,4801,216,181,176,165,169,3178,29857,572,178,160,158,157,155,3601,27028,621,313,302,302,300,300,330,417,28743,24191,21171,21579,616,356,588,630,5188,6079,13935,11821,718,602,1531,6151,31481,31934,32538,31115,26047,36997,1841,10815,25613,32609,36665,34883,33957,16548
39224,65535,4669,206,168,163,162,159,38311,65535,4846,218,180,174,173,169,3177,29870,576,177,161,162,158,157,3604,27035,627,315,303,303,303,296,330,417,28765,24250,21193,21629,617,360,590,630,5192,6095,13961,11864,716,603,1526,6154,31481,31963,32545,31147,26052,37023,1843,10824,25609,32617,36697,34945,33947,16555
39249,65535,4624,210,168,165,163,157,38317,65535,4801,218,181,176,169,172,3179,29901,572,178,157,157,157,158,3604,27056,622,315,303,301,301,296,331,418,28842,24357,21234,21707,618,358,590,630,5201,6116,14005,11932,721,608,1531,6169,31503,32018,32574,31207,26066,37066,1843,10840,25605,32626,36753,35033,33958,16569
39285,65535,4670,207,169,163,164,159,38335,65535,4850,219,181,174,172,168,3180,29942,577,178,162,162,160,157,3611,27087,625,317,303,305,301,296,331,419,28903,24458,21271,21781,619,357,592,631,5215,6143,14053,12000,721,605,1527,6185,31526,32078,32607,31270,26085,37113,1845,10858,25615,32646,36810,35129,33965,16584
39325,65535,4626,213,169,161,160,158,38354,65535,4802,218,181,175,169,168,3188,29993,574,180,161,155,153,159,3608,27093,622,315,303,302,302,297,332,423,28977,24576,21319,21872,619,359,591,636,5225,6172,14107,12082,723,606,1535,6206,31564,32149,32651,31344,26103,37164,1847,10879,25627,32672,36882,35238,33978,16600
39367,65535,4674,211,172,164,160,159,38388,65535,4848,217,180,173,172,169,3190,30045,579,178,161,159,157,157,3611,27125,626,316,303,302,301,297,330,422,29022,24615,21333,21863,619,358,592,635,5241,6187,14110,12033,722,604,1533,6223,31615,32215,32694,31367,26110,37124,1848,10895,25621,32689,36880,35180,33999,16591
39295,65535,4625,210,169,162,162,156,38363,65535,4800,218,182,179,171,168,3184,29935,573,181,160,158,156,152,3611,26997,621,314,304,302,301,297,332,417,28816,24230,21207,21598,614,356,588,630,5200,6091,13934,11798,717,600,1533,6182,31545,32010,32618,31207,26074,37047,1848,10843,25657,32661,36662,34890,33969,16562
39233,65535,4665,210,170,165,161,158,38321,65535,4844,220,180,178,173,170,3182,29868,576,175,163,155,157,156,3607,26935,624,315,304,301,300,295,332,417,28702,24105,21163,21526,612,357,586,627,5180,6058,13884,11743,715,600,1528,6156,31491,31942,32581,31152,26064,37026,1845,10823,25636,32607,36601,34805,33943,16545
39196,65535,4620,212,168,163,161,158,38301,65535,4797,217,180,179,169,171,3181,29851,573,178,160,159,155,152,3602,26910,619,314,305,300,301,295,333,415,28701,24111,21157,21541,613,356,586,626,5176,6061,13895,11774,717,599,1528,6148,31471,31929,32566,31143,26060,37037,1843,10803,25604,32585,36617,34836,33937,16548
39222,65535,4669,211,170,163,161,163,38269,65535,4841,223,178,174,166,179,3182,29849,576,180,149,159,157,159,3604,26927,622,314,301,300,298,294,329,415,28736,24186,21168,21557,612,353,583,625,5181,6074,13913,11788,709,596,1529,6157,31473,31954,32571,31148,26065,37043,1842,10812,25638,32634,36637,34849,33923,16543
39207,65535,4622,210,172,164,159,160,38271,65535,4799,219,178,184,173,167,3181,29854,570,180,164,157,162,155,3609,26935,618,313,302,302,300,295,331,414,28751,24197,21175,21579,614,355,581,621,5183,6073,13915,11803,714,593,1529,6158,31487,31961,32568,31160,26068,37059,1847,10809,25659,32651,36635,34869,33927,16545
39201,65535,4667,206,169,163,161,157,38282,65535,4842,220,180,173,172,164,3183,29872,574,177,158,155,157,156,3611,26936,623,320,302,301,302,295,330,415,28793,24269,21208,21643,615,354,580,621,5186,6089,13947,11853,711,595,1528,6163,31493,32004,32587,31204,26085,37097,1846,10826,25640,32639,36669,34939,33922,16555
39223,65535,4621,209,168,166,160,158,38293,65535,4801,219,183,173,170,168,3184,29901,572,178,159,159,153,157,3609,26943,621,314,303,301,301,296,327,417,28851,24367,21246,21722,613,355,582,623,5194,6110,13993,11922,708,596,1533,6182,31522,32065,32623,31261,26095,37150,1845,10844,25630,32645,36730,35027,33933,16569
39273,65535,4671,211,171,164,160,160,38307,65535,4848,219,181,174,166,168,3186,29948,580,178,163,159,157,155,3612,26963,625,314,302,301,301,298,328,417,28911,24469,21277,21783,614,354,583,622,5203,6137,14037,11983,711,599,1531,6196,31542,32127,32651,31325,26115,37192,1847,10862,25644,32681,36792,35116,33942,16584
39315,65535,4627,211,171,163,163,157,38319,65535,4799,219,184,173,169,168,3187,29995,573,177,165,159,157,159,3615,26998,621,315,304,305,301,299,329,417,28987,24587,21319,21864,617,356,583,624,5219,6165,14090,12067,718,599,1534,6214,31579,32201,32693,31405,26139,37242,1850,10880,25654,32698,36857,35233,33961,16604
39359,65535,4673,209,172,162,161,158,38363,65535,4844,219,179,180,169,171,3193,30036,581,179,161,161,156,159,3619,27013,628,315,303,304,300,296,334,421,29003,24573,21327,21821,615,356,585,626,5230,6164,14064,11963,711,600,1536,6230,31633,32242,32728,31399,26134,37177,1854,10895,25664,32731,36808,35096,33979,16587
39268,65535,4623,210,169,165,162,158,38322,65535,4797,217,184,175,171,168,3189,29905,572,178,162,159,152,155,3617,26883,619,317,303,303,300,297,329,413,28778,24180,21196,21569,609,353,579,621,5183,6074,13909,11769,704,591,1533,6187,31545,32035,32652,31248,26105,37126,1853,10851,25703,32711,36625,34866,33950,16566
39222,65535,4667,215,168,163,159,160,38282,65535,4842,215,183,175,170,166,3187,29871,576,177,163,157,157,156,3613,26843,621,314,304,301,298,295,327,411,28709,24118,21149,21499,609,351,579,617,5169,6056,13870,11729,705,590,1528,6167,31507,32001,32622,31204,26102,37111,1848,10823,25712,32705,36591,34809,33935,16556
39207,65535,4622,209,169,162,159,158,38259,65535,4793,218,177,173,174,171,3186,29877,572,177,158,153,156,152,3615,26845,617,315,303,302,300,295,327,411,28734,24158,21151,21520,609,353,577,617,5173,6065,13886,11769,705,593,1530,6162,31507,32014,32611,31209,26109,37129,1853,10821,25717,32709,36623,34862,33927,16559
39193,65535,4669,209,170,160,159,159,38270,65535,4840,219,181,177,171,169,3188,29877,577,183,161,159,157,159,3613,26837,623,317,304,305,301,297,326,412,28757,24187,21172,21549,611,355,579,620,5178,6076,13901,11783,710,595,1529,6169,31519,32037,32622,31221,26105,37139,1851,10831,25678,32661,36612,34854,33919,16551
39198,65535,4620,210,170,166,161,158,38263,65535,4792,218,186,175,172,171,3190,29877,575,176,165,160,157,155,3612,26818,621,315,303,304,300,298,327,410,28766,24211,21182,21582,612,359,583,625,5181,6081,13924,11822,714,602,1529,6171,31515,32043,32630,31238,26108,37151,1851,10836,25626,32608,36631,34894,33918,16557
39221,65535,4668,209,169,163,163,158,38243,65535,4841,219,182,167,172,167,3191,29907,577,181,164,158,157,155,3612,26822,623,317,304,303,305,298,329,416,28821,24319,21211,21649,617,356,587,630,5195,6101,13964,11884,721,602,1532,6183,31523,32079,32645,31283,26112,37181,1849,10845,25613,32619,36687,34975,33918,16572
39251,65535,4623,210,172,163,159,158,38249,65535,4794,221,181,179,174,171,3190,29937,573,177,166,163,155,155,3616,26854,622,317,303,302,301,297,329,416,28891,24415,21249,21718,616,355,591,629,5204,6127,14005,11941,717,602,1533,6194,31547,32145,32673,31339,26128,37219,1854,10858,25643,32663,36744,35063,33931,16584
39279,65535,4669,210,169,162,160,161,38277,65535,4841,219,182,179,169,170,3195,29982,574,177,160,158,153,157,3616,26878,625,315,303,303,302,300,329,418,28956,24520,21287,21789,617,357,586,629,5215,6152,14041,12003,718,601,1533,6212,31576,32203,32699,31392,26145,37263,1851,10875,25657,32706,36799,35155,33947,16601
39327,65535,4626,207,171,165,160,160,38303,65535,4797,220,181,172,172,168,3195,30007,574,176,163,152,157,156,3621,26906,622,314,304,303,303,297,329,417,29012,24609,21328,21854,616,358,587,629,5223,6170,14079,12043,719,602,1535,6229,31608,32268,32735,31454,26155,37275,1856,10908,25679,32737,36851,35219,33967,16607
39329,65535,4669,208,168,169,161,158,38338,65535,4841,220,181,177,171,166,3195,29953,577,179,161,161,155,151,3622,26810,623,318,304,303,301,296,329,417,28891,24334,21255,21650,613,354,588,629,5205,6102,13945,11819,711,598,1535,6221,31579,32146,32700,31332,26119,37188,1856,10882,25681,32693,36652,34921,33951,16574
39248,65535,4622,209,170,163,159,158,38295,65535,4792,219,180,177,173,170,3195,29883,573,180,160,157,154,159,3614,26713,616,314,301,301,300,296,331,414,28745,24153,21176,21535,610,351,582,622,5173,6064,13886,11750,709,592,1534,6183,31518,32051,32664,31271,26113,37168,1852,10843,25666,32659,36594,34841,33930,16559
39227,65535,4667,210,170,162,161,157,38252,65535,4837,218,181,177,173,168,3196,29879,576,177,162,159,159,154,3597,26633,619,313,300,299,301,292,325,415,28738,24158,21171,21526,607,349,576,618,5167,6059,13875,11756,704,587,1531,6174,31509,32051,32653,31259,26123,37193,1847,10827,25711,32717,36589,34845,33915,16560
39207,65535,4620,209,169,163,162,158,38239,65535,4790,218,181,174,170,172,3197,29909,572,176,161,157,159,154,3587,26603,613,309,298,297,296,291,321,411,28790,24227,21176,21560,607,351,572,614,5170,6069,13898,11780,700,589,1532,6178,31539,32098,32659,31273,26131,37206,1849,10831,25705,32715,36602,34865,33913,16563
39209,65535,4668,212,170,162,160,157,38240,65535,4837,217,180,174,172,167,3197,29901,577,174,163,162,154,152,3579,26571,614,307,298,296,294,290,324,410,28783,24228,21187,21563,608,351,569,612,5168,6072,13905,11796,700,587,1532,6183,31541,32101,32664,31287,26135,37223,1845,10838,25681,32685,36599,34870,33907,16562
39221,65535,4623,210,170,163,163,158,38238,65535,4789,219,179,177,171,171,3199,29919,574,176,164,157,156,154,3574,26547,609,312,297,295,293,291,325,412,28819,24297,21215,21625,610,350,572,615,5175,6085,13943,11854,707,592,1533,6191,31553,32129,32688,31330,26151,37258,1847,10843,25641,32648,36645,34943,33912,16574
39248,65535,4669,209,169,165,163,159,38239,65535,4836,222,181,177,173,169,3200,29951,580,169,164,156,152,158,3569,26546,613,309,298,295,295,291,324,411,28875,24395,21252,21696,613,356,576,619,5185,6108,13988,11919,711,597,1533,6201,31568,32187,32715,31380,26159,37283,1845,10860,25609,32627,36695,35026,33914,16584
39285,65535,4623,211,167,164,159,161,38251,65535,4792,221,180,173,169,164,3203,29997,573,177,161,162,160,156,3567,26557,612,310,299,297,299,290,330,417,28943,24499,21289,21772,615,357,581,624,5202,6135,14040,11997,715,601,1534,6215,31597,32244,32751,31448,26171,37323,1847,10870,25592,32629,36758,35125,33931,16599
39338,65535,4669,217,171,162,162,158,38255,65535,4838,218,179,175,170,166,3206,30031,580,175,161,162,157,154,3567,26570,614,310,299,298,295,291,328,419,29016,24617,21335,21850,617,355,585,624,5215,6166,14090,12066,717,601,1538,6236,31621,32311,32782,31518,26184,37366,1846,10892,25594,32653,36825,35230,33950,16615
39363,65535,4624,209,169,166,161,158,38276,65535,4789,221,179,172,170,170,3207,30027,576,179,160,158,157,159,3563,26503,610,309,299,298,296,290,328,416,28983,24466,21287,21693,614,353,586,625,5211,6125,13984,11859,708,592,1540,6240,31647,32263,32775,31425,26153,37259,1846,10881,25637,32681,36676,34963,33948,16584
39252,65535,4667,210,168,163,159,158,38147,65535,4833,217,180,171,169,165,3200,29898,580,178,162,158,155,152,3549,26369,619,308,298,296,296,293,329,413,28768,24161,21170,21508,609,352,576,619,5169,6057,13869,11730,701,588,1532,6190,31534,32099,32689,31305,26127,37218,1845,10823,25669,32685,36561,34814,33924,16569
39219,65535,4619,212,169,166,164,161,38054,65535,4785,218,181,173,167,165,3198,29845,570,180,159,162,158,159,3538,26277,605,310,297,298,294,292,326,414,28721,24100,21139,21447,609,353,571,613,5151,6039,13827,11688,696,586,1531,6178,31503,32051,32648,31246,26118,37197,1843,10801,25677,32673,36521,34758,33905,16556
39199,65535,4665,209,169,163,160,158,38011,65535,4828,218,183,174,171,166,3199,29837,577,181,159,159,157,151,3533,26295,611,313,296,298,295,291,328,414,28731,24155,21144,21491,610,353,571,613,5153,6047,13859,11739,701,590,1531,6178,31487,32055,32646,31263,26109,37212,1838,10774,25641,32635,36553,34805,33902,16558
39227,65535,4620,210,169,163,159,158,37973,65535,4782,214,180,171,172,167,3199,29839,572,177,160,158,155,175,3550,26413,607,312,298,299,296,291,329,414,28754,24185,21159,21514,612,354,575,616,5161,6052,13874,11756,706,589,1533,6186,31489,32062,32649,31263,26107,37205,1833,10727,25603,32591,36543,34806,33901,16559
39227,65535,4667,209,168,166,159,160,38093,65535,4830,221,180,173,167,168,3199,29853,573,176,161,158,153,155,3590,26571,614,310,297,296,297,293,331,415,28782,24238,21168,21547,611,355,575,615,5164,6067,13894,11794,706,591,1530,6187,31483,32083,32633,31276,26096,37214,1820,10674,25587,32599,36575,34863,33900,16567
39251,65535,4620,209,173,163,163,162,38241,65535,4787,221,180,171,168,166,3199,29873,573,177,166,159,157,153,3605,26639,610,307,297,299,295,292,327,415,28844,24341,21208,21626,615,355,572,617,5173,6087,13934,11853,708,595,1533,6197,31488,32127,32644,31318,26098,37238,1817,10674,25611,32632,36631,34947,33913,16581
39285,65535,4667,209,168,162,160,158,38239,65535,4834,217,184,178,171,169,3203,29908,578,176,161,159,157,156,3604,26667,617,310,299,299,296,293,331,417,28899,24445,21251,21708,616,357,578,622,5186,6115,13982,11928,713,599,1531,6212,31503,32179,32668,31370,26103,37273,1817,10689,25594,32629,36687,35045,33926,16590
39345,65535,4624,209,169,162,161,158,38303,65535,4790,218,179,174,168,168,3205,29949,573,177,159,161,155,171,3601,26675,615,312,299,296,297,293,332,417,28971,24559,21307,21807,618,358,584,625,5204,6146,14049,12018,718,603,1535,6230,31525,32247,32706,31451,26115,37315,1822,10723,25568,32618,36765,35168,33943,16607
39382,65535,4669,209,171,162,164,161,38393,65535,4838,219,182,174,174,171,3209,29991,578,181,165,162,158,157,3596,26648,616,314,298,301,298,294,332,419,28976,24507,21291,21727,617,356,589,629,5211,6132,13999,11886,716,599,1539,6241,31573,32257,32729,31419,26098,37233,1826,10749,25567,32618,36687,34992,33951,16588
39285,65535,4619,211,169,163,161,161,38347,65535,4789,218,179,173,168,167,3208,29873,572,180,160,159,160,156,3583,26516,611,311,301,296,295,291,330,414,28759,24153,21167,21489,609,353,583,622,5169,6055,13865,11721,705,593,1535,6193,31487,32074,32646,31273,26075,37177,1825,10709,25599,32611,36524,34794,33924,16566
39239,65535,4663,211,169,164,163,161,38291,65535,4831,218,184,171,173,169,3205,29842,575,178,172,158,160,159,3569,26423,610,308,296,295,293,290,326,413,28696,24078,21122,21418,610,355,578,618,5152,6033,13821,11679,703,590,1530,6173,31457,32038,32611,31221,26063,37159,1827,10704,25626,32623,36488,34743,33905,16561
39214,65535,4619,209,171,162,159,159,38268,65535,4787,218,180,177,171,166,3205,29836,571,177,162,158,157,156,3561,26391,606,308,296,294,298,291,322,417,28703,24126,21128,21462,609,353,578,618,5152,6042,13850,11735,707,593,1533,6170,31455,32048,32610,31239,26068,37183,1829,10711,25621,32615,36538,34809,33908,16561
39237,65535,4666,209,169,165,162,158,38290,65535,4831,218,179,171,170,165,3206,29851,577,177,162,158,157,156,3559,26393,607,309,301,296,298,290,327,413,28740,24181,21148,21492,611,351,579,619,5161,6055,13870,11753,709,594,1529,6178,31466,32071,32618,31251,26067,37185,1828,10723,25596,32607,36544,34817,33903,16563
39237,65535,4619,211,169,162,159,158,38307,65535,4789,218,178,175,161,168,3205,29850,571,177,162,157,157,158,3557,26390,607,309,297,294,298,294,327,412,28763,24216,21163,21527,610,353,578,618,5164,6065,13889,11785,705,591,1531,6181,31472,32083,32623,31270,26071,37208,1831,10732,25606,32633,36566,34872,33906,16568
39257,65535,4665,211,168,163,162,161,38341,65535,4835,217,182,173,181,172,3207,29877,576,177,160,159,159,159,3558,26398,609,308,298,295,296,291,328,413,28815,24314,21199,21599,614,354,579,620,5168,6085,13925,11847,706,593,1529,6195,31483,32139,32641,31318,26085,37243,1830,10751,25615,32649,36619,34959,33911,16583
39293,65535,4624,210,169,161,161,157,38380,65535,4788,217,181,175,171,168,3210,29918,571,186,161,157,152,159,3556,26425,607,308,297,296,298,291,329,415,28885,24418,21243,21683,614,354,577,620,5181,6109,13973,11913,708,594,1535,6208,31514,32197,32674,31383,26099,37289,1832,10772,25620,32675,36684,35055,33926,16599
39345,65535,4669,212,170,162,163,160,38422,65535,4837,219,180,172,170,168,3212,29961,577,177,162,158,160,156,3560,26458,611,308,298,294,295,292,331,417,28958,24533,21287,21767,618,356,580,621,5196,6136,14026,11991,711,597,1534,6229,31539,32270,32707,31454,26119,37337,1837,10795,25634,32714,36761,35169,33939,16616
39385,65535,4625,212,170,163,156,157,38489,65535,4791,217,181,177,170,167,3218,30015,575,180,154,157,160,158,3563,26486,609,310,298,298,298,288,331,416,28985,24529,21280,21711,612,354,580,623,5207,6137,14001,11896,706,590,1538,6245,31598,32313,32743,31450,26116,37271,1836,10808,25647,32737,36707,35058,33955,16603
39305,65535,4667,211,169,163,159,159,38506,65535,4834,218,184,177,170,167,3211,29904,577,178,158,157,157,157,3563,26388,607,307,298,298,297,291,327,414,28763,24154,21158,21468,610,353,577,619,5162,6053,13853,11713,700,589,1532,6200,31513,32125,32668,31301,26087,37220,1836,10766,25686,32732,36545,34831,33935,16585
39274,65535,4618,209,171,163,163,161,38570,65535,4789,220,178,174,167,167,3211,29860,574,177,161,159,158,156,3557,26337,609,309,298,295,295,287,327,411,28701,24084,21117,21414,610,353,573,612,5149,6034,13820,11680,701,589,1531,6183,31482,32085,32629,31259,26083,37215,1834,10754,25687,32719,36509,34790,33921,16575
39255,65535,4666,210,169,163,159,161,38603,65535,4835,219,183,176,168,171,3213,29858,576,179,159,159,157,159,3555,26334,610,310,299,304,296,292,326,413,28710,24133,21128,21457,610,354,574,615,5154,6050,13848,11735,704,591,1529,6184,31477,32095,32634,31277,26087,37230,1833,10759,25665,32709,36555,34859,33915,16578
39287,65535,4620,212,171,162,160,159,38640,65535,4791,218,180,174,171,167,3212,29874,570,180,157,157,158,155,3555,26353,608,313,298,298,297,294,329,414,28751,24193,21147,21488,609,353,578,617,5163,6063,13869,11750,705,592,1533,6194,31498,32127,32643,31300,26087,37241,1838,10772,25668,32719,36567,34877,33916,16581
39289,65535,4667,209,168,163,161,159,38665,65535,4836,222,183,178,170,168,3214,29883,577,177,159,160,157,152,3557,26361,611,311,300,297,296,293,326,417,28770,24224,21163,21519,611,353,579,620,5167,6070,13886,11783,706,592,1532,6195,31505,32148,32651,31318,26095,37263,1837,10782,25665,32724,36591,34923,33920,16588
39302,65535,4622,209,168,162,161,157,38690,65535,4792,218,183,172,171,167,3215,29918,574,178,158,157,159,157,3555,26373,608,312,299,299,299,301,328,416,28829,24321,21199,21601,611,353,580,622,5175,6091,13925,11845,707,594,1534,6209,31522,32194,32668,31370,26107,37299,1839,10801,25667,32743,36645,35014,33929,16595
39345,65535,4667,209,169,163,160,159,38707,65535,4839,218,179,173,170,168,3218,29958,576,177,161,159,155,154,3558,26402,611,310,295,299,296,293,330,415,28895,24428,21245,21679,613,355,580,622,5186,6117,13970,11913,710,598,1536,6224,31548,32259,32704,31435,26122,37347,1840,10817,25669,32763,36710,35105,33940,16615
39388,65535,4623,211,170,165,163,158,38753,65535,4797,217,179,174,167,170,3222,30003,573,179,167,168,157,155,3562,26443,610,308,300,298,294,292,328,416,28969,24542,21286,21771,617,359,582,625,5200,6146,14024,11990,714,601,1539,6242,31587,32333,32741,31506,26140,37397,1843,10837,25678,32793,36782,35222,33959,16635
39429,65535,4670,210,173,162,161,159,38807,65535,4844,218,178,172,171,166,3223,30063,578,178,161,158,154,152,3567,26475,613,311,302,298,296,291,329,417,29014,24571,21297,21747,618,353,585,625,5212,6153,14016,11935,711,594,1537,6259,31642,32392,32786,31529,26146,37354,1843,10860,25685,32813,36767,35155,33979,16627
39361,65535,4622,209,169,163,159,159,38799,65535,4793,218,181,174,170,170,3223,29963,572,177,160,162,157,154,3564,26377,609,314,300,300,303,293,331,416,28806,24194,21170,21488,609,352,580,620,5173,6068,13859,11730,705,591,1537,6219,31570,32209,32704,31370,26112,37282,1845,10815,25725,32814,36582,34914,33955,16606
39329,65535,4665,208,170,162,161,160,38771,65535,4838,218,180,175,170,169,3221,29916,578,179,164,158,150,163,3563,26345,613,313,302,298,295,292,327,412,28719,24114,21129,21429,609,356,577,622,5155,6044,13821,11689,703,591,1532,6201,31529,32162,32673,31331,26105,37269,1841,10799,25727,32802,36549,34863,33942,16594
39315,65535,4619,209,168,163,159,161,38765,65535,4791,218,184,175,173,167,3221,29917,573,176,161,157,155,155,3561,26339,608,310,300,299,295,293,327,413,28730,24152,21135,21463,610,354,576,619,5157,6054,13849,11739,706,595,1534,6199,31526,32173,32669,31349,26113,37289,1841,10798,25704,32778,36586,34933,33942,16599
39335,65535,4665,209,170,161,160,159,38733,65535,4836,220,179,174,171,169,3223,29940,579,180,160,158,157,158,3557,26357,615,311,294,297,300,293,331,412,28769,24211,21155,21501,612,353,580,617,5165,6069,13870,11758,710,593,1533,6206,31538,32209,32675,31369,26112,37299,1843,10801,25695,32784,36605,34951,33941,16602
39347,65535,4621,213,167,163,160,158,38731,65535,4789,222,180,173,171,171,3223,29955,574,177,159,161,157,154,3559,26369,607,310,297,294,294,292,327,410,28794,24247,21168,21535,610,357,581,621,5171,6075,13884,11789,708,595,1538,6211,31547,32228,32685,31388,26114,37322,1841,10797,25689,32790,36627,34997,33947,16608
39354,65535,4669,206,168,166,162,158,38740,65535,4836,223,181,173,173,168,3225,29981,578,177,160,157,158,155,3558,26383,614,313,291,297,298,298,329,415,28845,24341,21203,21607,614,355,580,619,5175,6095,13925,11850,710,596,1534,6226,31561,32274,32706,31437,26123,37353,1842,10815,25682,32799,36679,35083,33951,16619
39395,65535,4623,210,169,163,158,159,38777,65535,4793,221,182,173,174,168,3229,30025,574,178,161,158,154,157,3559,26409,611,311,298,291,296,293,329,417,28919,24454,21249,21691,614,355,582,626,5191,6121,13970,11917,713,599,1539,6242,31591,32345,32735,31502,26140,37395,1844,10841,25686,32828,36742,35187,33966,16633
39441,65535,4670,210,169,165,159,159,38793,65535,4841,219,181,176,171,167,3231,30074,579,181,164,156,157,158,3560,26437,614,315,299,299,298,292,332,419,28989,24559,21296,21776,617,354,584,623,5205,6146,14023,11991,715,600,1537,6254,31620,32406,32773,31581,26154,37446,1847,10857,25695,32850,36814,35297,33982,16653
39489,65535,4627,210,170,162,162,158,38791,65535,4795,218,181,174,170,171,3233,30132,575,176,164,156,158,153,3563,26465,610,311,299,296,297,293,330,417,29056,24657,21325,21819,614,355,585,627,5217,6169,14055,12015,714,598,1541,6275,31665,32493,32821,31641,26171,37447,1850,10878,25693,32872,36863,35339,33999,16660
39458,65535,4670,210,170,163,162,159,38801,65535,4841,217,179,173,172,167,3235,30079,575,178,161,159,158,155,3562,26384,611,310,298,298,298,298,332,414,28893,24303,21209,21543,612,353,583,624,5186,6090,13891,11763,709,592,1539,6253,31633,32327,32757,31479,26131,37342,1848,10837,25734,32874,36637,35024,33984,16631
39391,65535,4621,209,168,163,159,160,38743,65535,4788,218,180,175,170,165,3235,29997,573,177,159,156,161,156,3559,26341,608,311,305,300,297,292,327,411,28740,24117,21133,21425,608,352,578,617,5158,6047,13819,11680,703,592,1538,6217,31567,32238,32700,31400,26116,37323,1842,10806,25751,32867,36577,34928,33970,16615
39357,65535,4665,210,170,162,163,158,38756,65535,4839,217,182,177,171,166,3230,29981,577,177,159,159,160,155,3560,26323,612,311,298,300,294,296,331,413,28705,24085,21109,21408,611,353,575,619,5150,6040,13810,11683,705,595,1535,6206,31545,32212,32677,31374,26109,37318,1843,10792,25731,32838,36571,34935,33959,16613
39362,65535,4623,209,170,164,161,158,38752,65535,4789,217,184,174,171,169,3235,29993,573,177,161,162,156,157,3555,26337,608,310,302,297,298,295,327,413,28753,24172,21130,21461,611,353,578,620,5159,6059,13846,11725,710,596,1537,6213,31553,32246,32687,31395,26111,37327,1843,10797,25712,32835,36611,34982,33959,16609
39381,65535,4667,215,169,163,160,157,38762,65535,4835,219,183,173,169,165,3232,29996,579,177,162,158,157,153,3558,26333,613,310,300,299,297,293,331,412,28767,24196,21138,21481,611,352,581,622,5165,6063,13856,11740,707,595,1535,6216,31554,32252,32682,31406,26110,37335,1845,10799,25709,32842,36623,35007,33954,16612
39379,65535,4621,210,168,165,159,161,38743,65535,4789,214,179,174,169,167,3233,30014,574,177,162,162,161,156,3555,26340,610,311,304,298,301,293,327,413,28806,24266,21172,21543,610,354,580,620,5167,6075,13885,11791,706,593,1535,6224,31558,32287,32690,31440,26114,37367,1842,10809,25713,32856,36657,35071,33959,16623
39405,65535,4671,212,169,163,160,158,38750,65535,4836,222,183,173,171,168,3237,30052,579,177,159,158,159,157,3561,26379,612,313,301,300,302,293,330,413,28877,24377,21211,21622,615,354,579,622,5177,6097,13933,11861,710,595,1536,6240,31580,32337,32717,31502,26125,37400,1845,10817,25699,32859,36715,35159,33962,16635
39443,65535,4623,209,169,162,163,161,38789,65535,4791,221,179,172,168,172,3238,30100,575,178,159,158,157,152,3567,26420,611,311,296,302,298,293,329,415,28948,24485,21258,21708,615,355,580,621,5191,6125,13983,11931,713,597,1538,6254,31613,32407,32751,31566,26139,37442,1845,10837,25700,32879,36781,35265,33979,16650
39494,65535,4671,210,169,165,159,157,38811,65535,4841,219,184,174,170,166,3242,30151,579,179,160,161,158,156,3565,26447,613,313,301,299,297,296,330,417,29022,24607,21303,21795,616,355,586,623,5205,6156,14034,12009,713,598,1539,6271,31643,32479,32791,31638,26159,37485,1845,10858,25714,32914,36854,35383,33997,16664
39523,65535,4628,211,171,162,161,158,38847,65535,4792,217,179,178,171,168,3247,30181,575,178,160,159,156,156,3570,26437,611,315,301,299,298,294,331,414,29020,24511,21274,21667,615,355,582,621,5208,6131,13962,11840,709,592,1545,6281,31689,32474,32801,31582,26140,37396,1847,10855,25733,32924,36749,35174,33998,16643
39433,65535,4667,209,172,165,159,157,38772,65535,4834,218,182,172,170,167,3243,30062,579,179,162,158,156,156,3561,26331,613,310,299,298,297,294,327,413,28766,24141,21137,21431,608,351,576,617,5159,6052,13832,11688,702,589,1538,6230,31577,32282,32704,31442,26103,37335,1842,10800,25757,32908,36603,34986,33975,16622
39387,65535,4619,209,168,162,164,159,38708,65535,4788,218,180,177,168,167,3239,30012,574,178,160,157,157,159,3559,26281,610,315,299,298,298,295,328,410,28705,24057,21096,21363,609,351,573,612,5150,6029,13797,11645,702,589,1537,6211,31546,32229,32667,31382,26094,37312,1847,10770,25739,32863,36567,34927,33954,16607
39365,65535,4666,211,171,163,160,159,38676,65535,4831,217,178,174,171,167,3242,30006,580,177,160,160,157,156,3555,26271,612,311,299,299,295,293,325,412,28701,24105,21099,21410,611,353,574,614,5147,6042,13827,11696,704,592,1536,6204,31528,32227,32658,31391,26092,37327,1841,10761,25713,32852,36606,34990,33944,16607
39380,65535,4623,209,169,164,159,158,38658,65535,4785,220,180,174,174,171,3239,30014,575,175,162,157,155,153,3557,26275,608,311,299,299,297,292,327,410,28749,24161,21122,21441,609,354,577,617,5157,6054,13839,11711,708,594,1536,6214,31541,32246,32655,31397,26086,37326,1843,10758,25709,32853,36624,35005,33941,16605
39374,65535,4664,209,169,163,163,158,38646,65535,4834,217,180,173,174,168,3243,30016,576,177,161,159,160,156,3554,26264,612,313,301,302,299,295,326,415,28767,24199,21143,21484,613,353,581,620,5161,6066,13856,11746,709,595,1533,6216,31534,32255,32651,31420,26079,37342,1839,10764,25709,32859,36637,35045,33935,16612
39371,65535,4621,205,169,162,160,157,38636,65535,4786,217,179,175,173,171,3241,30039,575,179,162,157,153,153,3554,26264,609,314,301,299,298,293,327,415,28831,24300,21183,21562,613,354,581,620,5173,6082,13891,11802,711,597,1537,6225,31539,32295,32671,31463,26089,37377,1842,10765,25694,32851,36675,35113,33938,16620
39401,65535,4669,215,169,163,159,158,38642,65535,4831,219,184,173,170,169,3247,30090,580,180,158,158,158,157,3556,26290,613,312,300,298,297,293,329,414,28893,24403,21223,21654,613,355,582,626,5177,6102,13943,11877,711,596,1535,6246,31556,32345,32700,31522,26091,37409,1837,10753,25667,32833,36726,35199,33954,16631
39425,65535,4625,211,169,162,161,161,38623,65535,4786,216,180,176,172,167,3244,30144,575,174,161,158,157,156,3568,26365,609,318,300,299,298,295,327,416,28956,24509,21269,21740,616,357,585,625,5190,6130,13994,11950,715,600,1539,6256,31578,32402,32723,31592,26101,37445,1831,10724,25667,32853,36792,35302,33974,16649
39443,65535,4670,210,169,166,162,159,38599,65535,4831,222,181,177,172,170,3251,30180,582,176,164,155,158,155,3588,26489,615,313,301,298,301,295,331,417,29022,24618,21307,21806,617,355,584,626,5206,6155,14045,12011,718,603,1541,6276,31599,32471,32756,31659,26113,37471,1819,10693,25661,32864,36855,35399,33999,16658
39430,65535,4623,211,168,163,162,159,38640,65535,4783,220,179,177,174,168,3242,30116,578,177,161,158,155,157,3599,26467,610,311,302,298,297,290,329,419,28930,24369,21230,21591,614,353,585,626,5190,6095,13907,11773,709,593,1546,6271,31599,32367,32725,31532,26071,37360,1815,10651,25697,32870,36663,35090,33983,16627
39348,65535,4664,210,171,165,160,161,38718,65535,4831,218,180,175,169,171,3230,29959,576,176,159,155,154,159,3586,26340,611,311,298,295,297,293,326,414,28733,24114,21131,21437,608,353,576,616,5155,6043,13815,11672,705,591,1536,6225,31517,32245,32655,31431,26061,37331,1820,10649,25713,32864,36575,34971,33957,16607
39320,65535,4618,211,169,163,162,158,38751,65535,4787,217,185,178,168,168,3229,29933,572,180,162,158,157,156,3571,26256,608,312,300,299,298,293,326,414,28695,24077,21105,21406,610,355,577,620,5146,6031,13804,11664,705,593,1536,6214,31507,32212,32632,31400,26054,37331,1828,10668,25701,32825,36557,34950,33933,16599
39307,65535,4664,210,169,162,160,157,38863,65535,4832,220,181,174,170,165,3235,29951,578,177,161,158,157,154,3570,26253,612,313,303,301,299,295,331,412,28734,24157,21131,21465,609,351,578,619,5154,6052,13843,11718,707,595,1534,6216,31512,32241,32639,31427,26063,37347,1834,10702,25676,32821,36607,35011,33919,16597
