Detector2,,,,,,,,Detector4,,,,,,,,Detector6,,,,,,,,Detector8,,,,,,,,Detector10,,,,,,,,Detector12,,,,,,,,Detector14,,,,,,,,Detector16,,,,,,,
"RED1,2,3,4","IR1,2,3,4","RED5,6,7,8","IR5,6,7,8","RED9,10,11,12","IR9,10,11,12","RED13,14,15,16","IR13,14,15,16 ","RED1,2,3,4","IR1,2,3,4","RED5,6,7,8","IR5,6,7,8","RED9,10,11,12","IR9,10,11,12","RED13,14,15,16","IR13,14,15,16","RED1,2,3,4","IR1,2,3,4","RED5,6,7,8","IR5,6,7,8","RED9,10,11,12","IR9,10,11,12 ","RED13,14,15,16","IR13,14,15,16","RED1,2,3,4","IR1,2,3,4","RED5,6,7,8","IR5,6,7,8","RED9,10,11,12","IR9,10,11,12","RED13,14,15,16","IR13,14,15,16","RED1,2,3,4","IR1,2,3,4","RED5,6,7,8","IR5,6,7,8","RED9,10,11,12","IR9,10,11,12","RED13,14,15,16","IR13,14,15,16","RED1,2,3,4","IR1,2,3,4","RED5,6,7,8","IR5,6,7,8","RED9,10,11,12","IR9,10,11,12","RED13,14,15,16","IR13,14,15,16","RED1,2,3,4","IR1,2,3,4","RED5,6,7,8","IR5,6,7,8","RED9,10,11,12","IR9,10,11,12","RED13,14,15,16","IR13,14,15,16","RED1,2,3,4","IR1,2,3,4","RED5,6,7,8","IR5,6,7,8","RED9,10,11,12","IR9,10,11,12","RED13,14,15,16","IR13,14,15,16 "
8893,45295,8762,45351,8771,45417,8766,45344,30304,40666,29919,40695,29978,40800,29933,40717,536,3729,527,3733,527,3743,531,3733,21198,26015,20975,26036,20991,26066,20957,25990,495,510,499,510,499,513,496,513,500,500,505,505,506,509,505,505,778,4994,1290,5021,1295,5035,1297,5020,886,1595,1123,1623,1127,1626,1129,1623
8762,45310,8773,45327,8769,45311,8771,45314,29921,40683,29912,40659,29864,40581,29863,40607,527,3730,527,3730,529,3732,527,3727,20909,25945,20892,25935,20879,25913,20912,25947,497,511,498,511,502,520,509,523,501,502,502,504,506,509,506,508,1297,5011,1296,5016,1300,5016,1300,5016,1129,1622,1131,1624,1133,1626,1131,1626
8789,45373,8801,45463,8808,45524,8821,45569,29855,40599,29890,40626,29930,40682,29919,40678,527,3730,527,3735,532,3740,527,3742,20938,25970,20943,25978,20947,25987,20962,26004,508,522,509,521,506,521,510,519,506,510,508,510,510,511,513,510,1298,5027,1302,5041,1301,5051,1306,5056,1131,1629,1132,1629,1134,1632,1134,1637
8834,45663,8832,45657,8822,45555,8822,45556,29958,40764,29983,40778,29927,40695,29921,40664,529,3751,534,3753,529,3740,528,3741,20975,26035,20957,25999,20917,25933,20882,25908,507,520,507,521,503,519,503,518,509,513,513,513,509,508,508,511,1306,5072,1309,5077,1307,5058,1309,5055,1135,1641,1137,1638,1134,1634,1136,1635
8830,45574,8828,45559,8832,45585,8836,45644,29931,40660,29945,40680,29938,40655,29915,40620,529,3745,529,3741,531,3739,529,3747,20873,25905,20903,25923,20912,25921,20921,25939,504,517,504,520,504,517,505,517,508,512,511,509,509,509,508,512,1308,5057,1307,5056,1306,5058,1311,5070,1137,1636,1138,1637,1139,1640,1139,1640
8845,45687,8853,45740,8868,45827,8877,45902,29949,40657,29941,40650,29962,40705,29989,40734,530,3750,530,3750,531,3761,534,3771,20927,25947,20934,25955,20934,25979,20933,25973,505,520,507,519,506,519,507,524,510,511,510,514,514,514,513,516,1310,5077,1313,5086,1312,5097,1316,5108,1138,1640,1141,1645,1140,1649,1145,1648
8867,45811,8861,45767,8865,45771,8863,45755,29975,40721,29957,40669,29965,40639,29971,40650,531,3762,531,3754,532,3754,532,3751,20923,25928,20895,25900,20889,25887,20897,25891,505,520,504,518,506,517,503,516,510,512,508,511,511,511,510,511,1315,5101,1317,5090,1312,5085,1314,5083,1141,1646,1141,1645,1142,1645,1143,1645
8863,45751,8869,45803,8874,45837,8881,45879,29962,40628,29963,40607,29964,40613,29959,40601,531,3751,531,3754,530,3757,535,3760,20911,25902,20929,25911,20929,25915,20929,25916,505,517,504,518,507,519,504,520,508,511,509,513,513,512,511,513,1312,5086,1316,5092,1315,5097,1318,5103,1143,1647,1145,1647,1142,1647,1146,1654
8892,45954,8900,46029,8909,46075,8896,45984,29961,40611,29988,40665,30025,40745,29975,40643,531,3769,531,3775,534,3777,530,3768,20939,25943,20943,25947,20927,25940,20902,25886,507,521,509,522,511,523,509,522,512,517,514,516,515,518,513,515,1317,5117,1321,5125,1321,5135,1323,5124,1147,1654,1146,1654,1147,1655,1145,1654
8895,45962,8894,45946,8895,45940,8899,45971,29995,40617,29995,40599,29984,40579,29995,40583,533,3768,533,3765,531,3762,532,3763,20885,25853,20863,25824,20876,25832,20902,25849,511,520,506,521,505,520,506,520,514,516,514,514,511,512,513,517,1318,5114,1319,5108,1319,5110,1321,5117,1145,1653,1146,1652,1147,1653,1149,1651
8901,45991,8907,46020,8915,46094,8924,46166,30002,40579,29986,40552,29984,40543,30007,40575,531,3766,535,3764,531,3771,533,3781,20894,25847,20907,25863,20927,25885,20944,25914,507,520,507,521,508,523,511,526,513,515,515,516,518,517,519,519,1320,5119,1322,5125,1321,5138,1325,5145,1145,1654,1150,1656,1148,1657,1150,1658
8931,46200,8941,46270,8930,46209,8929,46162,30057,40671,30067,40714,30054,40644,30070,40638,532,3780,535,3786,534,3785,533,3778,20976,25954,20964,25937,20941,25887,20915,25845,510,525,512,527,512,526,511,525,516,520,522,518,519,521,519,519,1325,5155,1327,5167,1329,5156,1326,5144,1150,1662,1151,1665,1149,1662,1152,1661
8931,46174,8934,46211,8933,46219,8941,46234,30066,40614,30077,40626,30101,40637,30082,40602,533,3775,531,3782,533,3780,533,3777,20915,25841,20931,25858,20929,25851,20931,25854,511,527,515,529,520,528,514,528,521,519,519,521,523,522,521,523,1325,5148,1329,5154,1324,5155,1327,5157,1148,1659,1150,1662,1149,1662,1151,1663
8949,46291,8958,46373,8964,46417,8974,46479,30065,40574,30095,40607,30115,40628,30153,40736,533,3782,534,3792,534,3794,535,3799,20958,25886,20977,25909,20977,25914,21006,25955,517,532,519,533,520,534,521,535,523,525,525,527,526,528,526,530,1330,5171,1331,5177,1327,5189,1334,5199,1149,1664,1151,1669,1152,1669,1152,1671
8977,46541,8967,46463,8970,46451,8978,46505,30204,40779,30159,40699,30152,40665,30155,40667,535,3810,535,3799,535,3795,535,3798,21022,25966,20981,25894,20937,25858,20949,25877,525,537,521,535,521,534,525,536,530,533,529,531,530,527,527,531,1333,5213,1335,5193,1330,5188,1335,5198,1152,1673,1153,1669,1152,1670,1153,1670
8982,46518,8981,46522,8989,46577,8998,46647,30197,40703,30191,40692,30171,40647,30198,40675,536,3801,535,3803,535,3804,536,3811,20968,25889,20956,25873,20955,25876,20985,25909,523,537,523,538,525,537,530,540,529,532,530,531,531,533,533,534,1336,5199,1335,5200,1335,5209,1337,5218,1159,1671,1154,1674,1156,1673,1156,1679
9006,46687,9015,46745,9022,46804,9013,46723,30235,40713,30234,40747,30299,40827,30260,40742,538,3817,538,3821,536,3827,538,3818,20981,25899,21002,25929,21019,25957,20976,25883,527,541,528,543,530,543,527,543,532,535,530,534,537,539,534,536,1338,5226,1340,5237,1339,5248,1341,5231,1156,1682,1156,1683,1157,1683,1158,1681
9012,46710,9018,46760,9022,46777,9021,46778,30263,40726,30267,40720,30300,40746,30301,40741,537,3813,537,3819,538,3818,538,3818,20953,25855,20973,25886,20981,25885,20967,25860,527,541,529,543,528,544,529,543,535,531,534,540,536,537,537,538,1335,5225,1339,5233,1339,5236,1340,5234,1153,1680,1158,1679,1159,1679,1158,1681
9028,46822,9036,46885,9043,46918,9053,46987,30281,40696,30301,40719,30338,40746,30335,40761,538,3821,537,3826,538,3830,539,3834,20978,25881,20997,25898,20998,25909,21001,25915,534,545,533,547,533,545,534,549,538,541,538,540,543,541,541,543,1338,5240,1342,5251,1340,5257,1346,5270,1158,1685,1160,1686,1159,1689,1161,1691
9048,46950,9037,46869,9039,46847,9043,46883,30353,40770,30338,40718,30342,40689,30358,40687,539,3836,539,3823,537,3823,538,3826,21006,25902,20977,25846,20955,25827,20975,25853,533,549,530,547,530,547,532,545,540,541,539,539,535,538,539,540,1342,5269,1342,5242,1339,5241,1342,5244,1160,1687,1163,1686,1158,1683,1161,1686
9042,46872,9043,46877,9051,46923,9040,46909,30379,40699,30381,40687,30357,40645,30053,40093,537,3826,538,3822,538,3829,541,3847,20993,25853,20986,25844,20982,25847,20493,25264,532,546,533,547,533,546,534,548,539,541,537,541,538,541,552,557,1339,5243,1342,5243,1341,5251,1345,5263,1158,1687,1160,1685,1162,1689,1167,1694
9039,46931,9039,46968,9030,46891,9033,46853,29561,39439,29473,39323,29481,39255,29785,39599,542,3872,541,3880,542,3868,541,3856,19302,24226,18783,23873,18613,23711,18724,23834,539,555,554,567,551,565,547,563,580,583,595,601,601,603,589,590,1345,5266,1346,5275,1345,5258,1343,5251,1186,1721,1199,1736,1200,1737,1204,1735
9036,46833,9031,46835,9031,46844,9031,46863,29916,39716,29895,39643,29858,39563,29852,39565,542,3850,541,3849,541,3853,540,3849,18782,23862,18710,23803,18668,23762,18612,23735,547,561,549,562,545,561,547,561,580,583,584,589,595,599,597,597,1343,5251,1343,5253,1342,5249,1342,5252,1200,1734,1201,1733,1201,1736,1204,1738
9038,46910,9049,46961,9051,46991,9039,46899,29979,39716,30093,39860,30153,39938,30197,39967,540,3845,542,3852,541,3851,541,3841,18848,23942,19056,24109,19131,24157,19247,24237,549,561,546,562,546,559,545,557,591,593,588,591,586,588,579,582,1340,5262,1346,5268,1341,5272,1342,5261,1202,1739,1202,1743,1201,1741,1201,1743
9037,46863,9033,46841,9033,46831,9031,46831,30231,39959,30188,39889,30255,39965,30338,40043,541,3838,541,3834,542,3830,540,3830,19321,24277,19334,24299,19376,24316,19430,24363,542,555,541,557,541,553,540,554,577,580,577,577,574,577,572,574,1338,5245,1341,5235,1336,5236,1340,5237,1201,1738,1200,1741,1202,1739,1200,1742
9027,46838,9028,46823,9032,46867,9033,46927,30381,40091,30426,40147,30461,40185,30487,40204,540,3833,541,3827,541,3831,540,3839,19486,24418,19587,24519,19672,24590,19710,24624,541,554,539,554,543,556,544,561,573,574,574,571,571,574,572,575,1337,5234,1336,5237,1335,5244,1338,5251,1201,1737,1203,1742,1204,1745,1201,1741
9037,46927,9029,46841,9027,46847,9025,46826,30533,40273,30496,40191,30538,40221,30558,40227,540,3840,543,3828,540,3831,541,3831,19693,24612,19708,24594,19738,24615,19751,24616,543,559,542,557,543,558,543,558,573,576,572,572,570,574,571,571,1337,5252,1336,5232,1333,5223,1333,5216,1198,1741,1199,1736,1197,1735,1199,1733
9023,46800,9019,46802,9019,46810,9017,46799,30587,40252,30629,40286,30639,40301,30664,40343,540,3823,541,3825,541,3825,537,3822,19782,24654,19885,24750,19953,24811,20026,24883,541,558,543,554,541,556,542,557,569,571,567,570,567,569,569,569,1331,5218,1333,5219,1331,5219,1333,5223,1195,1731,1197,1731,1194,1731,1198,1730
9018,46835,9019,46877,9011,46801,9008,46752,30687,40365,30690,40377,30696,40352,30695,40329,541,3827,543,3834,544,3830,542,3821,20100,24957,20147,24996,20160,24970,20173,24977,542,557,543,559,544,558,542,558,568,571,570,574,568,570,564,567,1331,5229,1333,5236,1331,5227,1333,5211,1193,1732,1194,1729,1191,1726,1189,1724
9005,46748,9005,46739,9004,46732,9006,46760,30715,40337,30728,40333,30722,40303,30729,40298,542,3822,542,3821,543,3816,543,3825,20231,25037,20231,25018,20205,24991,20196,24984,544,556,542,558,545,561,545,561,566,571,567,568,561,568,569,571,1329,5205,1330,5206,1327,5204,1330,5204,1190,1721,1190,1720,1188,1718,1190,1717
9006,46768,9004,46783,9011,46831,9006,46801,30755,40323,30764,40339,30781,40343,30799,40338,545,3827,544,3828,542,3831,543,3834,20195,24991,20222,25020,20244,25028,20221,25007,550,563,550,565,552,566,551,566,571,571,571,574,573,574,570,575,1327,5207,1333,5210,1329,5216,1331,5214,1192,1717,1186,1717,1185,1716,1188,1715
8995,46711,8997,46701,8997,46695,8991,46665,30766,40263,30793,40260,30815,40277,30828,40276,543,3820,543,3823,546,3823,543,3819,20208,24965,20205,24967,20231,24991,20252,24994,549,564,549,564,549,564,551,563,570,571,570,570,570,575,573,569,1326,5191,1327,5181,1326,5182,1327,5176,1185,1711,1187,1709,1184,1708,1186,1708
8991,46673,8991,46685,8988,46679,8985,46675,30846,40284,30884,40314,30824,40201,30771,40165,545,3819,546,3824,545,3820,545,3817,20263,25013,20315,25071,20275,25097,20236,25104,553,566,550,565,552,565,553,569,570,571,572,573,573,574,577,577,1324,5179,1327,5180,1324,5182,1327,5187,1183,1705,1184,1703,1182,1708,1182,1705
8986,46649,8955,46448,8959,46427,8961,46446,30803,40160,30351,39512,30332,39516,30443,39605,543,3823,545,3812,543,3806,542,3804,20176,25061,19799,24678,19708,24644,19690,24611,561,579,588,605,594,608,594,605,579,581,586,590,595,594,597,597,1324,5184,1325,5157,1321,5157,1323,5156,1177,1701,1179,1701,1178,1697,1177,1693
8965,46449,8967,46441,8968,46446,8969,46475,30499,39637,30551,39683,30607,39758,30688,39852,546,3807,545,3804,547,3804,546,3805,19723,24617,19818,24661,19946,24745,20081,24850,589,606,594,607,597,613,603,620,599,599,599,603,606,609,612,614,1323,5151,1323,5145,1321,5149,1323,5151,1177,1689,1177,1693,1177,1693,1178,1694
8971,46508,8973,46534,8966,46446,8965,46403,30739,39907,30775,39940,30747,39845,30799,39841,545,3807,545,3813,548,3803,544,3802,20118,24863,20095,24830,20071,24765,20085,24755,604,618,606,624,606,621,602,615,614,616,619,619,615,616,613,612,1322,5155,1323,5161,1323,5137,1322,5119,1180,1696,1180,1694,1178,1689,1177,1687
8964,46387,8961,46359,8956,46318,8953,46306,30799,39802,30812,39796,30835,39812,30853,39830,545,3797,546,3794,547,3792,546,3789,20062,24711,20047,24711,20107,24760,20156,24802,602,617,603,617,607,618,607,621,614,612,614,617,617,619,619,620,1315,5108,1316,5104,1315,5096,1316,5095,1175,1686,1177,1685,1177,1684,1176,1683
8956,46311,8948,46307,8946,46300,8941,46271,30876,39849,30876,39829,30875,39828,30855,39745,545,3792,545,3791,547,3793,545,3795,20175,24805,20174,24806,20163,24804,20055,24681,609,623,610,623,611,627,615,629,621,626,622,624,625,627,629,633,1313,5099,1315,5101,1313,5106,1315,5103,1173,1682,1176,1681,1175,1680,1176,1677
8927,46151,8926,46085,8927,46083,8923,46055,30837,39695,30878,39693,30950,39732,30982,39754,545,3781,547,3778,547,3778,544,3774,20071,24667,20079,24651,20112,24670,20148,24707,613,626,613,626,614,624,609,622,626,627,623,624,620,623,618,618,1311,5078,1312,5066,1309,5067,1311,5066,1173,1674,1173,1676,1175,1674,1176,1673
8915,46010,8909,45971,8907,45971,8895,45927,30967,39707,30990,39749,31131,39915,31014,39722,545,3771,545,3765,546,3767,545,3762,20183,24744,20225,24800,20399,24937,20307,24813,603,613,599,612,602,614,594,611,615,617,614,614,614,618,614,612,1309,5063,1309,5067,1310,5075,1311,5080,1174,1671,1175,1674,1173,1671,1176,1672
8870,45861,8841,45756,8809,45561,8826,45537,30847,39447,30543,38918,30207,38477,30451,38698,543,3767,541,3753,535,3723,539,3731,19947,24477,19209,23707,18397,23199,18540,23313,600,614,627,648,650,663,640,651,618,617,639,648,661,660,645,646,1313,5095,1318,5113,1316,5101,1318,5084,1176,1674,1188,1692,1205,1711,1206,1706
8829,45534,8828,45462,8835,45393,8842,45440,30577,38805,30691,38965,30796,39086,30821,39092,539,3735,538,3731,538,3711,536,3719,18692,23463,19035,23806,19323,24041,19286,23988,631,643,629,642,620,639,623,634,633,633,628,631,627,625,617,622,1314,5081,1318,5079,1313,5073,1315,5081,1202,1700,1199,1695,1196,1692,1194,1691
8853,45492,8855,45477,8853,45483,8855,45449,30869,39134,31055,39377,31040,39374,31147,39474,539,3723,540,3717,540,3720,540,3721,19274,23976,19534,24232,19551,24244,19704,24371,623,636,623,640,617,628,615,624,619,620,617,623,613,617,613,615,1315,5087,1320,5097,1316,5098,1319,5110,1191,1688,1192,1692,1191,1691,1191,1692
8846,45363,8846,45270,8850,45279,8857,45351,31157,39499,31256,39550,31333,39625,31277,39501,540,3721,543,3703,539,3700,544,3713,19705,24373,19905,24496,19826,24425,19625,24239,605,619,590,604,585,599,576,590,610,608,596,595,589,591,588,588,1319,5105,1318,5086,1318,5090,1319,5089,1189,1686,1190,1686,1190,1686,1193,1689
8861,45374,8859,45336,8863,45323,8871,45351,31342,39561,31437,39685,31565,39895,31644,40010,539,3705,539,3695,543,3687,543,3691,19687,24327,19990,24609,20291,24908,20491,25100,572,587,570,583,569,583,565,582,587,590,587,589,589,592,592,595,1319,5084,1315,5075,1314,5077,1314,5075,1193,1689,1192,1690,1192,1687,1191,1690
8877,45410,8883,45421,8872,45291,8866,45195,31745,40153,31849,40291,31826,40220,31835,40193,541,3695,542,3701,544,3689,540,3688,20634,25226,20825,25377,20966,25472,21107,25585,564,581,568,583,571,585,569,581,595,596,598,600,601,602,596,598,1312,5077,1313,5077,1306,5055,1305,5025,1188,1689,1190,1691,1187,1684,1186,1681
8865,45160,8861,45118,8863,45109,8865,45113,31779,40097,31813,40132,31833,40156,31939,40264,546,3689,539,3686,542,3689,542,3690,21042,25531,21163,25649,21220,25669,21371,25783,571,584,574,585,576,589,575,588,594,602,599,601,602,602,603,607,1302,5011,1303,4999,1298,4992,1299,4988,1185,1681,1183,1678,1183,1674,1183,1675
8864,45087,8854,45026,8861,45045,8867,45093,31843,40159,31901,40255,31919,40269,31892,40253,545,3693,543,3689,544,3691,544,3703,21367,25811,21581,26015,21701,26092,21665,26067,576,589,572,585,574,586,578,589,603,605,605,607,602,607,605,607,1296,4982,1296,4975,1297,4975,1297,4978,1180,1673,1180,1673,1178,1671,1175,1669
8853,44990,8840,44837,8835,44767,8830,44741,31831,40143,31925,40210,31889,40134,31883,40097,545,3702,543,3683,545,3681,544,3681,21621,26023,21839,26204,21911,26239,21976,26276,571,583,572,583,575,589,583,595,600,601,595,597,593,597,597,597,1295,4963,1296,4935,1293,4925,1297,4923,1173,1661,1170,1657,1169,1651,1166,1650
8827,44681,8817,44634,8821,44653,8835,44807,31861,40086,31891,40119,31852,40045,31613,39734,545,3680,545,3685,549,3728,556,3787,22109,26398,22237,26474,21944,26235,21738,26048,592,608,603,617,608,623,609,620,600,603,609,616,617,624,620,623,1295,4919,1299,4927,1299,4945,1306,4963,1167,1647,1168,1646,1167,1650,1168,1640
8838,44881,8832,44884,8840,44976,8828,44857,31425,39551,31407,39537,31379,39507,31329,39392,561,3819,561,3836,563,3838,562,3820,21581,25945,21661,25999,21664,25963,21646,25874,602,618,603,615,605,615,598,611,623,621,619,620,617,617,614,613,1307,4977,1314,4989,1312,5001,1316,4983,1164,1637,1165,1637,1165,1640,1167,1633
8819,44753,8815,44727,8818,44728,8811,44689,31340,39382,31408,39450,31409,39425,31402,39407,560,3807,562,3797,559,3792,558,3788,21722,25913,21850,26024,21932,26068,21982,26109,593,609,593,607,590,606,589,600,605,609,603,603,600,607,594,594,1311,4959,1310,4951,1312,4949,1312,4945,1165,1631,1166,1629,1164,1630,1164,1626
8805,44659,8807,44703,8808,44718,8812,44781,31325,39323,31367,39369,31353,39356,31336,39338,558,3787,559,3794,560,3789,559,3799,22029,26146,22061,26151,22029,26119,21936,26043,582,597,587,600,590,604,591,605,591,594,594,596,597,599,599,600,1309,4945,1309,4949,1308,4952,1308,4957,1160,1621,1162,1625,1165,1624,1162,1623
8812,44803,8818,44823,8800,44710,8787,44609,31321,39322,31347,39386,31346,39355,31362,39358,560,3802,559,3801,559,3788,560,3778,21914,26053,21958,26081,22031,26123,22122,26189,592,608,592,607,588,605,589,603,601,602,602,603,599,600,598,600,1310,4963,1310,4969,1310,4951,1307,4933,1163,1623,1163,1625,1164,1620,1161,1615
8786,44598,8788,44613,8785,44591,8786,44591,31321,39301,31297,39261,31311,39278,31291,39239,562,3779,559,3781,561,3781,559,3779,22140,26196,22095,26142,22135,26185,22161,26196,592,601,589,601,589,601,587,597,595,596,597,598,595,599,598,598,1305,4928,1308,4930,1305,4922,1305,4921,1165,1618,1159,1617,1159,1614,1161,1614
8787,44613,8795,44690,8801,44740,8805,44778,31267,39214,31307,39280,31313,39295,31274,39260,561,3783,561,3791,560,3796,563,3802,22147,26193,22222,26278,22341,26393,22356,26396,587,600,586,601,583,599,583,597,599,597,596,602,593,594,593,595,1304,4927,1307,4933,1306,4938,1308,4940,1157,1615,1160,1615,1157,1613,1159,1615
8799,44740,8819,44978,8845,45224,8856,45255,31330,39339,31272,39207,31095,39079,30995,39007,564,3815,566,3850,564,3871,563,3861,22386,26425,22409,26631,22975,27253,23150,27417,581,594,566,579,557,571,556,570,591,591,579,579,565,565,557,561,1307,4943,1315,4948,1316,4947,1317,4948,1155,1613,1155,1605,1149,1600,1146,1599
8843,45166,8833,45113,8839,45139,8841,45179,31082,39108,31149,39149,31085,39063,31127,39145,563,3854,567,3855,565,3858,564,3864,23263,27474,23319,27449,23314,27435,23411,27535,559,575,559,573,558,577,562,577,559,561,560,566,553,558,559,561,1312,4941,1311,4932,1309,4932,1311,4937,1146,1597,1154,1601,1145,1603,1144,1605
8848,45238,8845,45243,8841,45206,8827,45095,31207,39228,31163,39173,31201,39234,31182,39198,568,3872,568,3873,567,3871,565,3863,23573,27667,23571,27657,23578,27646,23673,27738,562,575,561,577,563,576,563,577,560,563,562,561,563,565,561,561,1309,4939,1310,4943,1306,4940,1306,4908,1145,1605,1146,1606,1141,1602,1143,1597
8822,45029,8823,44991,8825,45003,8826,44971,31135,39104,31100,39040,31155,39103,31131,39059,566,3858,565,3843,567,3836,563,3829,23668,27695,23568,27601,23637,27659,23618,27614,563,573,562,576,567,579,564,581,556,562,558,559,561,564,562,566,1298,4891,1303,4886,1298,4884,1298,4879,1137,1592,1135,1593,1136,1595,1133,1591
8825,44949,8855,45047,8879,45137,8885,45129,31070,38972,31063,38939,31018,38815,30993,38757,561,3810,558,3788,558,3775,557,3769,23496,27465,23331,27295,22968,26891,22616,26583,568,584,575,591,580,598,583,597,563,564,572,574,592,594,597,601,1295,4877,1298,4884,1293,4885,1295,4890,1132,1589,1135,1594,1137,1597,1138,1597
8895,45146,8878,45027,8871,44935,8869,44898,31128,38929,31182,38928,31187,38867,31193,38847,554,3765,556,3752,556,3747,555,3741,22532,26509,22565,26500,22506,26406,22429,26331,585,599,584,597,579,592,579,592,598,603,596,600,594,597,591,595,1295,4903,1297,4884,1292,4864,1294,4864,1136,1599,1137,1593,1133,1595,1136,1591
8872,44906,8873,44903,8869,44886,8864,44867,31278,38934,31317,38952,31321,38940,31313,38921,555,3741,556,3743,557,3743,554,3743,22463,26383,22509,26417,22363,26279,22306,26321,580,594,581,596,582,593,580,592,595,600,595,597,593,597,593,597,1293,4869,1296,4868,1293,4873,1299,4891,1135,1593,1138,1594,1136,1595,1139,1595
8875,44980,8879,45022,8886,45051,8887,45078,31349,38984,31294,38927,31252,38907,31370,39054,557,3760,559,3768,558,3771,557,3777,22516,26547,22611,26617,22647,26636,22754,26721,581,598,579,594,581,594,583,597,593,595,592,595,593,592,592,593,1301,4901,1303,4903,1301,4915,1305,4924,1137,1596,1139,1595,1136,1597,1139,1599
8874,44955,8868,44909,8870,44925,8866,44918,31291,38926,31282,38883,31349,38953,31397,38988,558,3765,559,3758,557,3759,559,3762,22775,26687,22733,26624,22771,26668,22843,26715,579,591,575,588,575,593,577,591,587,590,584,585,585,587,586,589,1301,4897,1302,4888,1302,4895,1304,4897,1137,1593,1138,1593,1138,1593,1138,1594
8869,44897,8869,44911,8875,44983,8882,45047,31369,38937,31371,38951,31458,39050,31454,39054,557,3762,558,3760,559,3764,559,3772,22790,26653,22799,26675,22906,26779,22899,26761,575,588,575,590,577,592,576,590,584,586,584,586,587,587,585,591,1304,4894,1305,4903,1305,4917,1308,4924,1137,1593,1139,1595,1138,1595,1135,1597
8898,45112,8908,45193,8914,45258,8894,45134,31415,38998,31481,39103,31555,39209,31462,39047,560,3775,558,3781,559,3790,560,3778,22815,26697,22869,26769,22875,26763,22782,26631,575,589,579,595,579,593,575,587,584,588,588,590,589,590,584,587,1307,4934,1311,4949,1313,4962,1314,4937,1141,1599,1140,1604,1140,1602,1138,1598
8898,45108,8900,45136,8895,45108,8890,45053,31499,39064,31620,39223,31695,39289,31642,39216,559,3773,561,3771,557,3763,559,3766,22687,26556,22790,26681,22963,26791,22921,26709,574,589,581,597,587,603,589,608,585,588,596,597,604,607,605,607,1311,4930,1313,4946,1314,4953,1313,4950,1139,1597,1144,1605,1143,1603,1142,1604
8906,45207,8910,45255,8901,45187,8907,45218,31583,39091,31549,39049,31674,39242,31804,39397,561,3787,561,3785,559,3771,559,3774,22603,26436,22637,26515,22873,26715,22923,26748,593,610,596,610,599,614,601,616,609,611,613,613,612,613,614,616,1315,4955,1316,4969,1316,4979,1319,4991,1142,1604,1153,1607,1145,1609,1147,1610
8917,45278,8919,45279,8913,45218,8914,45191,31845,39464,31858,39439,31765,39329,31839,39403,558,3775,559,3777,563,3773,559,3762,23008,26849,22996,26812,22893,26700,22998,26808,601,617,602,617,601,612,598,611,617,619,618,621,618,614,611,613,1320,5003,1321,5003,1316,4980,1321,4980,1149,1613,1149,1612,1147,1610,1149,1611
8913,45199,8916,45211,8914,45213,8919,45250,31905,39502,31898,39454,31879,39419,31879,39415,557,3761,559,3761,558,3761,561,3763,23150,26951,23081,26871,23031,26822,23021,26825,597,612,596,611,600,614,601,617,612,613,613,613,615,615,618,618,1320,4989,1323,4993,1320,4997,1324,5010,1148,1614,1152,1614,1150,1617,1156,1616
8934,45334,8934,45350,8945,45435,8949,45447,31951,39492,31943,39467,31880,39381,31873,39376,561,3775,559,3773,560,3790,564,3796,22998,26806,23017,26828,22924,26729,22861,26691,607,619,604,618,602,619,599,615,621,624,623,625,623,625,625,625,1323,5019,1326,5029,1328,5038,1330,5038,1153,1621,1154,1621,1153,1621,1154,1620
8938,45302,8935,45263,8940,45297,8937,45311,31946,39465,32019,39523,32023,39471,31975,39401,559,3774,561,3765,559,3772,559,3775,23007,26815,23051,26825,22948,26715,22862,26644,597,611,598,610,597,611,599,611,621,622,620,623,619,624,619,623,1327,5011,1327,5012,1327,5014,1330,5013,1151,1618,1156,1620,1157,1623,1158,1621
8941,45309,8945,45324,8947,45348,8953,45399,31984,39413,32026,39469,32077,39533,32078,39513,563,3775,561,3775,559,3774,560,3778,22907,26688,22999,26783,23084,26865,23073,26849,598,611,597,613,600,611,602,611,621,623,622,623,623,624,623,625,1327,5014,1328,5021,1329,5033,1332,5043,1156,1622,1157,1626,1158,1625,1162,1627
8959,45473,8955,45401,8942,45312,8945,45277,32054,39471,32073,39488,32071,39441,32081,39423,561,3787,560,3785,560,3771,559,3770,23002,26791,22956,26725,22930,26680,22939,26681,599,613,600,613,594,610,594,606,624,626,623,625,622,622,621,621,1330,5055,1336,5047,1329,5022,1332,5018,1159,1633,1164,1630,1160,1626,1163,1626
8943,45273,8942,45263,8945,45285,8951,45309,32079,39399,32106,39416,32128,39428,32121,39417,559,3768,564,3765,559,3767,560,3770,22915,26660,22911,26659,22924,26669,22919,26675,593,611,595,608,598,610,598,611,620,622,621,621,623,625,622,623,1330,5023,1331,5021,1330,5024,1331,5033,1161,1628,1165,1629,1164,1632,1166,1632
8955,45351,8964,45401,8977,45466,8967,45383,32159,39458,32184,39497,32186,39495,32195,39477,561,3773,561,3773,560,3780,560,3775,22975,26728,23022,26779,23017,26759,22996,26719,598,613,602,615,601,617,601,615,625,630,625,628,626,629,627,628,1335,5041,1336,5050,1334,5057,1333,5047,1163,1635,1165,1633,1164,1635,1167,1633
8962,45317,8958,45287,8962,45301,8956,45263,32183,39423,32175,39409,32191,39417,32152,39349,562,3771,561,3766,560,3767,561,3761,22931,26653,22919,26646,22935,26653,22966,26673,597,611,599,609,599,613,600,610,622,625,622,625,623,631,623,625,1331,5029,1334,5028,1331,5029,1335,5026,1166,1631,1165,1631,1169,1634,1166,1630
8965,45293,8980,45411,8985,45479,9001,45570,32126,39318,32075,39198,32034,39169,32045,39177,565,3778,564,3807,565,3811,568,3816,22808,26503,22446,26311,22414,26329,22560,26456,597,610,593,610,595,609,595,609,623,626,619,622,621,624,621,619,1332,5031,1338,5049,1336,5054,1338,5063,1166,1631,1164,1629,1163,1627,1167,1630
9013,45664,8996,45572,8993,45515,8996,45530,32090,39251,32063,39217,32106,39281,32122,39320,568,3833,567,3835,567,3831,568,3827,22743,26590,22925,26735,23119,26896,23289,27045,597,609,592,602,587,602,585,602,618,619,609,609,604,604,602,602,1341,5073,1344,5063,1339,5045,1338,5047,1170,1633,1167,1630,1165,1627,1167,1629
8998,45572,8997,45530,8997,45543,9010,45626,32177,39399,32185,39417,32164,39397,32193,39461,569,3836,569,3831,569,3833,570,3835,23441,27179,23521,27244,23541,27259,23606,27329,590,601,586,599,587,599,588,604,600,602,596,600,599,602,601,601,1337,5049,1337,5045,1335,5047,1338,5053,1167,1629,1166,1627,1163,1627,1169,1629
9010,45651,9013,45647,8998,45563,8996,45567,32212,39479,32187,39463,32203,39440,32214,39417,572,3839,570,3834,569,3836,571,3845,23604,27323,23566,27281,23483,27184,23462,27144,589,602,589,602,588,603,585,603,599,602,600,604,600,602,599,597,1336,5056,1339,5065,1338,5061,1341,5043,1165,1629,1163,1627,1161,1625,1163,1623
8998,45551,9004,45565,9005,45581,9003,45559,32175,39361,32213,39390,32284,39475,32260,39432,570,3843,572,3843,573,3841,573,3839,23404,27083,23351,27041,23425,27123,23419,27102,585,601,585,601,594,604,587,603,599,597,602,603,602,603,603,603,1333,5037,1335,5041,1334,5042,1335,5037,1160,1621,1163,1622,1163,1621,1166,1626
9001,45563,9011,45622,9013,45664,9004,45546,32250,39422,32298,39483,32310,39498,32267,39410,572,3841,572,3841,571,3849,572,3838,23389,27077,23418,27121,23440,27126,23367,27023,590,604,592,606,591,607,590,606,602,603,603,606,607,611,605,606,1334,5046,1336,5058,1334,5061,1335,5046,1163,1622,1165,1624,1163,1625,1164,1623
9004,45484,9008,45495,9007,45451,9006,45429,32278,39396,32326,39407,32291,39349,32316,39369,570,3825,573,3823,571,3821,571,3818,23321,26970,23331,26970,23271,26906,23215,26856,589,602,589,604,587,604,589,603,604,605,604,606,604,606,604,605,1333,5026,1331,5021,1330,5014,1330,5015,1163,1622,1165,1619,1164,1619,1166,1619
9010,45470,9012,45485,9009,45485,9014,45529,32376,39417,32371,39405,32375,39416,32422,39460,571,3822,571,3828,572,3831,573,3833,23256,26897,23241,26882,23217,26858,23249,26895,590,604,590,605,592,604,594,607,607,608,606,607,607,608,607,613,1329,5022,1332,5025,1329,5031,1333,5041,1165,1622,1167,1625,1165,1623,1167,1622
9010,45497,8998,45357,9002,45338,9003,45346,32465,39463,32389,39349,32427,39360,32485,39397,576,3830,571,3813,570,3807,572,3808,23268,26882,23201,26793,23160,26754,23206,26798,594,606,588,602,590,606,592,605,609,613,604,606,604,605,606,606,1330,5034,1330,5003,1327,4997,1329,4998,1166,1625,1166,1619,1170,1618,1169,1618
8993,45284,8990,45251,8993,45278,8987,45274,32466,39358,32474,39365,32525,39418,32547,39437,570,3804,570,3797,570,3800,572,3803,23209,26788,23193,26766,23249,26823,23279,26862,590,603,591,605,591,607,591,609,604,605,603,606,609,609,607,607,1325,4990,1327,4993,1327,5001,1331,5002,1167,1618,1169,1620,1171,1622,1169,1621
8981,45229,8989,45260,8981,45173,8974,45081,32543,39433,32568,39474,32549,39382,32515,39307,571,3795,570,3797,571,3787,572,3775,23259,26831,23260,26840,23275,26808,23235,26738,593,608,596,612,595,607,591,603,606,609,609,611,609,611,608,607,1325,5007,1328,5015,1327,4996,1325,4970,1169,1621,1170,1623,1169,1621,1170,1615
8984,45087,8999,45133,8997,45129,9002,45101,32529,39304,32597,39367,32613,39362,32597,39343,569,3767,574,3768,569,3767,569,3762,23162,26680,23228,26745,23269,26767,23239,26723,593,610,595,609,595,609,595,611,609,608,611,610,609,612,610,610,1322,4969,1325,4969,1322,4963,1322,4963,1169,1615,1173,1615,1171,1615,1170,1612
9008,45153,9013,45199,9009,45189,9015,45204,32637,39395,32676,39432,32658,39415,32659,39437,569,3764,571,3769,569,3770,571,3768,23251,26763,23282,26789,23266,26761,23248,26757,600,617,603,618,604,617,607,621,611,613,614,614,616,617,616,622,1323,4975,1324,4980,1323,4982,1328,4997,1169,1611,1171,1615,1168,1614,1169,1615
9015,45195,9008,45097,9006,45042,9010,45081,32711,39450,32633,39350,32632,39335,32702,39401,571,3772,573,3762,570,3755,570,3759,23271,26753,23207,26676,23163,26626,23208,26669,608,621,604,617,603,620,606,620,618,621,621,617,615,616,614,620,1328,4992,1325,4964,1324,4961,1325,4967,1172,1614,1171,1609,1172,1609,1171,1609
9007,45065,9002,45023,9008,45034,9008,45085,32702,39379,32671,39351,32700,39381,32761,39457,571,3759,572,3755,571,3757,574,3764,23207,26655,23187,26639,23196,26653,23247,26708,607,620,606,619,610,623,611,627,617,619,618,621,621,623,622,625,1322,4963,1325,4961,1323,4971,1327,4978,1174,1609,1171,1607,1171,1607,1173,1611
9006,45075,9008,45075,9016,45139,9003,45015,32739,39427,32743,39438,32829,39532,32727,39378,571,3762,570,3760,573,3770,572,3759,23223,26679,23228,26691,23254,26710,23185,26601,611,627,614,628,618,631,615,627,624,627,625,627,629,634,627,627,1325,4984,1328,4993,1329,5004,1329,4977,1170,1611,1172,1613,1173,1615,1173,1608
8997,44938,9001,44965,8997,44957,8991,44894,32713,39332,32771,39384,32793,39392,32753,39337,571,3751,572,3751,573,3756,572,3749,23109,26522,23125,26553,23175,26587,23139,26540,611,627,614,629,619,629,615,629,626,625,627,630,627,629,629,630,1325,4964,1328,4972,1326,4969,1327,4965,1172,1605,1175,1609,1174,1608,1177,1606
8991,44889,8993,44931,8982,44895,8977,44879,32763,39350,32814,39411,32787,39387,32789,39410,572,3750,572,3754,571,3757,573,3753,23121,26530,23170,26590,23158,26571,23165,26597,619,630,619,634,620,637,621,638,628,631,635,634,634,636,637,641,1326,4972,1330,4983,1331,4987,1332,4993,1174,1609,1179,1611,1177,1609,1177,1613
8988,44947,8978,44862,8970,44763,8973,44751,32842,39483,32822,39395,32769,39309,32799,39318,572,3758,573,3754,569,3743,570,3739,23228,26651,23197,26573,23127,26496,23092,26467,624,639,623,637,620,634,622,636,637,643,637,639,632,633,631,634,1333,5007,1333,4989,1329,4964,1331,4965,1179,1613,1177,1610,1175,1607,1176,1609
8977,44770,8973,44723,8971,44721,8977,44762,32830,39333,32801,39289,32797,39283,32830,39335,574,3745,572,3738,575,3736,573,3744,23138,26503,23122,26477,23099,26455,23157,26524,624,636,623,634,626,638,625,639,635,637,632,636,634,636,636,639,1329,4962,1329,4960,1328,4963,1333,4970,1177,1608,1177,1606,1177,1607,1177,1609
8973,44765,8974,44767,8979,44819,8980,44813,32837,39338,32827,39329,32836,39339,32865,39345,574,3741,573,3743,573,3749,574,3751,23190,26550,23150,26513,23162,26530,23108,26455,627,643,629,643,631,646,633,647,639,640,639,641,643,645,644,645,1330,4975,1335,4980,1330,4989,1337,4987,1178,1609,1178,1610,1175,1610,1178,1612
8967,44676,8967,44650,8970,44658,8962,44593,32770,39201,32805,39215,32846,39226,32819,39179,573,3736,573,3732,574,3732,571,3730,23032,26356,23002,26325,23052,26357,23033,26323,628,640,628,641,631,645,632,642,639,643,640,641,641,640,639,643,1329,4955,1328,4948,1327,4945,1331,4941,1175,1607,1179,1603,1179,1603,1178,1602
8963,44585,8964,44603,8962,44596,8960,44601,32844,39203,32884,39246,32867,39238,32869,39242,572,3724,573,3728,572,3727,573,3725,23034,26335,23103,26406,23118,26409,23096,26394,630,647,633,646,632,650,634,648,639,642,643,644,642,647,647,650,1327,4944,1329,4947,1328,4950,1330,4956,1177,1605,1180,1605,1177,1605,1179,1606
8963,44648,8967,44697,8957,44583,8951,44484,32895,39277,32902,39283,32856,39199,32907,39270,571,3731,572,3738,575,3727,571,3710,23138,26443,23127,26414,23035,26319,23138,26398,636,652,640,652,638,647,634,648,647,649,648,649,647,650,645,649,1331,4965,1333,4973,1329,4956,1327,4939,1179,1608,1180,1608,1178,1603,1178,1602
8950,44479,8943,44425,8943,44408,8951,44462,32926,39247,32897,39203,32878,39180,32882,39159,572,3711,571,3707,571,3705,571,3712,23151,26385,23134,26379,23114,26319,23054,26284,637,649,633,647,630,643,625,634,646,645,646,645,642,641,632,634,1326,4930,1327,4922,1324,4923,1327,4923,1177,1598,1178,1601,1176,1598,1178,1599
8954,44473,8955,44479,8946,44407,8967,44595,32771,38998,32693,38932,32831,39187,32926,39189,572,3718,571,3718,570,3703,571,3723,22953,26157,22865,26131,23238,26487,23036,26286,617,629,611,624,613,631,614,626,623,622,621,621,616,619,618,618,1324,4921,1326,4924,1325,4934,1329,4939,1175,1597,1178,1597,1174,1601,1179,1599
8957,44537,8943,44391,8951,44410,8949,44403,32820,39154,32891,39191,32839,39052,32709,38915,570,3717,571,3705,572,3713,573,3712,23086,26355,23119,26298,22940,26125,22829,26062,612,629,610,624,607,619,602,615,615,615,611,612,607,610,606,605,1328,4950,1327,4929,1324,4905,1324,4899,1177,1599,1176,1595,1174,1595,1174,1590
8941,44317,8940,44318,8938,44313,8945,44363,32794,39030,32894,39131,32863,39093,32784,38972,573,3698,570,3699,570,3699,570,3710,23011,26225,23100,26286,23185,26364,22949,26110,603,614,602,612,603,615,601,613,603,606,602,608,605,606,598,606,1321,4902,1327,4899,1323,4899,1326,4901,1171,1596,1173,1591,1172,1593,1172,1591
8950,44377,8952,44376,8955,44413,8948,44348,32776,39003,32859,39142,32884,39181,32873,39163,571,3708,570,3702,574,3703,567,3696,22979,26214,23279,26497,23373,26566,23451,26612,600,613,601,612,604,615,604,618,604,607,605,608,609,610,607,608,1327,4906,1327,4912,1325,4917,1329,4921,1174,1591,1172,1591,1170,1592,1169,1593
8951,44353,8954,44333,8959,44343,8972,44412,32784,39014,32757,38973,32710,38893,32727,38901,570,3706,569,3700,569,3699,571,3705,23107,26253,23100,26273,23015,26177,22881,26047,605,616,606,620,609,624,615,629,611,612,610,611,611,615,615,618,1322,4898,1326,4890,1322,4890,1325,4892,1168,1587,1167,1589,1166,1588,1169,1588
8986,44475,8995,44522,9002,44567,9011,44603,32756,38919,32773,38933,32825,39019,32867,39071,573,3709,572,3713,572,3710,572,3714,22799,25981,22807,25993,22874,26066,22929,26127,618,633,622,635,625,638,627,640,618,622,622,621,626,626,624,627,1322,4888,1321,4893,1322,4903,1325,4909,1169,1589,1171,1592,1169,1591,1171,1591
9015,44645,9012,44600,9001,44512,8999,44463,32872,39081,32912,39122,32860,39039,32826,38985,573,3716,573,3711,573,3707,573,3703,22964,26159,22969,26142,22937,26084,22893,26051,630,641,628,641,628,637,623,640,623,630,626,626,624,627,621,622,1323,4915,1326,4914,1320,4889,1327,4880,1169,1592,1172,1591,1167,1587,1167,1586
8997,44463,8998,44463,9000,44469,9001,44487,32849,39007,32876,39036,32863,39014,32849,38997,569,3702,566,3702,572,3703,572,3707,22879,26042,22899,26053,22869,26027,22863,26024,624,639,627,639,625,635,625,639,622,627,621,627,622,624,622,624,1319,4886,1325,4885,1322,4885,1325,4893,1165,1587,1167,1586,1169,1585,1169,1592
9008,44533,9014,44568,9015,44591,9004,44473,32911,39075,32923,39103,32940,39123,32860,39015,574,3709,571,3712,574,3718,571,3703,22929,26104,22973,26147,22915,26081,22849,25999,628,640,626,641,629,640,625,634,624,629,625,627,626,627,623,625,1322,4902,1324,4909,1322,4913,1326,4890,1169,1591,1169,1592,1168,1591,1167,1586
9001,44418,8997,44394,8998,44371,8995,44383,32879,38987,32863,38957,32869,38961,32903,38998,573,3702,572,3699,572,3697,571,3697,22864,25994,22826,25951,22799,25932,22850,25983,623,636,621,636,625,637,628,637,621,621,622,623,621,621,622,630,1321,4876,1323,4872,1319,4877,1324,4876,1165,1585,1167,1583,1166,1586,1166,1585
8997,44385,9002,44390,9000,44434,9004,44462,32895,38983,32878,38980,32909,39014,32917,39041,572,3700,572,3702,573,3706,572,3708,22869,25995,22842,25984,22884,26031,22897,26049,626,639,626,639,627,643,628,642,624,626,625,628,628,629,629,629,1322,4873,1324,4878,1323,4890,1326,4894,1166,1587,1168,1587,1167,1588,1169,1592
8997,44395,8992,44311,8991,44277,8988,44249,32884,38961,32836,38901,32845,38857,32824,38836,573,3707,572,3700,574,3703,574,3707,22827,25921,22754,25870,22733,25833,22694,25776,627,640,625,638,624,637,624,635,629,632,624,626,625,623,627,624,1325,4886,1324,4866,1323,4858,1324,4856,1166,1588,1167,1586,1166,1581,1170,1584
8988,44253,8992,44297,8994,44298,8987,44307,32847,38856,32868,38878,32839,38845,32864,38875,572,3707,575,3713,575,3713,574,3714,22663,25767,22683,25796,22656,25765,22657,25765,621,638,625,639,623,640,625,654,624,623,623,626,627,628,626,643,1321,4860,1327,4856,1327,4859,1327,4864,1168,1584,1169,1587,1170,1585,1168,1587
8997,44359,9002,44411,8989,44301,8987,44233,32900,38933,32927,38970,32828,38815,32843,38830,575,3714,575,3724,575,3714,574,3705,22673,25807,22683,25806,22571,25665,22578,25681,626,639,627,641,625,637,622,635,631,630,632,632,627,629,624,625,1326,4872,1327,4879,1325,4859,1326,4842,1169,1587,1172,1587,1167,1584,1168,1583
8988,44241,8984,44212,8983,44198,8985,44239,32913,38887,32878,38852,32886,38864,32930,38913,575,3703,575,3703,574,3699,575,3703,22652,25751,22656,25745,22649,25733,22705,25789,622,637,620,634,620,633,624,635,624,627,622,625,622,624,624,627,1324,4841,1326,4834,1323,4836,1324,4844,1166,1583,1168,1584,1168,1584,1170,1584
8989,44253,8983,44248,8993,44295,8993,44345,32935,38921,32917,38918,32959,38976,32977,39006,577,3709,573,3707,577,3710,575,3715,22710,25790,22679,25763,22713,25811,22725,25832,624,637,623,639,634,639,625,640,626,627,625,628,633,631,627,631,1327,4846,1327,4848,1328,4863,1329,4871,1170,1585,1170,1587,1173,1588,1171,1589
8989,44295,8988,44225,8988,44248,8985,44241,32951,38941,32929,38924,32977,38963,32960,38943,575,3711,575,3703,575,3705,577,3706,22645,25729,22609,25690,22637,25716,22620,25713,625,641,621,634,622,637,621,650,627,628,627,625,623,625,625,641,1329,4865,1328,4847,1328,4847,1329,4846,1170,1587,1172,1586,1173,1587,1173,1587
8987,44236,8993,44273,8989,44283,8989,44285,32975,38959,33016,39004,33012,39005,33021,39029,575,3704,577,3706,580,3709,575,3708,22609,25691,22657,25728,22663,25742,22670,25753,621,634,623,634,623,637,623,636,622,626,627,626,625,628,626,630,1328,4845,1332,4852,1328,4857,1331,4865,1171,1589,1176,1588,1175,1589,1174,1589
8996,44337,9001,44390,8999,44353,8999,44294,33066,39092,33093,39138,33076,39089,33041,39046,576,3716,577,3719,581,3717,576,3706,22707,25803,22742,25835,22690,25766,22631,25709,625,637,627,639,626,641,623,637,630,630,633,633,631,632,629,629,1330,4874,1335,4886,1333,4880,1333,4861,1174,1594,1175,1593,1173,1592,1178,1592
9003,44319,9003,44320,9009,44327,9013,44357,33094,39083,33087,39063,33094,39075,33124,39106,576,3707,575,3707,576,3710,577,3709,22673,25743,22660,25727,22638,25705,22679,25750,623,638,627,637,625,639,627,641,629,630,628,630,626,630,629,630,1328,4859,1334,4860,1330,4859,1334,4867,1176,1593,1177,1591,1177,1591,1177,1596
9014,44388,9019,44417,9025,44447,9032,44515,33148,39137,33146,39143,33158,39166,33174,39201,577,3711,577,3717,577,3721,579,3724,22702,25771,22691,25765,22688,25773,22708,25802,629,643,630,643,630,642,630,645,630,632,630,631,632,634,632,635,1333,4873,1336,4877,1333,4888,1338,4902,1177,1595,1180,1595,1177,1597,1180,1598
9029,44478,9027,44413,9031,44413,9033,44433,33164,39146,33137,39101,33169,39101,33184,39118,579,3724,579,3717,579,3714,579,3719,22677,25734,22645,25700,22649,25701,22650,25711,630,643,625,639,628,639,625,639,634,633,630,629,626,627,624,628,1337,4893,1337,4871,1335,4872,1335,4873,1177,1595,1182,1594,1180,1594,1180,1598
9035,44433,9039,44462,9043,44489,9049,44525,33192,39116,33203,39125,33220,39150,33252,39188,578,3717,578,3718,578,3721,579,3726,22655,25700,22653,25705,22674,25729,22689,25749,625,637,629,640,626,640,626,641,624,626,626,629,626,631,627,630,1337,4871,1338,4877,1336,4884,1337,4890,1180,1593,1180,1596,1178,1599,1184,1601
9054,44564,9061,44612,9059,44573,9054,44507,33266,39207,33274,39239,33255,39173,33228,39115,578,3726,581,3732,580,3729,579,3718,22713,25771,22719,25781,22672,25714,22648,25677,627,643,630,645,628,640,622,637,627,629,629,630,631,630,623,624,1339,4899,1339,4909,1339,4903,1340,4882,1180,1597,1181,1601,1180,1598,1182,1595
9061,44502,9062,44516,9062,44512,9063,44521,33262,39111,33258,39101,33271,39107,33293,39134,579,3718,579,3719,579,3715,577,3716,22640,25655,22636,25667,22657,25676,22690,25701,624,637,623,638,622,636,625,635,621,623,621,624,619,623,620,624,1338,4878,1340,4879,1339,4883,1342,4886,1179,1593,1181,1596,1182,1597,1182,1594
9068,44542,9067,44570,9073,44603,9078,44641,33303,39135,33315,39161,33349,39203,33357,39225,580,3719,581,3719,581,3725,581,3725,22691,25711,22706,25725,22737,25759,22756,25786,623,638,626,639,630,640,631,642,621,624,624,624,625,630,627,626,1341,4893,1343,4902,1341,4910,1349,4919,1183,1598,1183,1600,1183,1602,1180,1597
9085,44669,9083,44596,9097,44603,9088,44548,33388,39251,33297,39108,33327,39107,33337,39092,582,3730,581,3716,580,3715,581,3712,22741,25751,22685,25669,22671,25645,22673,25632,637,647,634,648,639,650,637,654,631,635,630,631,629,633,632,633,1345,4929,1349,4907,1342,4894,1344,4901,1182,1600,1181,1593,1183,1594,1183,1591
9084,44529,9092,44549,9098,44574,9101,44603,33348,39101,33375,39128,33376,39121,33383,39139,580,3708,580,3708,581,3706,579,3709,22679,25647,22719,25682,22741,25701,22769,25733,640,655,645,661,651,664,658,668,633,636,637,639,642,643,645,647,1343,4901,1345,4902,1343,4908,1346,4915,1180,1592,1182,1593,1180,1588,1180,1593
9105,44631,9104,44659,9112,44687,9119,44737,33418,39192,33429,39213,33449,39243,33492,39295,580,3715,586,3714,580,3715,581,3721,22810,25775,22837,25809,22876,25843,22858,25823,658,671,667,679,669,681,672,687,651,652,653,655,661,660,661,665,1343,4919,1350,4929,1347,4937,1351,4944,1179,1592,1185,1594,1180,1594,1180,1596
9115,44635,9121,44612,9126,44612,9125,44602,33397,39159,33421,39157,33429,39143,33435,39155,580,3705,579,3699,579,3700,579,3697,22833,25765,22826,25744,22823,25732,22843,25761,672,685,673,686,675,690,679,692,663,663,661,663,663,664,662,667,1350,4924,1347,4916,1344,4911,1347,4909,1179,1591,1182,1587,1180,1589,1182,1589
9125,44589,9125,44595,9123,44593,9123,44596,33458,39176,33473,39192,33485,39215,33499,39241,581,3697,579,3696,582,3698,581,3699,22861,25775,22885,25800,22898,25821,22921,25844,683,694,685,698,688,702,689,701,665,666,666,670,669,671,670,671,1345,4909,1349,4914,1347,4924,1351,4933,1183,1590,1181,1591,1182,1593,1181,1597
9121,44595,9121,44602,9121,44628,9115,44556,33502,39257,33513,39279,33527,39317,33488,39241,581,3702,581,3702,582,3706,579,3698,22925,25858,22953,25901,22956,25899,22931,25837,688,702,690,704,693,703,689,701,671,673,672,675,673,676,670,673,1350,4940,1353,4951,1353,4957,1355,4948,1182,1596,1183,1597,1186,1598,1183,1596
9115,44507,9119,44514,9124,44526,9122,44514,33495,39228,33518,39247,33525,39248,33541,39265,581,3693,581,3693,583,3693,579,3693,22917,25827,22918,25821,22924,25818,22924,25821,686,699,687,697,685,698,684,697,665,667,666,666,665,666,664,666,1352,4935,1353,4938,1351,4939,1355,4939,1184,1592,1185,1595,1184,1595,1185,1595
9126,44519,9125,44531,9128,44559,9133,44595,33541,39265,33545,39283,33569,39326,33577,39335,580,3693,579,3696,575,3698,582,3704,22935,25841,22947,25861,22981,25892,22990,25919,685,695,686,697,685,701,685,701,664,665,664,666,664,667,666,668,1352,4940,1355,4948,1354,4957,1359,4965,1186,1595,1185,1597,1185,1598,1186,1603
9137,44625,9142,44647,9133,44569,9139,44541,33328,39055,33271,39048,33276,39022,33397,39107,584,3703,581,3704,580,3696,582,3691,22959,25969,22899,25944,22830,25844,22831,25812,687,698,689,701,686,700,685,699,667,670,669,673,668,670,669,671,1357,4974,1360,4982,1357,4966,1359,4959,1186,1601,1185,1602,1183,1594,1185,1595
9139,44553,9144,44555,9142,44555,9146,44568,33489,39204,33547,39268,33568,39292,33567,39297,579,3694,583,3694,580,3695,582,3696,22894,25836,22918,25833,22925,25833,22927,25848,688,702,691,704,695,710,700,715,671,674,676,675,677,680,684,683,1354,4959,1358,4962,1356,4962,1360,4966,1184,1597,1188,1598,1186,1601,1190,1602
9148,44611,9156,44654,9160,44698,9169,44735,33597,39341,33616,39369,33622,39382,33674,39455,581,3700,581,3707,580,3707,584,3712,22948,25874,22969,25900,22997,25931,23002,25942,705,719,710,726,714,729,717,733,685,687,687,689,693,694,696,695,1359,4974,1360,4979,1359,4987,1363,4996,1185,1604,1191,1606,1188,1606,1191,1608
9156,44643,9152,44592,9153,44588,9152,44586,33622,39370,33623,39347,33651,39363,33664,39369,581,3704,581,3699,584,3697,581,3697,22958,25865,22933,25836,22938,25848,22959,25858,718,729,715,729,719,732,720,732,695,695,692,694,691,694,693,695,1359,4980,1360,4968,1357,4969,1359,4969,1188,1603,1193,1601,1191,1601,1193,1605
9151,44574,9155,44587,9157,44621,9158,44646,33675,39382,33683,39391,33689,39413,33715,39446,581,3693,580,3697,581,3700,581,3701,22974,25879,22965,25875,22977,25892,23005,25913,719,739,721,735,723,738,727,739,696,700,697,697,697,699,699,702,1357,4969,1360,4973,1358,4982,1362,4987,1188,1604,1192,1606,1189,1607,1193,1607
9167,44696,9168,44679,9156,44574,9148,44532,33722,39462,33753,39473,33683,39373,33691,39354,582,3707,581,3706,583,3695,582,3690,22998,25913,22983,25891,22939,25828,22919,25803,728,741,727,742,725,736,725,737,701,703,704,704,699,703,697,697,1360,4992,1363,4995,1359,4970,1361,4960,1193,1612,1193,1610,1194,1603,1193,1605
9151,44523,9151,44507,9149,44497,9153,44511,33699,39353,33708,39353,33717,39368,33722,39378,580,3689,583,3687,580,3687,579,3686,22921,25795,22939,25811,22955,25823,22963,25842,723,739,727,740,730,741,728,751,700,701,700,700,700,703,701,711,1356,4957,1357,4957,1355,4956,1358,4960,1192,1605,1192,1605,1193,1608,1195,1610
9150,44529,9154,44545,9153,44578,9145,44515,33735,39401,33754,39431,33746,39434,33719,39357,581,3688,579,3689,583,3694,581,3688,22977,25856,22997,25881,22985,25873,22927,25788,731,747,734,751,739,755,739,752,705,705,707,708,709,713,713,714,1358,4966,1360,4974,1359,4982,1361,4975,1194,1607,1197,1610,1196,1611,1196,1607
9129,44375,9127,44336,9130,44346,9126,44331,33646,39251,33651,39227,33632,39175,33583,39111,583,3678,580,3673,580,3675,580,3674,22855,25702,22751,25605,22676,25533,22612,25470,739,749,738,751,740,754,746,757,710,712,709,713,711,713,715,721,1358,4954,1359,4951,1357,4948,1359,4945,1194,1607,1194,1604,1197,1606,1197,1607
9125,44316,9123,44319,9120,44322,9122,44339,33584,39104,33581,39117,33578,39120,33614,39175,581,3673,580,3674,581,3673,583,3677,22611,25461,22610,25471,22611,25481,22627,25515,757,760,750,762,749,763,751,767,722,719,719,721,722,721,725,725,1360,4950,1359,4951,1357,4959,1362,4961,1199,1608,1199,1612,1198,1611,1200,1611
9119,44366,9123,44394,9115,44298,9105,44215,33623,39193,33640,39230,33561,39091,33527,39038,580,3677,580,3683,581,3673,579,3665,22647,25532,22647,25525,22582,25432,22545,25383,756,767,757,771,756,769,746,764,726,728,727,729,725,726,722,723,1358,4968,1365,4979,1361,4963,1360,4943,1198,1615,1199,1616,1201,1611,1203,1610
9106,44190,9105,44177,9105,44162,9105,44167,33538,39023,33528,39011,33546,39027,33548,39035,580,3661,580,3660,579,3657,580,3657,22522,25353,22521,25354,22538,25361,22552,25371,754,765,752,764,751,764,762,765,721,721,719,722,721,723,727,723,1355,4934,1357,4930,1355,4929,1357,4934,1201,1607,1205,1609,1199,1607,1203,1608
9107,44183,9106,44199,9106,44225,9109,44243,33557,39052,33569,39075,33592,39113,33606,39147,579,3658,580,3662,580,3665,579,3664,22557,25395,22575,25408,22597,25436,22611,25455,753,767,755,771,757,768,756,770,724,725,725,725,727,728,726,728,1355,4935,1358,4940,1357,4948,1359,4957,1201,1609,1203,1611,1201,1610,1207,1611
9111,44280,9119,44331,9108,44245,9109,44182,33619,39172,33631,39214,33575,39109,33573,39089,579,3670,580,3675,582,3666,580,3656,22625,25479,22631,25485,22589,25411,22560,25377,758,771,763,773,759,771,752,766,729,732,730,733,728,731,726,726,1357,4964,1362,4975,1360,4960,1359,4939,1200,1614,1202,1615,1207,1611,1202,1608
9109,44162,9110,44159,9109,44146,9107,44153,33581,39078,33584,39074,33593,39090,33603,39109,582,3656,581,3655,578,3653,577,3653,22550,25354,22563,25376,22582,25391,22593,25405,753,765,751,766,753,766,755,766,722,724,722,723,722,725,722,729,1359,4937,1358,4935,1358,4937,1358,4938,1203,1608,1203,1609,1201,1609,1202,1607
9107,44170,9113,44196,9113,44227,9120,44277,33619,39131,33639,39168,33655,39199,33679,39242,582,3656,580,3658,579,3660,583,3665,22611,25417,22635,25453,22650,25472,22676,25505,757,768,756,772,757,771,758,772,723,728,727,731,727,730,730,732,1357,4945,1361,4952,1359,4961,1361,4970,1206,1611,1205,1609,1201,1611,1204,1611
9119,44289,9119,44311,9123,44342,9118,44256,33698,39274,33711,39295,33763,39351,33693,39263,579,3667,581,3672,581,3674,579,3667,22706,25543,22729,25563,22715,25543,22676,25484,760,774,758,772,757,771,755,765,732,732,732,734,735,734,727,728,1361,4982,1369,4999,1365,5006,1367,4983,1203,1613,1205,1620,1203,1614,1203,1611
9122,44251,9125,44261,9125,44274,9125,44273,33719,39252,33728,39259,33741,39268,33748,39282,580,3663,581,3665,581,3665,580,3665,22646,25457,22643,25462,22663,25468,22663,25473,751,765,751,763,754,767,753,765,725,728,726,726,725,726,726,727,1363,4976,1364,4977,1363,4978,1365,4978,1202,1612,1208,1610,1208,1613,1207,1612
9129,44290,9132,44327,9141,44377,9146,44422,33762,39292,33783,39338,33807,39362,33816,39391,582,3668,582,3671,581,3677,580,3681,22680,25495,22702,25525,22718,25542,22735,25567,755,767,755,767,755,767,758,772,728,729,728,734,728,733,730,733,1363,4987,1366,4997,1367,5007,1371,5017,1206,1612,1207,1613,1205,1616,1208,1619
9153,44474,9164,44526,9172,44583,9168,44514,33831,39420,33846,39438,33915,39537,33849,39452,583,3683,583,3687,583,3695,584,3689,22750,25588,22770,25619,22758,25611,22725,25555,759,771,759,772,763,773,756,770,733,735,735,737,738,740,737,738,1368,5031,1373,5039,1373,5051,1373,5035,1208,1621,1210,1625,1210,1625,1212,1619
9164,44497,9170,44507,9173,44519,9170,44527,33858,39433,33879,39435,33891,39451,33905,39462,585,3686,584,3684,583,3691,585,3686,22691,25515,22698,25529,22712,25539,22711,25549,756,768,756,767,755,769,758,770,732,735,732,736,733,735,733,737,1371,5026,1372,5030,1371,5032,1373,5033,1210,1619,1211,1622,1212,1621,1212,1622
9179,44561,9189,44612,9199,44663,9206,44727,33914,39467,33932,39494,33951,39526,33967,39556,585,3693,583,3694,585,3701,585,3705,22727,25561,22739,25583,22759,25610,22775,25631,758,770,757,771,759,776,762,775,731,736,735,738,736,736,738,740,1372,5039,1375,5047,1374,5058,1377,5069,1215,1624,1214,1627,1212,1626,1215,1630
9220,44787,9231,44855,9233,44879,9230,44801,33994,39591,34021,39631,34087,39718,34018,39634,585,3709,587,3717,587,3722,587,3712,22803,25658,22837,25698,22828,25683,22779,25613,761,776,765,782,765,778,760,773,738,741,738,743,743,743,737,738,1377,5078,1380,5087,1378,5093,1379,5073,1214,1633,1215,1635,1213,1634,1219,1631
9227,44787,9228,44797,9230,44795,9232,44810,34045,39643,34067,39645,34075,39657,34095,39666,586,3711,586,3710,585,3711,590,3711,22761,25605,22770,25617,22788,25626,22795,25632,760,773,760,771,760,771,759,773,733,737,733,736,733,735,734,735,1375,5070,1379,5073,1377,5073,1379,5076,1215,1632,1215,1631,1216,1633,1217,1634
9239,44841,9244,44885,9251,44933,9259,44988,34087,39674,34106,39709,34125,39733,34144,39757,586,3715,585,3719,587,3725,587,3727,22815,25660,22847,25698,22863,25713,22893,25751,760,776,761,775,765,777,764,777,733,735,736,739,741,740,735,740,1377,5081,1378,5091,1376,5098,1383,5108,1217,1633,1219,1636,1218,1639,1220,1640
9268,45050,9278,45110,9273,45067,9264,44990,34163,39781,34185,39825,34194,39833,34164,39788,588,3734,590,3741,589,3739,592,3730,22918,25777,22928,25794,22910,25750,22878,25715,764,778,768,783,767,778,761,772,740,741,739,743,740,743,735,737,1380,5117,1384,5127,1383,5123,1383,5106,1218,1643,1220,1645,1217,1643,1220,1639
9264,44978,9267,44987,9266,44977,9266,44985,34180,39783,34176,39781,34192,39793,34189,39784,591,3729,587,3730,589,3731,591,3730,22867,25697,22876,25709,22886,25704,22878,25711,761,775,763,774,759,774,759,773,732,735,733,738,734,736,733,738,1382,5099,1382,5102,1381,5103,1383,5106,1221,1636,1219,1642,1217,1643,1219,1640
9270,45020,9273,45061,9276,45106,9285,45154,34179,39774,34195,39804,34208,39822,34219,39837,589,3733,589,3741,589,3742,590,3746,22883,25712,22902,25736,22917,25759,22926,25777,760,774,761,777,763,778,764,778,733,735,734,736,737,737,739,740,1379,5113,1384,5121,1380,5131,1385,5133,1220,1640,1226,1642,1222,1644,1222,1646
9295,45216,9304,45281,9290,45191,9287,45135,34238,39873,34287,39957,34222,39861,34239,39856,591,3751,590,3757,592,3749,593,3741,22965,25813,22960,25816,22919,25746,22912,25730,766,780,769,781,765,778,761,776,738,740,741,742,738,739,735,737,1383,5145,1386,5155,1383,5139,1384,5126,1224,1647,1223,1647,1223,1643,1219,1643
9282,45123,9286,45112,9283,45110,9284,45135,34249,39851,34255,39851,34251,39843,34247,39843,590,3740,591,3743,592,3741,589,3742,22915,25728,22944,25757,22935,25739,22925,25739,763,779,766,780,769,781,770,782,738,737,737,737,736,737,737,739,1381,5121,1382,5126,1380,5124,1382,5126,1219,1643,1221,1643,1219,1643,1222,1646
9288,45158,9294,45203,9298,45245,9304,45295,34257,39870,34279,39902,34293,39917,34290,39925,590,3745,590,3749,591,3753,594,3758,22959,25776,22981,25809,23001,25824,23013,25847,773,781,772,784,772,788,773,787,738,742,738,741,741,742,743,745,1381,5129,1383,5140,1382,5146,1387,5156,1219,1646,1221,1647,1221,1647,1220,1649
9311,45347,9307,45350,9298,45259,9298,45233,34305,39942,34353,40015,34281,39917,34295,39928,596,3762,593,3766,592,3756,591,3756,23041,25880,23041,25867,22994,25805,22983,25792,776,791,776,786,772,784,769,786,743,746,745,746,739,741,739,739,1383,5165,1388,5168,1382,5145,1381,5141,1220,1650,1221,1650,1223,1648,1222,1645
9299,45249,9295,45247,9297,45251,9302,45279,34302,39935,34310,39935,34315,39946,34323,39966,591,3756,592,3755,591,3758,591,3759,22975,25798,22990,25802,23004,25812,23033,25847,770,785,770,783,771,783,771,785,738,744,739,743,737,743,741,742,1380,5142,1386,5143,1381,5144,1383,5152,1218,1646,1221,1643,1219,1646,1221,1647
9306,45321,9309,45368,9315,45419,9321,45460,34335,39979,34339,39999,34345,40021,34359,40043,591,3761,592,3766,595,3772,592,3778,23059,25880,23061,25883,23081,25909,23118,25951,772,790,774,787,775,789,778,794,739,742,741,746,741,745,744,746,1383,5159,1385,5166,1383,5174,1384,5182,1221,1648,1221,1648,1221,1651,1221,1654
9329,45505,9315,45426,9315,45403,9317,45415,34422,40141,34356,40041,34361,40049,34382,40062,593,3783,592,3773,592,3771,593,3769,23116,25958,23075,25887,23052,25876,23070,25897,779,792,778,788,774,787,773,787,747,752,743,747,742,746,742,744,1385,5192,1387,5177,1384,5167,1384,5170,1218,1654,1219,1649,1220,1648,1223,1650
9315,45422,9315,45419,9317,45441,9325,45482,34383,40068,34380,40063,34386,40068,34396,40096,595,3772,591,3772,597,3775,594,3777,23085,25902,23067,25881,23071,25896,23089,25921,775,791,776,788,778,790,777,791,742,744,743,743,743,745,746,749,1382,5172,1382,5172,1382,5177,1385,5183,1219,1649,1221,1650,1221,1651,1224,1651
9326,45515,9331,45566,9338,45625,9335,45605,34416,40133,34423,40149,34431,40166,34461,40189,595,3783,595,3787,595,3793,595,3794,23115,25947,23127,25971,23137,25987,23121,25952,778,793,780,794,780,797,781,794,746,749,747,749,751,751,750,752,1383,5189,1385,5197,1384,5207,1387,5210,1223,1654,1222,1652,1220,1655,1223,1653
9322,45515,9321,45487,9319,45497,9317,45498,34370,40067,34394,40091,34415,40111,34437,40135,595,3784,593,3782,594,3784,594,3785,23031,25845,23010,25841,23035,25869,23053,25885,777,792,777,791,776,791,777,792,748,748,748,749,747,749,743,745,1383,5190,1384,5183,1382,5184,1385,5188,1220,1655,1223,1651,1225,1653,1225,1654
9321,45515,9322,45540,9327,45574,9330,45615,34442,40147,34454,40159,34478,40205,34494,40230,595,3784,594,3788,595,3792,595,3795,23063,25898,23081,25916,23111,25949,23125,25981,778,794,779,791,780,795,779,795,744,746,744,747,744,748,747,749,1385,5188,1385,5193,1383,5201,1385,5207,1222,1653,1222,1654,1222,1657,1223,1657
9338,45658,9341,45697,9326,45597,9318,45543,34498,40244,34541,40315,34469,40199,34478,40189,596,3799,595,3805,594,3799,594,3791,23146,25999,23147,26004,23102,25939,23094,25915,783,796,783,798,777,793,777,791,748,751,750,751,746,751,743,745,1387,5216,1387,5223,1383,5204,1384,5190,1224,1660,1223,1661,1219,1655,1221,1656
9317,45527,9312,45518,9310,45510,9310,45523,34489,40181,34500,40195,34522,40212,34529,40226,593,3793,595,3794,595,3791,594,3792,23076,25906,23095,25919,23101,25933,23114,25947,775,790,778,791,777,792,778,790,741,746,743,745,743,747,742,744,1382,5185,1383,5186,1380,5186,1383,5191,1221,1653,1222,1654,1220,1656,1223,1657
9310,45541,9311,45570,9311,45599,9316,45643,34542,40251,34563,40285,34575,40312,34589,40331,594,3795,595,3799,597,3801,595,3806,23135,25973,23154,26002,23167,26020,23188,26037,778,791,777,793,779,793,781,794,744,748,746,748,746,749,747,749,1381,5193,1382,5199,1380,5203,1383,5212,1223,1659,1226,1657,1223,1659,1224,1660
9313,45619,9297,45517,9295,45498,9297,45498,34597,40321,34527,40231,34559,40257,34566,40247,599,3806,596,3796,596,3793,591,3792,23169,26004,23109,25938,23111,25937,23120,25946,782,793,779,790,781,791,779,790,747,751,743,748,744,747,741,743,1381,5212,1381,5191,1378,5182,1382,5180,1225,1661,1222,1655,1223,1655,1223,1654
9294,45481,9295,45483,9292,45498,9294,45515,34563,40247,34575,40263,34583,40270,34603,40307,596,3790,594,3791,596,3794,595,3797,23130,25955,23135,25960,23136,25967,23151,25988,778,791,776,790,777,793,778,793,742,745,743,742,743,745,746,748,1377,5178,1379,5179,1377,5182,1379,5185,1225,1656,1227,1656,1223,1656,1226,1657
9295,45543,9294,45567,9298,45611,9288,45548,34632,40347,34647,40375,34658,40411,34618,40329,595,3799,597,3804,594,3807,597,3803,23174,26015,23185,26037,23191,26047,23167,25997,780,793,780,798,781,800,780,796,745,749,747,748,747,750,747,748,1381,5191,1384,5195,1379,5204,1377,5191,1224,1659,1222,1658,1225,1660,1223,1657
9284,45492,9281,45490,9279,45483,9275,45466,34599,40302,34609,40298,34611,40306,34637,40332,595,3795,593,3795,594,3795,598,3797,23139,25957,23115,25940,23135,25963,23153,25978,777,791,777,792,778,791,775,791,745,745,744,746,744,746,744,744,1373,5173,1375,5168,1373,5168,1375,5165,1222,1653,1224,1653,1223,1652,1225,1654
9270,45447,9268,45459,9267,45484,9264,45506,34644,40335,34652,40350,34677,40395,34689,40421,596,3797,594,3798,595,3800,595,3802,23154,25985,23166,25997,23179,26021,23191,26038,777,789,777,791,781,793,779,792,744,748,743,747,747,748,747,750,1371,5170,1375,5176,1373,5180,1378,5188,1225,1658,1224,1656,1224,1659,1223,1657
9268,45531,9271,45561,9262,45493,9259,45463,34701,40451,34738,40501,34662,40402,34666,40401,596,3807,595,3811,594,3802,597,3798,23214,26073,23211,26075,23178,26017,23159,25991,780,794,781,797,780,796,777,792,749,753,753,753,748,749,747,747,1375,5191,1379,5199,1374,5183,1374,5171,1224,1658,1227,1660,1223,1653,1225,1654
9259,45463,9258,45455,9254,45447,9252,45457,34687,40418,34705,40447,34723,40473,34731,40485,594,3799,595,3798,596,3799,594,3796,23159,25998,23183,26022,23204,26042,23214,26061,778,792,778,791,777,789,778,791,748,747,746,750,744,748,747,751,1370,5170,1373,5168,1371,5167,1371,5171,1223,1654,1228,1652,1225,1653,1225,1654
9249,45473,9249,45486,9254,45511,9255,45548,34750,40519,34777,40558,34791,40581,34800,40613,594,3803,599,3806,594,3806,593,3811,23234,26086,23258,26119,23271,26134,23279,26150,780,792,779,797,781,798,781,797,746,751,749,750,749,751,749,752,1370,5175,1374,5179,1372,5184,1373,5189,1224,1655,1225,1657,1223,1656,1226,1658
9252,45517,9245,45465,9246,45454,9246,45455,34806,40595,34759,40545,34777,40553,34793,40571,595,3811,596,3805,595,3802,591,3804,23279,26134,23240,26087,23234,26079,23230,26091,782,794,778,794,777,790,777,794,751,755,746,748,747,748,747,747,1371,5186,1375,5169,1368,5164,1370,5166,1223,1657,1223,1655,1222,1654,1227,1655
9244,45455,9245,45451,9245,45473,9243,45487,34795,40575,34808,40589,34831,40631,34852,40665,597,3805,594,3803,594,3805,594,3806,23223,26081,23239,26102,23277,26143,23311,26182,778,789,775,792,775,789,779,791,745,747,747,748,746,750,744,748,1368,5163,1371,5162,1369,5166,1371,5170,1225,1652,1228,1655,1226,1654,1224,1652
9244,45505,9247,45534,9244,45509,9237,45451,34863,40690,34859,40701,34866,40686,34829,40630,595,3810,596,3813,595,3813,595,3803,23311,26190,23315,26202,23312,26183,23286,26147,776,789,777,793,775,788,771,784,746,749,746,749,747,750,743,746,1369,5172,1370,5179,1370,5176,1368,5157,1224,1653,1225,1659,1225,1655,1225,1651
9237,45437,9239,45441,9236,45432,9234,45431,34850,40640,34855,40648,34865,40659,34871,40667,594,3804,595,3804,595,3803,595,3801,23276,26139,23282,26150,23293,26161,23295,26163,770,783,769,784,769,783,773,784,745,743,739,741,739,742,740,744,1365,5149,1367,5149,1365,5150,1368,5147,1223,1649,1224,1651,1224,1649,1223,1650
9232,45454,9233,45465,9231,45484,9234,45502,34887,40699,34910,40729,34931,40763,34935,40790,595,3806,595,3807,594,3811,594,3811,23305,26178,23322,26205,23343,26231,23357,26249,771,783,773,786,772,786,773,787,742,743,742,743,746,745,743,746,1364,5150,1365,5156,1365,5159,1366,5166,1223,1651,1224,1651,1223,1653,1226,1654
9225,45493,9223,45423,9225,45406,9218,45399,34944,40767,34875,40687,34896,40687,34898,40689,597,3813,595,3805,595,3802,596,3802,23338,26227,23299,26167,23283,26154,23280,26153,775,788,769,783,767,781,767,780,745,745,740,742,738,741,739,740,1365,5165,1369,5141,1362,5132,1364,5127,1227,1653,1223,1650,1225,1647,1223,1649
9221,45382,9219,45390,9217,45394,9217,45403,34910,40697,34928,40726,34940,40746,34951,40770,594,3801,594,3801,597,3802,594,3802,23299,26169,23314,26188,23324,26202,23345,26229,767,780,767,783,770,782,769,783,736,741,736,739,738,739,739,742,1362,5127,1362,5124,1361,5127,1361,5131,1223,1647,1226,1649,1224,1649,1227,1648
9215,45407,9211,45426,9216,45453,9206,45367,34981,40815,34989,40839,35007,40871,34930,40748,595,3806,594,3806,593,3811,595,3803,23362,26252,23381,26277,23379,26279,23348,26225,773,783,773,784,773,789,771,783,742,743,740,745,744,745,742,744,1361,5135,1365,5142,1362,5147,1362,5130,1226,1650,1224,1649,1225,1651,1227,1647
9201,45321,9204,45311,9203,45297,9200,45285,34929,40735,34938,40731,34939,40731,34945,40747,594,3795,594,3795,595,3795,594,3794,23332,26196,23322,26186,23332,26202,23343,26211,769,782,766,779,767,780,767,780,739,741,738,739,738,738,735,738,1357,5113,1359,5107,1357,5103,1358,5102,1223,1647,1228,1643,1224,1644,1225,1644
9201,45287,9200,45290,9201,45298,9197,45306,34953,40756,34954,40775,34975,40808,34997,40841,597,3794,594,3796,595,3797,597,3798,23341,26214,23354,26236,23376,26261,23399,26293,768,780,767,782,767,783,769,783,735,737,738,739,738,740,739,743,1356,5102,1357,5104,1359,5109,1357,5112,1223,1642,1229,1644,1227,1644,1225,1645
9193,45315,9195,45352,9187,45285,9186,45234,35004,40868,35019,40907,34968,40820,34935,40783,598,3800,594,3805,595,3799,595,3792,23425,26322,23430,26335,23405,26276,23375,26246,772,785,773,786,770,783,767,782,740,743,743,745,743,743,736,743,1357,5119,1359,5124,1356,5114,1358,5095,1223,1647,1225,1647,1223,1645,1225,1641
9190,45219,9188,45215,9189,45207,9188,45197,34950,40775,34944,40786,34956,40797,34962,40806,594,3790,594,3795,597,3790,594,3792,23351,26218,23351,26229,23364,26238,23376,26251,767,781,769,784,769,782,768,781,738,739,736,739,736,739,737,739,1353,5088,1356,5085,1353,5083,1355,5083,1223,1643,1224,1643,1224,1640,1224,1643
9190,45209,9184,45219,9186,45227,9185,45242,34967,40827,34986,40867,35004,40897,35005,40929,593,3793,592,3792,593,3795,595,3797,23388,26277,23424,26309,23443,26337,23452,26362,767,782,772,783,770,784,771,787,733,741,738,742,742,743,742,743,1354,5087,1355,5091,1353,5099,1358,5101,1225,1641,1222,1642,1223,1642,1228,1644
9185,45271,9183,45274,9179,45205,9179,45189,35014,40949,35043,40977,34940,40867,34949,40866,595,3801,595,3801,595,3795,595,3792,23484,26386,23475,26379,23419,26306,23390,26280,775,787,775,788,772,784,770,783,744,745,747,748,742,743,739,744,1356,5109,1361,5114,1354,5092,1357,5081,1222,1644,1223,1643,1222,1639,1223,1638
9185,45186,9181,45173,9180,45167,9181,45171,34959,40874,34957,40867,34959,40882,34967,40903,596,3794,594,3792,594,3794,597,3794,23391,26287,23402,26289,23403,26291,23424,26326,772,784,769,784,772,783,771,787,738,743,739,742,742,742,741,742,1352,5081,1355,5080,1351,5079,1355,5079,1225,1642,1223,1639,1224,1638,1224,1637
9181,45187,9179,45197,9184,45215,9181,45243,34979,40927,34985,40947,34984,40971,35008,41006,595,3793,596,3796,595,3801,594,3800,23448,26354,23447,26367,23465,26390,23504,26428,774,789,774,787,774,787,777,788,741,744,743,746,744,746,745,746,1355,5085,1354,5092,1354,5095,1357,5103,1225,1639,1223,1640,1223,1641,1222,1643
9188,45274,9177,45198,9177,45172,9178,45159,35029,41056,34951,40939,34940,40911,34955,40917,595,3806,595,3800,595,3793,594,3794,23499,26426,23450,26358,23419,26327,23423,26327,777,790,777,785,771,785,773,784,746,749,745,743,739,741,738,741,1356,5107,1355,5093,1353,5080,1355,5075,1222,1646,1225,1639,1225,1637,1221,1637
9181,45151,9176,45145,9179,45151,9179,45158,34955,40923,34953,40923,34946,40922,34948,40942,595,3792,595,3791,593,3792,597,3795,23441,26347,23443,26349,23437,26349,23463,26383,772,785,770,784,771,783,772,787,739,740,737,741,738,738,741,741,1351,5076,1355,5071,1351,5075,1353,5075,1223,1636,1219,1635,1221,1634,1221,1638
9177,45175,9180,45205,9178,45231,9183,45267,34971,40969,34971,40995,34974,41012,34984,41044,594,3798,593,3801,593,3801,595,3806,23489,26415,23495,26429,23522,26459,23515,26465,772,785,773,787,774,787,778,790,741,744,742,745,744,746,745,748,1351,5083,1355,5087,1353,5094,1355,5102,1218,1638,1222,1637,1221,1640,1223,1640
9171,45172,9167,45127,9171,45116,9170,45110,34851,40857,34833,40813,34849,40826,34867,40839,595,3799,595,3794,595,3790,594,3793,23402,26320,23333,26254,23336,26260,23371,26295,774,787,770,782,768,783,767,783,744,745,742,744,741,743,742,743,1353,5088,1354,5072,1353,5068,1352,5067,1219,1637,1220,1636,1221,1634,1219,1634
9172,45109,9171,45120,9171,45127,9168,45140,34877,40861,34875,40861,34867,40863,34881,40895,595,3790,595,3792,593,3793,595,3794,23393,26310,23389,26310,23402,26330,23422,26355,771,781,769,786,768,782,770,785,740,744,741,742,739,742,740,742,1349,5063,1352,5063,1351,5068,1353,5073,1216,1632,1223,1634,1224,1633,1219,1634
9169,45161,9169,45183,9175,45224,9165,45162,34891,40911,34881,40919,34886,40950,34866,40902,593,3797,593,3799,593,3801,594,3798,23439,26383,23451,26407,23463,26416,23440,26364,773,785,773,787,774,788,773,787,742,744,745,746,744,748,746,746,1352,5078,1353,5083,1353,5091,1353,5080,1220,1632,1226,1634,1221,1636,1221,1635
9161,45097,9161,45076,9160,45072,9160,45055,34831,40851,34830,40817,34809,40799,34807,40811,595,3788,593,3785,591,3785,592,3783,23428,26344,23391,26307,23382,26307,23401,26319,771,782,768,780,767,781,767,779,737,741,737,740,735,738,738,743,1349,5061,1351,5053,1347,5050,1349,5046,1217,1632,1216,1629,1214,1628,1220,1627
9156,45049,9157,45061,9155,45071,9153,45082,34807,40806,34791,40799,34789,40813,34797,40832,591,3783,593,3783,592,3785,593,3787,23411,26328,23411,26329,23412,26345,23431,26368,767,781,768,782,771,783,771,783,735,740,738,737,736,740,739,741,1347,5046,1349,5048,1350,5054,1352,5061,1217,1631,1218,1629,1218,1632,1215,1629
9153,45108,9154,45136,9157,45150,9141,45047,34798,40854,34790,40863,34831,40935,34743,40825,591,3788,591,3791,590,3796,592,3782,23443,26393,23467,26422,23462,26412,23442,26379,772,787,774,786,774,786,769,782,740,743,741,744,744,747,741,740,1349,5066,1350,5075,1349,5079,1349,5055,1215,1630,1217,1631,1215,1636,1214,1627
9144,45015,9143,45015,9141,45005,9137,44989,34753,40814,34732,40788,34721,40773,34726,40790,593,3779,591,3780,590,3780,591,3777,23439,26359,23413,26332,23408,26333,23421,26350,768,779,766,782,766,778,764,780,735,739,735,737,735,738,735,736,1347,5043,1346,5038,1346,5037,1346,5036,1216,1625,1215,1628,1214,1626,1215,1627
9137,44999,9134,45010,9136,45022,9132,45037,34727,40790,34701,40780,34702,40804,34715,40832,589,3775,589,3779,591,3782,591,3781,23430,26354,23425,26357,23431,26375,23448,26406,765,782,769,782,770,782,773,782,734,737,737,738,737,741,739,743,1345,5040,1346,5042,1347,5048,1347,5057,1213,1625,1214,1627,1214,1626,1215,1628
9134,45067,9137,45103,9135,45089,9128,45019,34722,40859,34706,40855,34736,40903,34668,40828,591,3786,591,3789,589,3790,590,3782,23478,26441,23486,26455,23478,26433,23416,26360,772,787,775,787,773,785,769,779,740,743,742,745,741,743,737,739,1349,5064,1349,5068,1349,5070,1349,5045,1217,1629,1218,1631,1215,1631,1214,1627
9127,44996,9127,44985,9126,44985,9125,44975,34653,40810,34655,40818,34652,40830,34645,40829,590,3778,591,3778,589,3777,589,3775,23395,26354,23417,26383,23434,26396,23443,26407,765,779,765,777,763,778,764,775,739,738,736,735,735,735,733,735,1345,5040,1348,5040,1345,5040,1346,5037,1211,1627,1215,1627,1211,1625,1213,1626
9126,44985,9125,45013,9126,45039,9129,45076,34631,40820,34642,40855,34626,40857,34615,40864,589,3777,590,3781,589,3783,591,3787,23456,26430,23474,26453,23475,26464,23481,26478,763,776,764,778,762,777,763,775,733,737,737,737,737,737,737,738,1344,5040,1347,5047,1343,5049,1351,5057,1213,1629,1215,1629,1212,1628,1212,1628
9140,45122,9140,45115,9127,45035,9122,45008,34614,40874,34655,40939,34541,40780,34476,40709,591,3790,589,3789,588,3783,590,3779,23497,26505,23506,26506,23469,26466,23394,26431,765,780,765,777,762,776,763,776,738,741,738,741,735,737,734,737,1347,5064,1351,5069,1347,5050,1350,5043,1215,1631,1215,1630,1216,1627,1211,1626
9126,45014,9123,45019,9126,45027,9129,45047,34487,40734,34525,40781,34549,40825,34559,40847,589,3783,591,3782,592,3783,588,3783,23383,26423,23400,26435,23423,26443,23431,26451,766,774,762,775,763,771,761,775,735,739,733,735,731,737,732,735,1345,5044,1347,5044,1346,5043,1349,5050,1212,1626,1214,1628,1213,1628,1213,1629
9128,45075,9132,45110,9136,45147,9145,45197,34574,40881,34583,40913,34585,40934,34604,40991,588,3788,587,3791,588,3795,592,3798,23440,26465,23454,26493,23473,26522,23478,26541,763,776,765,775,762,776,763,776,733,738,733,736,733,736,735,738,1345,5055,1350,5062,1349,5070,1351,5079,1213,1630,1213,1630,1210,1634,1217,1633
9131,45131,9130,45094,9134,45087,9135,45095,34579,40945,34561,40919,34570,40922,34581,40946,590,3792,588,3789,589,3786,587,3789,23452,26487,23429,26461,23412,26458,23423,26475,759,773,757,767,753,765,752,764,731,734,726,728,723,727,723,727,1351,5069,1350,5051,1348,5047,1349,5049,1213,1632,1214,1630,1213,1633,1213,1630
9134,45094,9134,45106,9136,45125,9133,45151,34585,40950,34582,40956,34572,40966,34585,40994,587,3787,590,3791,589,3795,591,3796,23429,26474,23429,26485,23440,26502,23455,26530,750,761,748,765,749,762,748,763,721,724,722,721,719,721,722,721,1350,5047,1351,5050,1348,5055,1351,5063,1215,1632,1216,1634,1216,1632,1216,1634
9136,45179,9141,45221,9138,45225,9133,45154,34587,41013,34587,41035,34619,41085,34539,40983,590,3798,591,3802,588,3808,588,3795,23472,26551,23486,26575,23472,26561,23427,26506,749,761,749,761,750,761,747,756,719,722,721,720,719,721,713,718,1349,5068,1353,5079,1352,5078,1352,5059,1215,1635,1217,1637,1214,1637,1214,1632
9133,45142,9137,45140,9136,45132,9134,45131,34549,40985,34546,40970,34552,40981,34561,40995,588,3796,591,3793,587,3793,587,3796,23407,26485,23397,26477,23421,26493,23424,26507,741,753,739,749,740,753,740,755,710,713,711,713,713,711,711,713,1348,5050,1352,5047,1348,5048,1351,5046,1213,1632,1217,1632,1213,1634,1215,1635
9133,45135,9130,45156,9129,45183,9133,45204,34551,41005,34555,41024,34571,41066,34581,41089,589,3797,589,3799,588,3801,586,3808,23415,26502,23426,26533,23444,26556,23463,26578,739,750,739,754,740,755,744,758,711,714,713,715,713,714,713,717,1351,5053,1353,5059,1351,5067,1355,5071,1217,1634,1216,1635,1217,1636,1215,1638
9136,45241,9130,45237,9130,45161,9128,45157,34584,41111,34595,41116,34521,41041,34534,41028,586,3808,588,3807,587,3800,587,3795,23475,26592,23453,26576,23429,26536,23410,26505,741,757,741,753,736,748,735,745,718,719,715,718,709,709,706,708,1353,5080,1355,5083,1351,5058,1354,5050,1214,1639,1217,1638,1215,1635,1216,1633
9128,45154,9127,45152,9127,45147,9123,45158,34519,41014,34517,41027,34531,41045,34523,41051,588,3798,588,3797,588,3797,591,3801,23391,26507,23405,26525,23406,26521,23407,26532,729,743,726,741,726,738,721,734,705,705,702,702,697,700,695,696,1349,5047,1353,5045,1350,5047,1352,5049,1215,1635,1217,1633,1215,1631,1216,1634
9127,45175,9127,45193,9125,45214,9123,45242,34529,41074,34541,41107,34544,41126,34554,41161,589,3801,586,3803,586,3805,589,3809,23417,26546,23427,26566,23439,26587,23452,26614,718,730,715,725,709,723,705,718,691,696,689,690,685,686,682,682,1351,5053,1352,5060,1352,5066,1354,5074,1215,1637,1216,1635,1213,1636,1217,1637
9127,45258,9119,45183,9121,45169,9123,45175,34587,41206,34489,41089,34493,41087,34494,41083,586,3813,586,3802,585,3799,585,3803,23442,26603,23403,26546,23382,26521,23371,26515,702,715,695,707,691,703,689,703,679,679,673,675,667,670,664,665,1354,5080,1354,5060,1350,5050,1352,5045,1213,1638,1215,1633,1213,1633,1214,1633
9123,45168,9123,45171,9125,45180,9123,45199,34495,41092,34499,41102,34497,41119,34505,41137,587,3803,585,3801,585,3803,587,3803,23382,26530,23377,26532,23385,26543,23405,26572,688,697,685,699,684,699,683,695,663,667,661,661,658,661,661,663,1350,5048,1351,5047,1351,5051,1353,5053,1213,1632,1216,1633,1213,1633,1216,1633
9123,45221,9127,45247,9129,45269,9133,45315,34514,41175,34524,41198,34526,41228,34539,41260,585,3807,585,3809,587,3813,585,3819,23413,26595,23428,26619,23449,26651,23450,26650,682,696,681,694,682,692,679,692,660,662,658,661,656,658,653,657,1351,5061,1355,5067,1353,5075,1357,5084,1213,1638,1215,1636,1212,1636,1214,1638
9125,45266,9127,45226,9126,45231,9131,45236,34497,41201,34474,41175,34479,41191,34495,41200,585,3812,579,3807,584,3808,585,3808,23419,26604,23396,26575,23385,26579,23402,26597,675,688,670,682,668,681,667,680,651,655,645,648,644,645,641,645,1355,5077,1356,5062,1352,5059,1355,5061,1213,1636,1213,1632,1213,1631,1215,1634
9131,45234,9130,45236,9133,45255,9132,45273,34486,41201,34485,41202,34485,41225,34496,41250,585,3810,583,3810,582,3812,582,3814,23404,26600,23401,26607,23407,26625,23424,26647,665,679,661,674,659,673,658,671,639,641,637,641,636,637,633,636,1353,5061,1355,5063,1354,5066,1359,5073,1212,1633,1215,1632,1217,1636,1215,1635
9135,45302,9137,45326,9143,45370,9132,45311,34493,41269,34503,41303,34519,41335,34471,41269,584,3816,584,3821,585,3823,585,3819,23418,26645,23443,26686,23431,26683,23402,26634,654,669,654,667,652,664,649,661,629,634,627,627,626,629,624,628,1358,5078,1357,5085,1357,5094,1358,5083,1215,1637,1214,1638,1215,1639,1216,1635
9132,45272,9133,45269,9135,45273,9135,45271,34451,41237,34468,41263,34474,41263,34466,41260,585,3813,583,3817,583,3815,583,3815,23355,26597,23366,26610,23385,26622,23375,26625,646,657,644,657,644,658,645,658,619,623,617,619,616,618,615,617,1354,5067,1359,5067,1357,5069,1357,5069,1213,1635,1213,1633,1215,1634,1213,1636
9137,45281,9138,45297,9143,45329,9143,45353,34463,41270,34461,41279,34478,41315,34478,41337,584,3815,583,3818,586,3821,583,3823,23374,26627,23369,26632,23380,26650,23396,26671,644,658,643,656,645,658,647,661,617,617,616,618,618,620,617,619,1353,5071,1359,5076,1355,5082,1359,5087,1212,1635,1215,1636,1214,1639,1215,1641
9148,45387,9147,45391,9140,45323,9144,45297,34479,41354,34508,41385,34431,41287,34434,41271,587,3825,583,3828,584,3819,583,3819,23418,26703,23421,26709,23383,26648,23353,26621,647,660,646,658,640,655,643,653,619,620,618,619,615,617,614,616,1357,5098,1361,5102,1358,5081,1359,5073,1215,1638,1216,1640,1215,1635,1214,1636
9147,45304,9150,45302,9150,45295,9148,45311,34438,41270,34436,41271,34436,41278,34435,41291,584,3820,585,3815,584,3817,584,3819,23353,26628,23360,26636,23361,26639,23363,26659,640,653,640,654,642,655,642,655,614,615,615,618,611,616,615,617,1358,5070,1357,5071,1354,5070,1358,5074,1218,1637,1216,1635,1215,1635,1216,1635
9151,45323,9153,45347,9158,45370,9156,45402,34449,41319,34463,41359,34464,41374,34471,41399,583,3821,583,3823,585,3828,583,3828,23381,26683,23401,26712,23412,26721,23415,26740,642,656,644,658,645,657,644,659,617,620,617,618,619,619,619,622,1359,5078,1360,5085,1358,5090,1360,5098,1217,1637,1215,1640,1215,1643,1217,1640
9151,45365,9150,45305,9151,45283,9153,45285,34469,41376,34413,41298,34412,41281,34408,41279,585,3828,582,3818,583,3814,588,3815,23415,26713,23380,26674,23357,26649,23353,26658,645,658,650,663,649,662,648,662,619,619,623,625,622,624,623,625,1359,5096,1360,5074,1357,5066,1358,5065,1215,1638,1217,1634,1221,1635,1217,1635
9157,45279,9155,45277,9158,45285,9155,45293,34404,41284,34406,41285,34425,41307,34437,41341,585,3815,584,3816,586,3819,583,3817,23358,26655,23356,26658,23341,26662,23366,26688,650,663,649,662,649,661,651,661,620,623,622,622,622,623,621,625,1354,5063,1357,5063,1357,5068,1359,5073,1216,1634,1217,1637,1217,1635,1217,1637
9155,45315,9157,45326,9158,45359,9152,45319,34449,41372,34441,41388,34448,41413,34438,41382,585,3820,586,3823,585,3827,586,3823,23386,26714,23396,26736,23409,26751,23400,26727,651,666,651,664,651,665,651,663,625,624,623,626,628,627,625,626,1357,5077,1361,5084,1357,5092,1360,5088,1216,1639,1223,1639,1217,1640,1220,1638
9154,45252,9158,45237,9157,45233,9153,45213,34382,41323,34389,41309,34372,41290,34377,41303,585,3817,587,3814,584,3816,587,3812,23365,26679,23331,26646,23319,26643,23334,26657,646,659,647,659,646,659,645,659,619,622,618,620,617,620,620,621,1355,5067,1359,5058,1355,5055,1357,5051,1217,1633,1217,1635,1214,1633,1218,1635
9154,45210,9153,45211,9155,45223,9153,45237,34385,41304,34369,41309,34379,41342,34390,41372,587,3810,583,3812,583,3815,584,3817,23339,26660,23340,26667,23359,26695,23375,26719,647,659,644,657,646,659,646,659,619,619,618,622,619,622,620,625,1355,5055,1359,5055,1356,5062,1360,5068,1216,1636,1219,1635,1215,1638,1220,1636
9155,45249,9155,45271,9157,45291,9146,45209,34391,41387,34391,41400,34421,41446,34322,41342,583,3820,582,3822,584,3826,583,3815,23389,26739,23407,26773,23392,26759,23367,26717,649,660,647,661,648,662,646,660,619,622,621,626,622,625,619,622,1357,5073,1360,5081,1361,5085,1360,5067,1217,1637,1217,1637,1218,1639,1217,1636
9152,45180,9151,45173,9151,45157,9155,45150,34326,41326,34315,41314,34315,41317,34320,41331,581,3814,583,3811,583,3810,583,3810,23330,26674,23310,26658,23325,26670,23329,26682,642,657,644,657,645,659,643,657,616,620,617,622,617,621,616,622,1357,5055,1358,5051,1356,5048,1357,5047,1220,1634,1218,1633,1217,1634,1219,1633
9153,45153,9151,45153,9152,45177,9153,45187,34316,41338,34314,41361,34334,41402,34337,41423,584,3810,583,3813,582,3814,585,3817,23337,26700,23353,26721,23370,26756,23387,26773,645,659,645,658,646,660,641,660,618,621,617,617,618,621,622,622,1356,5051,1358,5057,1361,5063,1359,5068,1217,1634,1218,1632,1220,1634,1220,1635
9154,45218,9158,45259,9152,45200,9153,45157,34343,41449,34359,41486,34310,41421,34288,41395,585,3819,583,3824,583,3818,583,3815,23393,26794,23386,26795,23365,26747,23321,26710,649,662,648,663,650,660,644,658,623,623,622,624,621,623,620,620,1358,5076,1362,5085,1358,5073,1358,5058,1216,1639,1219,1642,1218,1637,1218,1633
9153,45146,9157,45144,9158,45132,9156,45139,34295,41404,34301,41427,34301,41429,34291,41427,582,3812,583,3814,581,3812,582,3813,23315,26711,23332,26731,23335,26732,23333,26739,643,659,645,659,642,657,647,657,619,621,616,618,616,618,617,619,1357,5054,1361,5055,1359,5055,1360,5057,1217,1635,1217,1636,1218,1634,1218,1633
9159,45149,9159,45167,9160,45193,9163,45216,34292,41443,34307,41479,34305,41491,34303,41514,585,3815,586,3815,583,3818,583,3820,23338,26756,23352,26775,23348,26782,23371,26810,645,658,646,658,646,662,647,659,618,617,622,621,619,623,621,624,1357,5060,1360,5065,1358,5070,1361,5078,1217,1637,1219,1636,1216,1637,1221,1637
9168,45245,9162,45187,9165,45158,9171,45156,34331,41555,34253,41453,34244,41433,34258,41446,584,3824,583,3817,586,3813,583,3813,23357,26804,23319,26746,23289,26719,23292,26713,650,660,647,658,640,654,641,651,620,623,617,619,612,615,612,613,1360,5085,1363,5069,1357,5057,1360,5055,1219,1640,1218,1637,1217,1635,1217,1635
9173,45156,9169,45147,9170,45159,9173,45175,34258,41442,34261,41453,34253,41463,34254,41486,583,3814,585,3814,582,3815,584,3819,23292,26725,23287,26734,23299,26742,23307,26766,638,653,637,650,638,650,637,653,611,616,612,615,612,613,611,612,1358,5053,1359,5054,1356,5057,1360,5063,1218,1636,1223,1635,1217,1636,1222,1638
9177,45193,9173,45211,9180,45243,9172,45215,34263,41513,34267,41530,34263,41551,34251,41515,584,3823,582,3826,582,3827,583,3824,23315,26780,23325,26796,23327,26805,23303,26768,637,650,638,652,638,653,638,650,609,612,610,613,611,613,611,612,1358,5070,1362,5078,1363,5085,1363,5081,1218,1638,1218,1639,1223,1641,1220,1638
9174,45153,9175,45139,9178,45141,9180,45133,34197,41447,34203,41434,34201,41426,34197,41437,582,3816,582,3815,583,3814,583,3814,23267,26717,23236,26693,23234,26694,23240,26699,633,650,633,645,631,642,630,645,606,608,605,608,600,609,606,606,1362,5059,1360,5053,1359,5047,1359,5046,1220,1637,1221,1635,1220,1635,1220,1637
9186,45136,9182,45149,9184,45157,9183,45178,34201,41443,34195,41453,34205,41480,34217,41518,585,3814,584,3818,583,3820,583,3822,23249,26712,23250,26718,23257,26740,23265,26759,632,645,630,643,631,643,632,648,605,605,606,603,606,607,606,606,1357,5047,1359,5050,1359,5058,1360,5061,1218,1637,1219,1637,1218,1637,1221,1638
9185,45199,9188,45233,9183,45158,9184,45119,34217,41533,34227,41565,34150,41447,34133,41417,583,3823,583,3827,583,3819,586,3816,23283,26783,23272,26770,23233,26716,23208,26683,632,645,633,646,631,645,627,640,606,608,605,608,604,607,602,603,1359,5071,1363,5078,1358,5059,1359,5043,1219,1639,1219,1641,1219,1637,1222,1636
9188,45113,9193,45109,9192,45107,9195,45118,34131,41398,34124,41396,34133,41417,34130,41418,583,3814,582,3816,582,3812,582,3815,23184,26665,23187,26672,23197,26682,23193,26684,626,638,625,639,625,639,627,638,599,602,599,601,599,602,599,602,1357,5039,1358,5039,1356,5038,1359,5042,1218,1634,1220,1636,1221,1637,1220,1636
9197,45124,9196,45142,9199,45161,9199,45182,34123,41421,34132,41458,34147,41482,34137,41500,583,3815,582,3819,583,3822,582,3821,23187,26690,23189,26705,23209,26730,23228,26755,625,639,627,642,627,642,627,642,600,602,601,602,601,603,601,603,1358,5045,1361,5050,1358,5059,1363,5062,1222,1639,1222,1639,1219,1639,1221,1642
9203,45222,9196,45155,9199,45118,9202,45118,34155,41543,34088,41443,34074,41425,34073,41414,584,3828,582,3819,588,3816,581,3815,23223,26761,23207,26714,23179,26689,23162,26673,629,643,625,639,623,636,623,635,603,604,600,603,597,599,597,599,1359,5073,1362,5061,1357,5042,1362,5040,1220,1643,1222,1637,1219,1636,1221,1635
9210,45123,9210,45130,9209,45132,9214,45153,34069,41421,34075,41432,34067,41433,34067,41445,587,3815,583,3816,584,3816,584,3819,23177,26694,23182,26703,23178,26705,23185,26719,623,635,623,640,623,638,625,638,598,599,597,599,600,599,598,600,1356,5040,1359,5039,1356,5042,1359,5047,1221,1635,1221,1637,1221,1637,1222,1639
9215,45179,9213,45193,9216,45219,9219,45253,34079,41479,34087,41510,34090,41540,34074,41527,584,3821,584,3821,582,3825,584,3829,23198,26739,23216,26767,23235,26789,23212,26789,628,638,625,638,625,641,627,641,600,601,599,603,604,603,602,605,1359,5057,1360,5062,1359,5071,1360,5078,1222,1637,1223,1639,1221,1640,1223,1645
9215,45247,9215,45197,9218,45188,9223,45211,34079,41541,34034,41488,34041,41495,34038,41504,583,3830,585,3821,582,3821,581,3823,23225,26789,23189,26743,23163,26723,23159,26727,627,639,622,636,622,633,622,635,602,607,598,601,596,603,595,600,1361,5079,1359,5060,1361,5055,1363,5057,1221,1641,1222,1641,1225,1639,1223,1642
9231,45209,9228,45213,9233,45231,9233,45261,34035,41506,34029,41510,34032,41519,34030,41547,583,3821,584,3823,584,3824,582,3827,23159,26728,23162,26735,23162,26742,23173,26767,619,636,621,633,625,637,628,638,595,597,597,599,603,602,598,601,1360,5059,1360,5061,1359,5064,1363,5070,1225,1641,1227,1639,1223,1642,1224,1646
9237,45279,9235,45309,9238,45344,9234,45318,34042,41576,34041,41598,34025,41604,34027,41598,584,3833,583,3834,585,3835,582,3837,23181,26776,23173,26785,23179,26802,23173,26777,624,636,626,638,625,640,623,639,598,602,600,603,603,607,599,601,1361,5079,1364,5089,1363,5092,1365,5092,1221,1641,1225,1644,1223,1647,1222,1646
9235,45279,9239,45277,9241,45289,9245,45291,33969,41532,33975,41529,33980,41551,33975,41551,582,3831,583,3828,581,3829,582,3830,23123,26724,23114,26715,23126,26738,23121,26735,622,633,622,635,619,634,620,633,596,598,595,597,595,596,593,596,1362,5073,1364,5067,1361,5073,1364,5072,1224,1642,1220,1643,1224,1643,1227,1645
9240,45301,9245,45321,9246,45342,9247,45369,33973,41549,33957,41551,33963,41581,33963,41595,582,3831,583,3833,585,3837,581,3836,23122,26737,23112,26739,23135,26770,23133,26781,618,632,619,635,623,633,621,635,592,596,598,597,597,600,598,604,1362,5076,1363,5081,1362,5091,1367,5097,1224,1645,1225,1647,1224,1647,1230,1648
9251,45402,9257,45444,9251,45367,9249,45345,33958,41605,33990,41671,33910,41559,33907,41544,589,3843,583,3847,584,3836,584,3833,23143,26799,23133,26800,23103,26747,23078,26714,624,638,626,639,625,636,623,637,600,603,602,606,602,603,603,602,1365,5104,1369,5116,1365,5095,1363,5084,1226,1651,1224,1651,1223,1647,1226,1646
9252,45351,9258,45355,9257,45360,9258,45375,33908,41530,33907,41527,33911,41545,33900,41542,583,3835,582,3834,583,3837,583,3834,23066,26705,23085,26723,23097,26737,23099,26750,625,640,629,641,633,646,637,653,601,603,605,609,611,616,614,617,1363,5081,1362,5081,1361,5081,1365,5085,1226,1645,1224,1646,1224,1646,1227,1650
9262,45392,9259,45413,9262,45434,9260,45454,33891,41551,33907,41589,33900,41599,33887,41612,579,3835,585,3839,583,3842,586,3846,23106,26765,23132,26795,23144,26815,23153,26837,644,659,649,665,652,667,657,671,621,624,625,629,630,632,638,637,1363,5090,1365,5094,1363,5105,1366,5115,1225,1651,1227,1654,1227,1652,1229,1654
9260,45452,9255,45383,9259,45371,9259,45372,33915,41640,33828,41531,33824,41503,33811,41476,584,3849,583,3837,584,3836,582,3835,23146,26818,23117,26775,23079,26740,23070,26733,660,674,659,671,661,674,663,674,640,645,638,642,639,640,640,643,1365,5117,1366,5095,1359,5086,1365,5083,1228,1654,1228,1651,1227,1649,1229,1651
9262,45357,9259,45364,9265,45379,9266,45393,33820,41488,33827,41507,33798,41485,33796,41500,582,3832,582,3836,583,3835,583,3835,23069,26726,23076,26739,23081,26753,23109,26780,665,678,666,681,669,685,675,688,642,647,645,647,650,650,652,655,1359,5084,1366,5085,1362,5090,1365,5095,1227,1649,1229,1649,1228,1649,1228,1651
9263,45419,9262,45435,9265,45458,9264,45459,33800,41527,33791,41544,33785,41547,33808,41582,586,3838,583,3841,584,3841,584,3846,23131,26811,23144,26834,23165,26850,23160,26855,677,692,681,696,685,698,688,697,658,661,661,663,664,668,667,671,1361,5100,1364,5106,1364,5116,1367,5119,1227,1654,1229,1655,1227,1657,1228,1655
9258,45392,9260,45364,9259,45355,9258,45346,33717,41476,33708,41447,33687,41420,33679,41425,583,3834,585,3830,584,3834,583,3829,23123,26799,23095,26766,23088,26769,23116,26788,687,701,687,700,689,701,691,704,666,670,668,670,668,670,669,670,1361,5097,1365,5089,1360,5091,1365,5093,1227,1653,1229,1648,1227,1650,1229,1650
9261,45347,9257,45359,9257,45376,9257,45391,33673,41422,33645,41412,33643,41425,33647,41455,584,3830,583,3831,581,3833,582,3836,23116,26790,23110,26795,23119,26807,23133,26833,693,706,695,707,694,709,696,710,670,675,672,673,673,675,674,675,1363,5094,1364,5099,1364,5105,1365,5111,1228,1651,1229,1652,1227,1652,1229,1654
9253,45405,9254,45428,9253,45431,9246,45383,33632,41457,33618,41459,33655,41516,33552,41403,582,3838,581,3840,582,3844,582,3835,23139,26843,23147,26871,23151,26874,23129,26836,697,710,700,712,696,709,689,702,675,676,675,678,676,683,671,672,1364,5122,1369,5129,1367,5139,1369,5131,1228,1653,1230,1656,1235,1656,1231,1651
9249,45347,9250,45384,9257,45383,9249,45362,33529,41369,33529,41370,33509,41353,33484,41343,583,3843,584,3858,583,3852,583,3850,23088,26790,23040,26754,23053,26763,23061,26773,685,696,679,693,677,691,677,689,666,668,662,665,656,663,659,661,1367,5130,1373,5138,1370,5135,1371,5137,1230,1652,1230,1652,1229,1651,1231,1648
9246,45359,9246,45383,9248,45407,9244,45485,33454,41323,33433,41332,33417,41323,33315,41155,584,3850,585,3850,583,3856,584,3871,23090,26808,23091,26831,23096,26830,22941,26785,675,689,675,688,676,688,669,683,658,660,660,663,661,662,660,662,1371,5141,1374,5150,1372,5162,1379,5197,1228,1649,1230,1651,1228,1650,1231,1649
9259,45575,9262,45574,9259,45493,9266,45491,32935,40847,32802,40809,32722,40851,32687,40835,586,3887,589,3886,586,3875,584,3865,23454,27523,23802,27933,24492,28633,24773,28777,669,683,669,683,664,678,666,680,656,664,652,653,639,639,633,634,1385,5208,1383,5201,1379,5177,1378,5163,1220,1643,1223,1645,1227,1647,1226,1647
9281,45540,9288,45567,9292,45591,9297,45607,32737,40887,32810,40962,32835,40987,32836,41010,586,3858,587,3857,585,3855,585,3858,24624,28576,24594,28509,24552,28443,24564,28452,667,681,667,681,668,685,672,685,633,635,634,633,634,635,633,636,1373,5161,1376,5161,1373,5161,1377,5163,1229,1653,1230,1655,1230,1657,1231,1657
9299,45645,9305,45673,9303,45699,9304,45722,32825,41025,32815,41033,32803,41039,32851,41105,589,3861,585,3865,586,3868,585,3871,24582,28460,24559,28440,24548,28415,24523,28373,671,686,667,682,669,683,670,681,635,635,632,634,633,636,632,633,1373,5169,1377,5176,1374,5183,1378,5184,1231,1658,1229,1657,1230,1658,1230,1659
9296,45643,9300,45632,9303,45644,9305,45637,32799,41013,32830,41025,32861,41050,32895,41082,586,3862,587,3860,585,3860,587,3860,24449,28257,24317,28098,24252,28015,24201,27938,665,678,665,678,663,677,665,677,629,632,626,630,629,633,631,632,1373,5162,1375,5155,1370,5153,1372,5152,1227,1654,1228,1657,1229,1655,1231,1653
9305,45633,9303,45641,9303,45663,9307,45687,32921,41099,32926,41108,32944,41129,32958,41145,583,3859,588,3859,585,3860,584,3866,24129,27854,24071,27795,24013,27738,23939,27669,662,678,663,678,665,680,670,681,629,633,632,633,634,638,635,637,1370,5152,1371,5158,1370,5161,1374,5165,1228,1653,1229,1652,1228,1653,1229,1657
9306,45709,9304,45718,9299,45623,9298,45595,32951,41138,32986,41173,32908,41045,32919,41017,583,3869,587,3874,590,3863,584,3860,23858,27597,23756,27499,23654,27370,23587,27299,667,682,668,684,667,678,663,679,638,641,643,643,641,644,640,641,1369,5174,1374,5176,1369,5158,1373,5146,1229,1655,1230,1655,1227,1650,1227,1651
9303,45599,9301,45588,9309,45585,9305,45583,32915,40994,32905,40977,32917,40983,32906,40973,583,3856,583,3855,585,3851,584,3851,23533,27245,23511,27231,23510,27219,23485,27207,665,681,663,685,667,681,667,685,640,643,642,643,645,646,644,650,1367,5146,1368,5139,1366,5141,1369,5141,1228,1649,1229,1649,1228,1651,1229,1649
9306,45598,9303,45608,9303,45617,9302,45639,32902,40976,32917,41005,32916,41016,32923,41037,584,3852,586,3854,584,3853,584,3855,23469,27199,23479,27215,23479,27227,23464,27210,670,687,671,687,674,691,677,691,647,648,647,649,650,651,653,653,1367,5145,1368,5147,1367,5155,1370,5163,1227,1651,1231,1651,1229,1653,1230,1651
9297,45559,9297,45505,9301,45487,9299,45471,32872,40937,32858,40903,32857,40867,32839,40853,586,3849,583,3840,586,3837,581,3836,23424,27142,23402,27103,23357,27065,23354,27069,676,688,674,686,675,685,671,686,651,655,647,649,650,653,648,650,1366,5149,1367,5130,1368,5123,1367,5125,1227,1647,1228,1645,1227,1645,1226,1646
9297,45449,9298,45447,9296,45447,9291,45444,32844,40859,32844,40857,32829,40853,32835,40879,587,3831,584,3832,584,3833,589,3833,23370,27078,23361,27075,23375,27098,23397,27122,672,687,671,687,675,685,673,687,650,650,648,649,649,653,649,650,1364,5123,1364,5124,1363,5126,1363,5133,1227,1645,1229,1647,1226,1644,1229,1644
9287,45447,9287,45454,9285,45473,9279,45391,32843,40891,32840,40903,32841,40931,32774,40824,583,3834,585,3833,583,3838,584,3829,23415,27145,23414,27152,23399,27140,23359,27074,673,688,675,688,677,690,675,688,650,652,649,651,650,653,651,650,1365,5137,1365,5147,1365,5153,1365,5137,1226,1644,1228,1643,1225,1648,1228,1643
9278,45345,9277,45327,9275,45318,9275,45300,32733,40757,32668,40657,32674,40673,32702,40709,584,3823,583,3825,581,3825,579,3821,23289,26994,23139,26856,23136,26863,23180,26895,671,685,671,683,670,682,668,681,646,649,649,651,648,652,647,651,1362,5123,1364,5119,1358,5117,1364,5117,1223,1641,1226,1642,1225,1638,1224,1637
9272,45297,9276,45299,9274,45316,9278,45334,32717,40729,32728,40748,32743,40791,32763,40829,582,3820,583,3816,580,3819,582,3819,23208,26927,23222,26951,23235,26965,23253,26985,667,682,670,683,671,685,679,688,647,649,649,648,651,655,653,658,1360,5117,1362,5121,1361,5125,1363,5129,1225,1636,1223,1636,1221,1635,1220,1637
9279,45345,9278,45376,9271,45304,9265,45253,32771,40852,32786,40897,32737,40809,32711,40773,582,3821,582,3822,581,3818,582,3813,23266,27010,23247,26999,23215,26939,23163,26887,681,691,684,694,681,696,678,691,657,658,659,665,661,661,659,658,1359,5135,1361,5139,1358,5131,1359,5117,1219,1637,1221,1637,1219,1636,1221,1634
9263,45236,9262,45228,9260,45196,9255,45182,32716,40773,32710,40779,32695,40767,32699,40772,581,3811,581,3810,581,3808,581,3807,23155,26886,23158,26895,23150,26887,23152,26893,679,691,679,695,682,693,681,696,656,660,658,659,658,660,663,661,1356,5111,1359,5113,1355,5110,1357,5110,1219,1633,1220,1635,1220,1635,1221,1634
9250,45189,9251,45195,9248,45203,9246,45211,32705,40799,32709,40818,32701,40823,32703,40841,581,3807,581,3811,582,3812,580,3813,23163,26911,23156,26913,23146,26908,23150,26927,683,699,684,701,687,701,689,703,664,663,663,665,665,667,665,668,1355,5117,1359,5121,1358,5126,1362,5135,1218,1634,1220,1638,1218,1637,1221,1638
9243,45215,9238,45130,9237,45110,9239,45107,32737,40875,32648,40761,32657,40757,32664,40756,580,3814,581,3805,580,3802,579,3800,23139,26911,23089,26849,23068,26830,23067,26833,691,706,688,701,687,702,689,701,668,670,667,667,665,666,666,669,1359,5141,1360,5120,1356,5111,1360,5113,1219,1637,1219,1635,1218,1635,1217,1634
9237,45098,9236,45085,9237,45100,9234,45103,32660,40756,32667,40762,32661,40764,32667,40787,579,3799,580,3798,584,3798,579,3799,23068,26828,23061,26825,23054,26825,23055,26840,690,703,691,705,693,709,696,710,666,671,667,669,671,671,669,673,1357,5108,1359,5111,1357,5109,1359,5114,1218,1634,1218,1631,1215,1634,1216,1634
9232,45119,9231,45132,9234,45164,9228,45117,32685,40823,32678,40833,32687,40855,32675,40817,580,3803,579,3805,580,3806,580,3804,23054,26848,23053,26855,23043,26863,23026,26819,696,710,700,716,704,717,702,715,672,675,676,678,679,682,680,683,1359,5119,1359,5125,1358,5133,1360,5129,1217,1633,1216,1636,1215,1635,1213,1630
9222,45045,9225,45036,9223,45033,9222,45007,32635,40753,32639,40735,32624,40717,32618,40708,580,3795,579,3792,578,3792,579,3789,22998,26780,22961,26747,22940,26737,22940,26732,700,712,701,713,697,717,699,714,676,679,676,680,677,678,678,678,1356,5107,1358,5101,1357,5099,1357,5095,1213,1628,1211,1627,1215,1628,1215,1627
9221,45007,9219,45013,9215,45013,9216,45025,32616,40711,32603,40703,32618,40737,32627,40762,577,3790,577,3790,579,3791,577,3794,22923,26721,22911,26719,22930,26743,22931,26757,700,717,708,717,704,718,707,721,677,680,678,681,685,683,684,686,1356,5099,1358,5102,1357,5106,1359,5111,1211,1626,1210,1627,1209,1626,1211,1627
9212,45038,9211,45055,9207,45010,9200,44930,32619,40773,32615,40787,32589,40725,32625,40739,578,3794,579,3799,577,3794,578,3785,22928,26762,22908,26749,22878,26700,22701,26533,710,721,711,727,712,725,706,719,687,689,690,690,689,691,685,687,1360,5118,1359,5125,1360,5121,1357,5104,1209,1630,1212,1631,1212,1628,1210,1625
9201,44917,9204,44910,9204,44898,9203,44894,32659,40724,32608,40678,32573,40653,32556,40635,577,3782,577,3783,578,3782,579,3780,22576,26458,22623,26499,22705,26555,22739,26573,705,720,709,725,711,721,709,723,684,686,684,686,686,687,687,690,1356,5097,1355,5093,1354,5092,1356,5092,1209,1620,1209,1623,1209,1623,1211,1625
9198,44897,9198,44909,9192,44909,9189,44918,32533,40627,32534,40653,32550,40680,32543,40686,578,3781,577,3780,576,3782,576,3783,22741,26574,22762,26603,22771,26615,22785,26640,708,721,710,725,712,727,712,727,690,689,689,695,691,694,692,695,1355,5095,1359,5103,1357,5109,1361,5115,1210,1623,1211,1624,1212,1628,1211,1628
9183,44909,9179,44907,9169,44811,9175,44803,32545,40713,32567,40757,32470,40623,32474,40612,576,3784,578,3791,578,3783,575,3777,22807,26666,22803,26673,22769,26608,22737,26571,715,729,715,727,711,722,709,721,694,696,695,696,693,693,691,695,1358,5127,1361,5140,1361,5122,1363,5112,1210,1631,1211,1631,1209,1627,1211,1625
9180,44825,9180,44817,9182,44834,9183,44845,32473,40599,32458,40579,32466,40589,32455,40588,575,3777,576,3776,575,3775,577,3775,22727,26564,22711,26553,22717,26563,22721,26570,708,722,707,721,708,720,709,722,689,693,691,693,689,695,690,694,1360,5110,1359,5107,1359,5104,1359,5109,1211,1627,1211,1625,1212,1626,1210,1627
9188,44868,9185,44893,9188,44915,9191,44946,32457,40605,32466,40635,32470,40664,32473,40689,578,3779,578,3783,575,3782,576,3785,22728,26586,22741,26612,22761,26641,22775,26661,710,724,711,725,710,727,712,727,691,697,693,694,693,695,695,700,1357,5111,1359,5116,1358,5124,1359,5131,1210,1628,1211,1631,1211,1631,1210,1631
9191,44976,9194,44982,9187,44921,9187,44916,32476,40699,32501,40731,32435,40646,32439,40653,575,3789,576,3790,578,3785,577,3783,22787,26676,22775,26666,22727,26607,22705,26589,714,728,715,728,713,723,709,720,696,699,697,700,694,695,691,692,1361,5137,1362,5142,1358,5121,1359,5117,1212,1631,1213,1633,1210,1631,1211,1631
9188,44923,9187,44923,9191,44923,9188,44951,32438,40649,32430,40644,32431,40651,32425,40657,576,3783,576,3782,579,3783,577,3784,22693,26580,22692,26583,22695,26586,22702,26610,708,721,707,723,710,721,707,724,691,693,689,691,690,694,691,691,1356,5119,1359,5117,1358,5118,1360,5121,1212,1631,1213,1633,1212,1632,1213,1636
9195,44972,9194,44986,9199,45029,9203,45079,32438,40683,32449,40715,32435,40723,32429,40729,575,3785,575,3786,576,3789,575,3793,22723,26635,22750,26672,22761,26687,22763,26700,710,721,710,719,706,721,709,723,690,692,689,693,691,692,690,693,1358,5128,1362,5132,1359,5138,1363,5147,1211,1637,1213,1637,1212,1637,1215,1641
9204,45072,9200,45013,9203,45020,9204,45021,32448,40746,32382,40663,32402,40663,32394,40666,575,3795,575,3787,575,3787,574,3786,22770,26701,22734,26654,22719,26643,22711,26645,708,724,705,717,701,717,702,717,689,691,687,687,683,687,683,688,1360,5149,1362,5129,1359,5122,1362,5125,1212,1640,1213,1635,1212,1639,1213,1638
9206,45034,9206,45033,9206,45056,9206,45099,32400,40663,32397,40671,32388,40678,32383,40703,574,3783,575,3782,575,3787,575,3794,22703,26637,22693,26637,22710,26659,22734,26691,700,714,698,711,698,715,700,716,681,684,682,684,681,682,682,683,1360,5130,1361,5131,1361,5136,1362,5141,1215,1637,1213,1635,1213,1639,1214,1640
9213,45127,9213,45151,9222,45199,9210,45141,32397,40723,32385,40731,32393,40768,32359,40703,575,3795,579,3797,575,3806,577,3801,22761,26718,22769,26747,22779,26759,22763,26721,700,714,701,715,699,713,697,710,683,684,683,685,686,686,680,681,1360,5147,1364,5155,1364,5163,1363,5151,1214,1644,1215,1642,1213,1644,1217,1642
9206,45081,9217,45101,9217,45103,9219,45111,32333,40660,32344,40650,32345,40663,32343,40669,576,3791,574,3792,575,3793,578,3795,22752,26701,22741,26694,22797,26763,22823,26783,693,705,691,703,687,701,687,702,677,679,671,674,668,670,666,667,1361,5137,1363,5133,1361,5134,1362,5136,1212,1639,1213,1638,1214,1640,1216,1642
9216,45103,9213,45127,9220,45161,9219,45185,32337,40662,32325,40657,32332,40684,32335,40706,576,3795,575,3797,576,3796,575,3799,22813,26770,22806,26771,22809,26782,22816,26795,689,702,691,703,690,703,690,703,667,670,668,671,668,673,673,673,1358,5136,1362,5140,1359,5145,1360,5151,1213,1640,1214,1641,1217,1641,1213,1642
9223,45213,9224,45255,9219,45175,9218,45158,32335,40721,32354,40761,32287,40647,32289,40634,575,3803,577,3809,577,3799,577,3794,22807,26800,22792,26791,22767,26738,22753,26717,693,705,691,705,689,701,686,701,672,673,675,674,671,671,667,668,1359,5159,1361,5166,1359,5149,1357,5135,1211,1642,1217,1645,1211,1640,1212,1641
9225,45162,9227,45169,9227,45171,9231,45186,32293,40623,32291,40627,32311,40650,32300,40646,574,3794,578,3791,576,3792,575,3794,22722,26697,22747,26726,22774,26746,22757,26738,686,699,684,699,684,697,684,697,665,668,665,667,665,667,664,667,1358,5131,1357,5129,1357,5129,1357,5130,1214,1641,1213,1645,1215,1640,1211,1643
9227,45205,9229,45230,9232,45262,9233,45293,32299,40653,32317,40692,32332,40725,32328,40737,575,3795,575,3796,574,3799,574,3803,22758,26744,22780,26775,22791,26790,22789,26809,685,699,687,702,689,707,690,706,667,668,669,672,670,671,670,674,1357,5134,1356,5141,1357,5149,1357,5156,1213,1642,1214,1643,1214,1647,1214,1647
9237,45342,9229,45273,9230,45242,9231,45241,32349,40775,32320,40712,32311,40701,32319,40708,575,3806,575,3802,576,3796,575,3797,22777,26803,22764,26773,22750,26746,22729,26744,693,706,689,704,688,700,686,700,674,677,670,674,669,670,664,667,1359,5164,1359,5154,1357,5139,1357,5139,1213,1650,1212,1649,1211,1648,1213,1647
9231,45250,9233,45251,9234,45270,9239,45287,32329,40715,32338,40725,32338,40733,32342,40755,573,3797,574,3795,575,3795,574,3798,22744,26758,22765,26777,22781,26789,22791,26815,685,699,683,698,684,698,687,700,665,667,665,667,664,669,669,671,1358,5138,1356,5141,1357,5139,1357,5145,1212,1645,1213,1646,1212,1646,1214,1645
9242,45325,9240,45355,9249,45391,9250,45431,32351,40782,32365,40817,32366,40829,32399,40886,573,3803,575,3804,577,3808,574,3811,22797,26823,22811,26850,22823,26873,22819,26876,688,702,691,708,693,707,694,711,671,672,673,674,677,676,678,680,1355,5154,1358,5159,1358,5166,1361,5176,1213,1647,1213,1650,1212,1649,1215,1653
9246,45366,9244,45342,9247,45353,9247,45354,32345,40799,32327,40775,32351,40801,32351,40805,577,3806,575,3802,578,3802,576,3805,22782,26815,22739,26779,22753,26793,22775,26817,696,711,694,708,693,708,693,708,676,674,674,676,675,675,678,676,1357,5164,1360,5151,1355,5153,1358,5152,1213,1651,1212,1650,1212,1647,1215,1650
9249,45357,9253,45380,9256,45404,9257,45437,32363,40817,32370,40834,32371,40850,32392,40883,574,3801,574,3803,575,3806,575,3807,22795,26843,22805,26855,22825,26886,22841,26911,692,709,696,708,698,717,699,713,676,678,677,676,677,679,678,682,1358,5150,1359,5155,1356,5161,1358,5167,1215,1652,1211,1650,1213,1652,1213,1651
9259,45463,9259,45505,9258,45485,9256,45430,32390,40906,32385,40913,32399,40906,32344,40841,574,3813,574,3816,575,3815,575,3811,22857,26938,22863,26950,22844,26915,22813,26873,699,715,701,715,700,713,695,711,681,682,679,684,682,685,678,678,1359,5172,1363,5180,1360,5180,1361,5159,1216,1652,1214,1656,1215,1655,1214,1651
9260,45429,9263,45436,9267,45437,9265,45447,32367,40849,32361,40850,32369,40850,32365,40859,575,3807,572,3807,575,3807,574,3806,22799,26868,22799,26878,22803,26877,22803,26884,694,708,695,711,695,708,695,709,674,679,675,676,674,678,675,675,1361,5155,1359,5157,1358,5155,1359,5158,1215,1651,1213,1654,1214,1651,1216,1653
9263,45459,9264,45485,9266,45507,9266,45533,32361,40860,32372,40887,32383,40913,32383,40927,574,3811,577,3817,574,3815,575,3817,22813,26902,22830,26923,22834,26941,22848,26962,695,709,694,711,697,714,697,711,673,677,677,677,677,679,678,677,1358,5159,1362,5168,1359,5174,1362,5183,1214,1652,1216,1652,1214,1655,1217,1656
9268,45563,9262,45479,9263,45462,9264,45471,32417,40976,32342,40871,32355,40866,32355,40839,577,3822,577,3814,575,3809,578,3807,22850,26971,22827,26929,22822,26910,22813,26894,696,713,693,705,690,704,687,703,676,678,671,673,670,670,667,670,1361,5194,1361,5173,1358,5160,1359,5156,1217,1658,1214,1655,1212,1652,1216,1653
9264,45456,9266,45458,9270,45469,9265,45489,32347,40830,32355,40842,32335,40832,32327,40839,576,3809,575,3810,579,3812,575,3812,22817,26902,22821,26912,22813,26914,22812,26922,690,708,691,705,691,705,691,706,669,673,666,669,670,671,670,670,1355,5157,1358,5155,1356,5158,1360,5161,1211,1653,1213,1652,1213,1652,1216,1651
9269,45507,9267,45526,9270,45563,9265,45558,32345,40862,32343,40877,32347,40897,32365,40909,577,3815,574,3818,576,3821,578,3819,22823,26944,22836,26964,22845,26974,22841,26961,694,708,695,708,697,710,697,710,671,675,670,675,673,675,674,676,1356,5167,1359,5176,1358,5184,1359,5182,1214,1654,1214,1654,1212,1656,1213,1655
9260,45467,9260,45463,9261,45475,9263,45469,32296,40825,32309,40815,32303,40796,32303,40807,577,3813,575,3809,575,3813,577,3812,22829,26941,22814,26921,22808,26919,22829,26941,694,706,691,705,691,705,693,705,671,673,671,673,669,671,670,670,1357,5161,1356,5157,1358,5156,1357,5158,1211,1654,1213,1650,1212,1649,1210,1650
9263,45476,9265,45495,9265,45520,9268,45545,32317,40818,32307,40809,32305,40824,32312,40855,574,3811,575,3812,577,3815,578,3819,22841,26945,22825,26947,22828,26949,22826,26963,693,703,695,707,697,714,697,713,670,676,673,673,673,675,675,675,1357,5158,1357,5164,1356,5167,1358,5172,1212,1649,1214,1647,1210,1653,1213,1651
9268,45575,9272,45612,9271,45616,9268,45554,32311,40862,32302,40862,32346,40917,32293,40847,577,3825,577,3826,577,3827,577,3819,22828,26971,22837,26980,22835,26980,22824,26949,699,713,702,716,705,715,700,713,675,677,679,675,679,681,678,678,1359,5181,1361,5188,1357,5193,1359,5175,1213,1651,1212,1654,1212,1654,1212,1648
9270,45553,9271,45565,9274,45568,9274,45570,32307,40844,32306,40842,32305,40847,32305,40847,578,3818,577,3819,577,3818,577,3821,22805,26943,22802,26943,22813,26943,22805,26947,699,711,698,711,699,712,700,713,675,677,677,675,673,679,675,675,1356,5170,1358,5173,1357,5171,1361,5171,1209,1649,1212,1649,1211,1651,1211,1650
9277,45591,9279,45611,9279,45641,9281,45678,32295,40831,32303,40871,32316,40890,32305,40899,576,3824,577,3825,577,3829,578,3831,22791,26941,22813,26973,22808,26975,22814,26990,699,713,696,707,695,710,694,709,675,681,670,673,672,673,674,674,1359,5174,1361,5183,1357,5189,1361,5194,1213,1650,1217,1651,1210,1652,1211,1651
9287,45719,9277,45663,9277,45641,9275,45619,32317,40922,32283,40862,32253,40824,32260,40835,578,3837,579,3831,577,3827,579,3826,22805,26984,22779,26941,22732,26893,22727,26901,698,710,696,709,695,707,692,705,675,677,674,677,670,671,671,674,1359,5201,1360,5194,1357,5182,1359,5183,1211,1655,1209,1652,1211,1649,1209,1651
9277,45638,9283,45639,9287,45661,9284,45689,32272,40841,32272,40842,32272,40851,32274,40873,578,3830,579,3828,580,3833,581,3836,22735,26901,22718,26891,22727,26902,22729,26915,692,707,693,706,694,709,693,707,669,674,671,674,673,674,671,674,1361,5185,1359,5185,1357,5189,1360,5194,1213,1650,1211,1649,1210,1651,1212,1653
9286,45715,9288,45750,9297,45801,9292,45767,32281,40893,32284,40917,32292,40941,32279,40890,578,3837,577,3841,579,3847,580,3844,22745,26943,22744,26956,22748,26961,22722,26919,693,708,696,711,696,710,695,709,675,677,672,674,675,675,673,676,1358,5200,1360,5204,1359,5215,1364,5205,1211,1654,1212,1656,1210,1655,1209,1655
9290,45715,9292,45719,9299,45728,9298,45729,32250,40844,32271,40856,32271,40860,32273,40861,579,3838,578,3835,579,3837,582,3838,22686,26875,22678,26875,22677,26881,22675,26878,692,710,692,704,691,707,693,706,669,673,670,674,670,674,670,671,1358,5190,1359,5185,1357,5188,1359,5184,1211,1653,1211,1653,1213,1652,1211,1651
9297,45738,9300,45763,9301,45789,9303,45815,32287,40871,32279,40882,32290,40909,32300,40930,578,3837,580,3841,578,3846,579,3846,22677,26884,22683,26904,22686,26911,22706,26937,692,709,693,707,693,708,695,705,672,672,673,675,674,677,674,678,1359,5186,1361,5193,1356,5200,1361,5209,1213,1654,1215,1650,1211,1654,1215,1655
9303,45857,9300,45821,9297,45763,9299,45752,32301,40948,32297,40914,32270,40870,32290,40861,581,3850,580,3847,580,3840,580,3837,22711,26951,22684,26919,22671,26885,22641,26857,695,711,694,712,691,705,690,703,675,679,674,677,675,674,672,673,1360,5213,1360,5207,1356,5191,1358,5181,1212,1656,1210,1661,1208,1651,1212,1651
9297,45748,9295,45738,9298,45743,9294,45748,32279,40854,32283,40859,32288,40868,32282,40867,580,3838,580,3837,580,3838,586,3841,22632,26858,22651,26869,22651,26876,22639,26873,690,703,691,707,691,704,690,706,670,672,670,672,671,673,671,673,1359,5181,1361,5181,1355,5181,1359,5187,1212,1651,1212,1654,1211,1652,1213,1659
9296,45766,9294,45788,9293,45810,9293,45811,32293,40894,32313,40930,32311,40937,32327,40949,581,3844,579,3844,580,3851,581,3852,22653,26897,22677,26925,22664,26917,22656,26911,693,706,696,707,693,708,695,711,674,675,673,676,675,676,678,678,1356,5193,1360,5199,1358,5205,1359,5207,1211,1657,1212,1657,1211,1655,1214,1658
9285,45731,9290,45724,9291,45716,9289,45710,32271,40867,32287,40874,32280,40851,32289,40862,581,3843,582,3839,581,3841,582,3837,22645,26878,22623,26851,22593,26829,22609,26846,689,704,688,702,688,701,689,703,674,676,672,675,670,672,675,672,1357,5185,1357,5179,1357,5175,1356,5175,1211,1652,1212,1651,1212,1652,1213,1655
9290,45709,9291,45721,9288,45735,9290,45758,32309,40887,32307,40898,32313,40923,32336,40961,581,3839,580,3840,580,3842,581,3847,22629,26868,22632,26881,22630,26893,22650,26917,690,703,693,704,692,706,697,709,672,676,673,675,673,676,674,680,1354,5173,1359,5180,1355,5184,1359,5187,1209,1653,1212,1653,1210,1653,1210,1657
9290,45777,9289,45804,9281,45763,9281,45721,32344,40992,32346,41017,32334,40975,32305,40940,579,3848,580,3853,579,3850,577,3843,22660,26936,22669,26951,22655,26916,22633,26887,695,711,698,714,697,711,693,708,677,678,677,679,677,679,676,675,1357,5194,1359,5202,1356,5197,1357,5178,1213,1656,1214,1661,1212,1658,1214,1653
9287,45714,9287,45719,9284,45715,9285,45714,32311,40932,32320,40954,32335,40979,32335,40982,581,3842,579,3842,580,3844,581,3844,22606,26865,22621,26893,22643,26910,22647,26923,695,707,695,706,693,708,695,707,675,675,672,676,673,675,673,678,1354,5175,1358,5178,1355,5175,1356,5176,1211,1654,1212,1655,1212,1655,1211,1656
9286,45733,9287,45753,9285,45765,9286,45788,32333,40992,32347,41033,32363,41061,32355,41069,579,3845,579,3847,580,3851,581,3852,22641,26927,22656,26958,22680,26982,22681,26991,695,709,696,711,698,711,699,713,673,678,676,677,677,679,677,682,1355,5179,1357,5185,1356,5191,1359,5198,1214,1657,1213,1659,1212,1658,1213,1659
9285,45812,9281,45756,9285,45739,9290,45760,32386,41109,32311,41018,32325,41022,32340,41033,580,3857,581,3850,581,3849,581,3846,22664,26987,22628,26926,22604,26909,22612,26917,701,713,697,711,695,710,699,709,678,684,675,677,672,674,673,674,1355,5203,1357,5187,1356,5180,1359,5180,1213,1660,1213,1657,1211,1657,1214,1659
9287,45758,9289,45759,9287,45773,9291,45795,32339,41035,32344,41055,32351,41071,32362,41097,580,3847,581,3848,581,3850,581,3852,22622,26934,22647,26947,22647,26967,22665,26986,695,707,693,708,693,707,696,708,672,675,671,673,669,670,671,675,1356,5178,1357,5182,1355,5183,1359,5192,1211,1658,1213,1657,1213,1661,1212,1658
9291,45828,9293,45851,9296,45889,9289,45833,32372,41124,32372,41140,32397,41193,32333,41086,581,3856,581,3859,581,3864,582,3857,22663,27002,22671,27014,22675,27023,22632,26961,695,711,696,711,698,711,694,710,673,675,675,679,677,678,673,676,1358,5197,1359,5202,1359,5210,1358,5195,1213,1660,1217,1660,1212,1662,1212,1659
9292,45815,9298,45817,9296,45825,9295,45828,32335,41076,32347,41088,32349,41082,32353,41102,580,3854,581,3855,581,3853,579,3858,22614,26942,22612,26941,22625,26958,22631,26967,692,705,694,709,691,705,695,707,669,673,668,671,668,670,669,670,1357,5184,1359,5179,1357,5183,1358,5182,1215,1659,1212,1659,1214,1661,1215,1660
9298,45835,9302,45858,9300,45878,9301,45901,32354,41107,32347,41107,32362,41156,32368,41171,581,3859,581,3859,582,3865,579,3864,22641,26982,22644,26996,22663,27027,22669,27043,691,705,693,705,693,708,695,709,667,671,668,674,673,671,671,675,1357,5185,1360,5189,1357,5199,1361,5204,1213,1658,1215,1661,1212,1659,1213,1661
9301,45939,9295,45898,9296,45855,9301,45851,32363,41179,32331,41111,32310,41073,32314,41062,581,3869,583,3867,581,3861,581,3860,22661,27036,22628,26985,22584,26937,22573,26923,695,712,695,709,692,706,695,710,673,674,673,674,669,673,670,669,1359,5211,1360,5203,1359,5188,1359,5181,1214,1666,1213,1662,1215,1658,1211,1661
9303,45863,9301,45857,9301,45857,9301,45873,32305,41053,32319,41067,32388,41150,32414,41166,581,3859,583,3861,580,3860,581,3865,22565,26929,22584,26947,22461,26839,22307,26759,692,707,692,706,692,705,692,706,669,671,670,671,668,669,668,669,1358,5185,1358,5182,1360,5187,1361,5193,1216,1662,1214,1661,1213,1661,1213,1659
9305,45889,9300,45907,9301,45937,9299,45946,32411,41178,32396,41181,32363,41167,32365,41181,582,3865,582,3867,580,3868,582,3873,22354,26818,22477,26927,22559,26979,22570,26981,694,705,690,707,695,709,695,709,669,670,673,671,672,673,671,675,1357,5198,1360,5205,1358,5210,1360,5216,1211,1661,1213,1661,1211,1664,1213,1661
9294,45879,9299,45870,9303,45878,9300,45871,32302,41093,32311,41097,32300,41075,32304,41089,581,3863,584,3861,582,3863,581,3862,22558,26939,22543,26924,22538,26915,22571,26951,691,704,689,703,691,703,691,703,669,671,667,666,668,669,667,667,1359,5194,1359,5189,1357,5185,1358,5189,1210,1664,1213,1660,1211,1659,1213,1659
9303,45877,9300,45893,9305,45908,9299,45927,32312,41109,32302,41098,32307,41129,32319,41155,584,3863,583,3863,581,3867,582,3872,22581,26961,22575,26964,22594,26992,22605,27009,690,708,691,702,693,708,693,707,669,670,669,670,669,671,671,673,1357,5189,1358,5194,1357,5200,1361,5207,1210,1662,1214,1659,1211,1662,1214,1661
9303,45950,9300,45989,9295,45949,9292,45897,32318,41168,32326,41204,32327,41170,32278,41116,584,3875,581,3875,581,3874,583,3868,22597,27015,22618,27042,22604,26999,22561,26956,695,709,695,711,694,708,690,703,675,675,674,677,674,676,673,672,1358,5213,1362,5219,1361,5215,1360,5201,1211,1662,1213,1668,1211,1662,1213,1660
9293,45897,9299,45910,9295,45903,9296,45906,32280,41119,32275,41118,32274,41111,32263,41116,581,3869,582,3871,581,3869,583,3871,22544,26945,22549,26952,22533,26941,22546,26955,691,703,691,703,694,704,691,706,670,671,672,671,671,673,673,671,1359,5196,1360,5200,1359,5197,1360,5199,1211,1659,1214,1661,1213,1661,1213,1660
9299,45929,9298,45946,9300,45973,9301,46006,32267,41124,32271,41143,32273,41167,32267,41181,582,3871,582,3873,581,3878,580,3881,22553,26968,22556,26983,22559,26992,22559,26995,693,707,694,707,697,708,695,713,672,673,672,675,675,676,674,676,1355,5206,1363,5210,1359,5214,1362,5221,1211,1662,1212,1665,1209,1663,1213,1665
9297,45995,9291,45935,9297,45922,9297,45931,32279,41177,32211,41097,32224,41105,32223,41107,582,3884,581,3873,583,3871,580,3873,22544,26971,22513,26925,22499,26921,22503,26931,696,709,694,705,692,706,692,705,674,675,670,675,669,672,670,671,1361,5221,1363,5203,1357,5200,1361,5202,1210,1662,1210,1661,1207,1660,1210,1659
9295,45927,9294,45927,9294,45939,9291,45962,32217,41109,32209,41111,32198,41105,32203,41123,582,3872,581,3873,584,3874,583,3878,22505,26933,22505,26933,22505,26943,22517,26961,692,704,692,707,694,707,694,706,669,672,671,672,672,674,670,675,1357,5198,1361,5198,1358,5204,1362,5211,1209,1659,1208,1659,1209,1661,1211,1658
9293,45979,9293,45999,9287,45978,9283,45911,32209,41145,32179,41125,32182,41123,32127,41053,581,3880,582,3884,583,3886,581,3874,22528,26977,22496,26954,22479,26933,22468,26909,694,709,696,711,696,711,692,707,672,675,673,676,676,676,669,672,1360,5215,1362,5223,1362,5222,1363,5201,1210,1661,1211,1664,1208,1662,1209,1660
9285,45898,9282,45903,9287,45891,9281,45892,32147,41061,32140,41047,32136,41043,32139,41055,581,3875,582,3875,583,3873,580,3873,22459,26891,22448,26891,22463,26906,22469,26912,691,704,691,703,694,705,691,705,671,671,668,671,670,671,669,673,1357,5197,1359,5195,1354,5192,1359,5195,1208,1659,1210,1660,1208,1658,1211,1659
9282,45895,9281,45910,9281,45928,9278,45941,32136,41055,32141,41082,32150,41107,32140,41117,579,3873,581,3874,580,3877,585,3881,22474,26922,22491,26947,22508,26965,22511,26983,692,706,693,707,694,713,695,712,670,673,672,675,671,674,675,676,1358,5196,1360,5202,1358,5208,1361,5213,1209,1659,1211,1659,1208,1665,1209,1660
9278,45958,9271,45868,9270,45846,9271,45838,32158,41131,32081,41021,32091,41009,32078,40989,580,3882,581,3873,582,3869,582,3869,22495,26967,22469,26911,22444,26881,22429,26875,698,710,695,710,692,706,693,707,675,677,671,672,670,672,670,671,1356,5213,1361,5195,1357,5185,1357,5183,1207,1663,1207,1659,1208,1659,1207,1656
9272,45825,9267,45809,9270,45823,9266,45829,32076,40993,32086,40999,32079,40990,32073,41004,582,3870,582,3865,585,3869,580,3870,22441,26880,22453,26897,22445,26895,22455,26910,694,708,692,706,694,708,694,708,670,671,669,674,673,672,671,674,1354,5181,1357,5178,1354,5183,1356,5185,1206,1656,1207,1656,1205,1657,1208,1657
9262,45843,9262,45858,9264,45887,9254,45847,32088,41041,32087,41055,32081,41070,32064,41033,580,3873,579,3873,579,3877,578,3872,22473,26931,22478,26951,22483,26960,22468,26929,694,710,696,709,701,711,698,712,673,677,674,675,676,678,677,681,1354,5191,1356,5193,1355,5201,1359,5193,1206,1657,1210,1659,1205,1659,1207,1661
9251,45783,9253,45782,9254,45765,9249,45755,32028,40982,32041,40975,32034,40971,32043,40985,578,3864,580,3863,581,3865,579,3861,22446,26898,22433,26877,22438,26897,22453,26904,693,708,693,707,695,710,694,709,671,674,672,670,671,671,672,673,1355,5175,1355,5171,1352,5168,1354,5171,1205,1656,1207,1655,1204,1657,1207,1654
9250,45751,9250,45770,9247,45778,9249,45794,32037,40978,32025,40978,32042,41015,32044,41042,578,3861,577,3865,586,3867,577,3870,22437,26891,22431,26900,22457,26930,22471,26953,694,711,697,715,699,714,698,714,671,673,673,671,676,674,675,674,1352,5172,1356,5174,1353,5180,1356,5185,1207,1657,1205,1657,1205,1658,1209,1657
9243,45817,9245,45850,9237,45810,9237,45759,32043,41048,32043,41073,32041,41049,32001,41000,577,3869,579,3878,579,3871,577,3864,22477,26964,22482,26983,22478,26957,22445,26913,699,714,701,716,700,715,697,711,676,680,681,680,677,678,673,675,1356,5191,1358,5199,1355,5193,1358,5174,1206,1659,1207,1660,1205,1659,1205,1658
9234,45743,9237,45749,9233,45746,9233,45748,32003,41006,32009,41013,32006,41001,31996,41002,579,3862,579,3863,576,3865,581,3864,22434,26911,22443,26921,22430,26912,22421,26913,697,710,696,712,697,710,699,711,674,677,670,677,675,675,673,679,1354,5172,1354,5175,1351,5171,1352,5173,1205,1656,1204,1655,1203,1656,1205,1657
9232,45765,9232,45784,9233,45800,9234,45836,31999,41023,32009,41047,32015,41073,32015,41097,579,3863,581,3870,577,3872,577,3874,22430,26927,22451,26955,22457,26970,22471,26995,701,714,700,716,702,714,701,718,674,675,675,677,677,678,676,679,1352,5178,1356,5183,1354,5193,1356,5194,1205,1661,1205,1659,1205,1659,1206,1661
9236,45873,9226,45821,9228,45775,9227,45772,32025,41119,31983,41051,31953,41015,31969,41029,577,3877,579,3872,578,3868,581,3867,22462,26998,22433,26944,22403,26907,22403,26919,702,717,701,715,698,716,697,712,679,682,678,679,681,676,674,677,1357,5204,1357,5191,1353,5177,1356,5178,1207,1662,1204,1662,1204,1660,1205,1657
