 EMG Channel 
3038.697307
3056.556351
3066.972264
3084.339569
3105.305505
3123.030439
3114.804997
3064.468868
3064.178296
3054.49999
3069.587418
3063.708909
3039.233749
3064.781793
3076.583514
3049.470848
3038.116162
3088.005255
3127.701953
3086.53004
3047.973281
3038.116162
3060.378499
3074.974188
3062.300749
3042.787676
3060.356147
3085.770081
3079.936275
3091.536831
3095.448386
3072.895476
3054.120011
3079.153964
3065.117069
3051.504857
3057.405717
3098.041188
3110.066427
3098.130595
3087.312351
3065.318235
3066.055842
3060.177333
3041.401868
3075.063595
3149.450201
3120.258822
3052.108354
3047.347432
3067.285188
3081.322084
3102.220965
3098.354113
3044.933444
3097.884726
3085.255991
3068.223961
3047.012156
3077.119956
3110.088779
3063.328929
3059.640892
3076.225886
3076.4047
3065.742918
3125.332668
3146.36566
3107.518328
3050.00729
3039.412563
3095.671904
3089.99456
3056.623406
3025.263909
3040.843074
3070.950874
3098.912907
3082.640837
3059.260912
3053.807086
3069.073328
3084.898363
3060.51261
3081.612656
3088.295828
3032.818798
3031.991784
3059.350319
3075.912961
3056.265778
3067.575761
3093.257915
3095.515441
3089.033435
3070.012101
3058.925636
3048.263854
3055.058784
3071.755537
3096.14129
3113.486244
3104.634953
3060.691423
3022.313478
3047.861522
3068.022796
3075.622389
3101.706875
3124.058619
3101.90804
3056.578703
3035.121028
3041.42422
3044.464057
3062.94895
3092.721473
3115.296735
3130.406514
3067.374595
3046.922749
3064.938255
3107.585383
3105.506671
0
4599.609029
4605.666352
4614.22707
4614.160015
4603.766454
4604.280544
4607.342733
4616.618707
4604.168785
4598.84907
4609.734369
4613.422407
4608.482672
4602.961791
4614.361181
4619.055047
4606.493367
4597.396207
4607.141567
4615.322306
4611.343695
4598.826718
4602.984143
4612.058951
4608.393265
4597.619724
4598.156166
4610.159053
4609.130872
4597.217393
4590.78009
4601.7995
4609.287335
4601.732445
4597.575021
4607.678009
4611.142529
4607.230974
4598.670256
4600.279582
4613.601221
4610.807253
4600.838375
4601.240707
4610.38257
4610.539032
4598.066759
4604.928744
4616.216375
4616.752817
4608.482672
4602.380646
4611.634268
4612.327172
4602.023018
4601.978314
4611.634268
4614.74116
4604.928744
4598.402035
4606.605125
4614.852919
4609.220279
4598.558497
4603.319419
4611.701323
4607.834471
4601.531279
4601.441872
4608.549727
4607.56625
4601.933611
4604.280544
4610.740198
4612.908317
4604.727579
4602.514756
4611.902489
4611.030771
4598.893773
4599.87725
4608.549727
4613.57887
4608.415617
4603.431178
4607.230974
4611.678971
4602.447701
4597.373855
4602.782977
4606.493367
4603.654695
4594.468128
4599.22905
4609.779073
4607.208622
4597.329151
4601.643038
4609.86848
4602.17948
4593.283486
4596.680951
4604.146433
4609.779073
4604.302896
4598.938477
4608.952058
4614.987029
4606.515718
4600.458396
4607.409788
4614.830567
4606.828643
4599.966657
4604.325247
4611.254288
4604.258192
4599.854898
4603.855861
4611.455454
4613.824739
4597.955
4607.074512
4615.76934
4608.97441
4599.720788
4600.123119
4611.097826
4615.232899
4605.040503
4602.961791
4614.09296
4618.295088
4607.342733
4599.027884
4612.237765
4621.647849
4607.342733
4603.095901
4608.169747
4616.775169
4607.722712
4592.031788
4600.592506
4609.309686
4610.851957
4602.917087
4602.805329
4612.438931
4609.86848
4602.939439
4599.765491
4605.375779
4605.040503
4597.709131
4596.92682
4610.360218
4615.456416
4611.611916
4600.860727
4606.716884
4615.590527
4607.230974
4601.553631
4607.208622
4618.496253
4611.187233
4602.425349
4604.548765
4614.249422
4613.802387
4603.364122
4605.532242
4609.533204
4612.863614
4607.253326
4605.845166
4618.920936
4623.100713
4614.316477
4614.472939
4630.230919
4633.270756
4617.602184
4615.814044
4624.486521
4625.581756
4616.037561
4610.226108
4619.300916
4627.638117
4619.99382
4619.569137
4623.726562
4629.202739
4625.604108
4612.237765
4616.283431
4626.989916
4626.207605
4622.117236
4619.233861
4629.247442
4628.420428
4621.469035
4615.724637
4629.001573
4636.310594
4624.263003
4619.725599
4629.135684
4637.450533
4635.461227
4624.039486
4626.162902
4633.494274
4624.486521
4614.919974
4620.574966
4628.912166
4628.912166
4622.117236
4623.659506
4633.203701
4632.644908
4619.770303
4618.049218
4627.571062
4629.515663
4619.122102
4619.166806
4629.739181
4633.427219
4624.687687
4618.496253
4627.012268
4636.757629
4622.474864
4610.561384
4618.295088
4631.370858
4623.480692
4608.817948
4615.724637
4623.145416
4621.826663
4610.293163
4611.611916
4621.871367
4617.646887
4605.532242
4607.923878
4612.081303
4615.277602
4603.945268
4602.82768
4614.383532
4617.959811
4615.724637
4608.862651
4616.104617
4621.849015
4614.785864
4607.633306
4611.947192
4622.765437
4621.960774
4609.108521
4607.767416
4617.780997
4615.523471
4605.040503
4607.007457
4621.334925
4619.904413
4615.277602
4614.025904
4619.457378
4626.699344
4617.132797
4609.287335
4613.869442
4618.295088
4613.243593
4607.678009
4613.57887
4620.910242
4619.256213
4614.204718
4620.172634
4622.29605
4613.71298
4603.20766
4602.805329
4607.275678
4595.13868
4581.794689
4582.577
4596.703302
4594.758701
4588.164936
4591.651808
4598.603201
4598.603201
4587.807308
4584.543953
4591.696512
4601.419521
4598.402035
4592.791747
4595.205736
4598.379683
4593.685817
4588.008474
4591.361236
4603.431178
4602.69357
4593.954038
4591.361236
4597.217393
4599.184346
4588.20964
4586.689721
4599.631381
4595.228087
4585.773299
4580.922971
4591.137718
4599.564326
4585.303913
4580.431233
4594.736349
4599.519622
4590.154241
4583.09109
4586.55561
4594.758701
4588.231991
4578.620741
4586.220334
4599.497271
4595.093977
4581.012378
4586.309741
4593.708169
4594.848108
4586.309741
4582.018206
4588.276695
4583.851049
4581.973503
4593.59641
4610.89666
4612.662448
4607.968582
4610.740198
4624.195948
4629.47096
4625.447646
4617.624535
4621.066704
4633.248405
4627.258137
4620.396152
4625.045314
4632.354335
4626.744047
4615.545823
4618.563309
4628.219262
4626.051143
4619.211509
4618.093922
4620.284393
4623.637155
4618.205681
4616.14932
4623.972431
4633.986012
4629.135684
4618.183329
4624.464169
4630.007402
4621.513739
4618.518605
4623.212471
4631.124989
4626.967564
4621.513739
4625.984088
4630.566195
4629.023925
4619.904413
4621.022
4630.342678
4630.163864
4620.530262
4621.603146
4632.153169
4632.264928
4621.133759
4617.959811
4628.174559
4631.706134
4612.662448
4617.065742
4638.56812
4639.506893
4636.511759
4639.506893
4650.258082
4669.033548
4672.922751
4671.76046
4683.629237
4698.247278
4703.678751
4697.733187
4701.108301
4715.145196
4719.436731
4708.082045
4706.405664
4717.514481
4719.660249
4708.1491
4704.259897
4711.703028
4714.564051
4705.936278
4702.76233
4712.37358
4722.208348
4714.228775
4704.617525
4708.730246
4714.832272
4709.803129
4704.863394
4703.991676
4714.452292
4712.395932
4704.841042
4701.890612
4710.496033
4708.596135
4697.50967
4699.029589
4710.764254
4718.14033
4702.650571
4694.402777
4702.114129
4705.176318
4692.994618
4689.708911
4698.314333
4706.405664
4700.4601
4695.408606
4704.394007
4713.178243
4710.987772
4702.650571
4701.555336
4715.234603
4718.944993
4706.383313
4702.203536
4709.378446
4709.356095
4703.008199
4696.257972
4704.103435
4707.344438
4699.454272
4698.515498
4707.791472
4713.91585
4706.472719
4703.119958
4716.821577
4729.919699
4713.446464
4702.941144
4707.769121
4714.742865
4708.752597
4697.979057
4703.343475
4711.814786
4708.01499
4698.359036
4700.795376
4709.691371
4713.312353
4699.476623
4694.939219
4704.483414
4708.037342
4695.855641
4692.435824
4704.394007
4710.719551
4700.817728
4698.135519
4700.191879
4704.148138
4698.739016
4693.598115
4699.700141
4709.132577
4711.211289
4706.137443
4704.215193
4700.705969
4688.077234
4686.803184
4687.965475
4692.033493
4691.698216
4679.427109
4670.73228
4675.001463
4674.286207
4669.301768
4668.474754
4672.408661
4671.916923
4661.344547
4654.639024
4653.767306
4659.534056
4649.07344
4637.070553
4639.97628
4644.98307
4634.231881
4623.435989
4624.240652
4633.986012
4631.281451
4627.191082
4628.57689
4638.769286
4644.156056
4631.482617
4628.688649
4633.69544
4634.477751
4625.067666
4622.43016
4628.219262
4629.158035
4612.6848
4611.142529
4624.441817
4627.347544
4615.702285
4602.17948
4606.716884
4620.977297
4614.316477
4603.185308
4608.236803
4615.210547
4619.055047
4609.108521
4606.605125
4613.869442
4616.596355
4605.532242
4598.044407
4605.375779
4606.314553
4599.989009
4594.736349
4606.985105
4612.30482
4599.676084
4594.266962
4604.124082
4605.375779
4593.797576
4584.588657
4589.908372
4594.535183
4592.05414
4581.392358
4588.388454
4601.28541
4599.966657
4596.949172
4594.557535
4599.787843
4603.431178
4594.602238
4590.914201
4601.7995
4604.48171
4595.563364
4590.333055
4599.810195
4611.477806
4599.720788
4586.4215
4594.356369
4602.067721
4595.362198
4586.04152
4592.478823
4602.537108
4598.491442
4588.768433
4592.925858
4603.632343
4601.844204
4595.205736
4596.882116
4609.734369
4608.236803
4598.491442
4595.764529
4607.700361
4613.131835
4604.079378
4599.296105
4605.018151
4610.360218
4604.571117
4592.724692
4598.402035
4609.421445
4601.017189
4593.194079
4601.575983
4609.153224
4605.576945
4596.368026
4605.196965
4614.22707
4613.84709
4607.56625
4608.348561
4616.708114
4607.901526
4599.072587
4603.162957
4609.846128
4609.689666
4605.353428
4601.084244
4607.43214
4613.333
4607.365085
4600.927782
4606.135739
4609.287335
4604.079378
4597.642076
4602.134776
4614.495291
4608.415617
4598.782015
4609.756721
4620.194986
4610.516681
4593.149375
4591.741215
4599.005532
4592.031788
4574.686834
4568.294235
4570.551761
4569.389471
4553.922064
4545.182531
4563.421555
4570.730575
4566.729613
4564.494439
4568.137773
4569.165953
4561.789878
4547.9765
4551.239854
4559.331186
4558.146543
4549.094087
4554.212636
4560.761697
4560.135849
4552.916235
4552.446848
4561.119325
4562.281616
4551.083392
4548.043555
4561.074622
4566.103764
4557.699508
4553.027994
4564.472087
4568.987139
4557.543046
4546.210712
4555.017299
4558.75004
4551.619834
4547.820037
4550.301081
4557.900674
4555.307872
4546.970671
4552.402145
4560.560532
4557.878322
4546.814209
4544.444924
4559.018261
4573.189267
4567.266055
4566.394337
4572.004625
4583.98516
4587.986122
4582.420538
4594.043445
4604.012323
4604.74993
4608.996762
4619.591489
4629.158035
4628.733352
4623.32423
4629.917995
4639.104562
4645.161884
4643.932539
4645.251291
4652.202684
4653.029698
4643.485504
4644.33487
4650.191027
4655.287225
4645.027774
4642.904358
4652.984995
4656.24835
4646.212416
4642.882007
4647.687632
4651.420373
4640.758591
4633.874253
4644.893664
4650.794524
4654.035527
4649.006384
4651.867408
4658.192951
4654.728431
4647.486466
4648.805219
4659.668167
4658.058841
4646.011251
4648.358184
4656.784792
4654.3261
4647.687632
4648.246425
4657.902379
4662.775059
4650.123972
4646.212416
4658.952911
4661.098678
4652.068573
4651.040393
4656.740088
4665.032585
4656.807143
4649.632233
4654.102582
4659.467001
4657.947082
4650.772172
4649.140495
4656.851847
4661.277492
4648.626405
4640.065687
4646.011251
4646.547693
4638.545768
4638.389306
4646.748858
4650.034565
4647.374707
4642.54673
4645.608919
4653.387326
4649.811047
4650.61571
4656.293053
4659.981091
4650.459248
4646.435934
4645.899492
4653.789658
4656.181294
4650.4816
4650.146323
4665.166696
4660.137553
4649.431068
4649.699289
4659.534056
4657.701213
4650.794524
4648.916978
4655.019004
4656.740088
4650.034565
4652.828533
4661.25514
4664.429088
4659.914036
4653.990824
4657.544751
4666.37369
4663.17739
4648.984033
4647.866446
4662.886818
4660.539885
4649.475771
4644.267815
4658.349414
4667.625388
4662.618597
4664.674957
4679.69533
4686.311446
4682.355187
4683.986865
4695.788586
4701.980019
4708.350266
4710.898365
4718.65442
4725.561109
4725.739923
4728.399781
4732.937185
4741.788476
4740.022688
4721.895423
4726.85751
4737.318127
4739.262729
4732.736019
4736.446409
4740.626185
4736.781685
4728.712705
4726.477531
4736.535816
4740.983813
4732.467798
4730.880824
4740.425019
4737.966327
4737.720458
4740.425019
4750.662118
4755.221874
4742.906063
4733.495979
4739.955633
4749.186903
4746.236473
4729.383258
4732.266633
4738.2569
4734.680621
4728.936223
4730.120865
4738.972156
4736.357002
4733.473627
4729.383258
4735.798208
4739.083915
4727.013973
4725.717571
4737.251072
4740.648537
4735.507636
4728.64565
4732.557205
4739.977984
4734.255938
4723.549452
4729.182092
4737.541644
4734.010069
4726.7234
4729.942051
4736.84874
4734.814731
4727.572766
4731.037287
4740.134447
4739.396839
4734.457104
4730.769066
4737.698106
4741.609662
4737.36283
4729.271499
4730.031458
4733.495979
4728.422133
4724.175301
4732.221929
4735.641746
4733.987717
4730.500845
4738.569825
4747.376412
4746.303528
4743.12958
4745.655328
4748.203426
4746.012955
4735.641746
4737.027554
4747.689336
4742.660194
4728.936223
4731.707839
4740.760295
4741.117923
4733.607737
4731.171397
4739.486246
4744.135409
4739.977984
4731.350211
4738.167493
4746.191769
4744.358926
4736.580519
4739.776819
4744.805961
4733.138351
4727.349249
4734.434752
4738.793342
4737.586348
4735.619394
4733.697144
4738.368659
4742.570787
4741.386144
4744.582444
4749.544531
4753.769011
4753.701956
4754.238397
4761.70388
4766.151877
4758.149953
4755.110115
4758.976967
4768.029424
4756.898255
4747.018784
4753.657252
4760.116906
4754.283101
4741.58731
4734.881787
4744.425982
4749.969214
4741.788476
4744.940072
4748.091668
4755.065412
4751.153857
4744.493037
4747.912854
4747.063487
4738.838045
4740.380316
4746.080011
4753.836066
4751.422078
4748.516351
4747.756391
4738.033383
4726.701048
4722.185996
4739.374487
4764.251979
4757.546456
4742.570787
4746.236473
4735.239415
4728.310374
4742.526083
4746.929377
4748.717517
4764.743717
4768.3647
4758.954615
4756.339461
4745.588272
4749.052793
4749.119848
4746.236473
4750.81858
4752.114982
4745.565921
4750.103325
4759.535761
4757.367642
4753.009051
4746.147066
4761.100383
4757.188828
4743.151932
4746.124714
4762.530895
4762.441488
4745.700031
4744.627147
4755.80302
4755.288929
4742.839008
4742.056697
4752.383203
4748.38224
4729.472665
4727.081028
4736.357002
4748.806923
4746.929377
4735.574691
4731.931356
4745.789438
4737.094609
4730.880824
4727.192787
4728.288022
4734.635918
4730.545548
4743.151932
4754.081935
4749.7904
4741.676717
4732.780723
4722.253051
4697.464966
4685.730301
4694.335722
4718.855586
4741.162627
4745.2977
4745.834141
4763.089688
4773.326787
4755.288929
4742.168455
4759.088726
4760.16161
4754.976005
4749.589235
4759.64752
4776.634845
4773.61736
4765.593084
4768.543514
4775.338444
4773.460898
4764.251979
4767.716499
4780.099366
4790.694093
4787.944828
4794.359779
4801.579392
4805.692113
4802.182889
4797.667837
4801.489985
4813.694038
4822.232404
4825.428703
4824.244061
4823.729971
4820.064285
4815.638639
4820.265451
4828.982631
4826.769808
4807.614363
4805.379189
4817.136206
4812.285878
4803.926325
4810.408331
4820.891299
4816.42095
4807.256735
4808.016695
4817.136206
4815.370418
4819.259622
4821.338334
4826.188663
4827.708581
4811.436511
4809.223689
4800.730026
4790.068244
4795.767939
4806.072093
4809.290744
4800.461805
4798.070168
4812.688209
4812.777616
4788.280104
4785.597895
4780.993436
4789.755319
4806.742645
4819.483139
4817.82911
4811.615325
4819.684305
4829.60848
4834.414105
4828.826169
4834.414105
4835.218768
4837.208073
4832.737724
4841.834884
4844.338279
4847.378117
4847.400468
4835.218768
4840.896111
4843.623023
4850.730878
4855.424745
4845.165294
4831.776599
4822.321811
4822.478273
4829.049686
4846.573454
4836.649279
4821.718314
4830.904881
4832.022468
4832.983593
4834.794084
4840.806704
4847.55693
4854.105992
4843.06423
4833.296518
4842.796009
4847.713393
4843.466561
4844.919425
4861.929102
4859.559817
4856.430573
4858.688099
4871.920332
4880.48105
4896.350789
4882.4033
4858.017547
4853.658957
4865.99712
4873.730823
4876.50244
4871.026262
4867.0253
4857.637567
4875.518963
4886.717187
4880.972788
4873.350844
4887.611257
4896.283733
4886.068986
4875.988349
4882.202134
4879.989312
4879.408166
4884.70553
4900.9776
4882.448004
4864.656015
4864.052518
4869.595751
4880.637512
4892.126309
4885.957227
4895.389664
4897.513079
4883.722053
4869.260474
4860.252721
4867.762907
4874.088451
4868.612274
4874.937817
4877.329454
4878.581152
4875.876591
4868.679329
4872.970864
4885.063158
4878.089413
4867.829963
4865.505381
4876.524791
4872.27796
4876.323626
4877.687082
4882.850335
4881.978617
4862.018509
4860.610349
4868.724032
4861.862047
4853.502495
4856.207056
4863.605483
4868.276998
4860.811515
4850.328547
4857.302291
4869.282826
4863.31491
4839.443247
4843.310099
4844.159465
4840.583186
4844.762962
4849.054497
4850.529713
4842.952471
4838.258605
4839.73382
4837.29748
4841.566663
4835.196416
4835.218768
4840.739648
4843.734782
4852.2955
4854.016585
4848.987442
4854.620082
4845.813494
4838.862102
4829.60848
4830.614308
4840.717297
4841.477256
4852.429611
4852.071983
4852.250797
4847.020489
4846.953433
4848.115724
4846.171122
4853.18957
4856.274111
4846.439343
4838.057439
4835.308175
4839.487951
4840.516131
4839.465599
4836.895148
4842.751305
4850.216788
4855.402393
4826.479235
4816.979744
4830.12257
4831.754247
4838.146846
4840.024393
4847.892207
4844.762962
4846.774619
4849.054497
4844.09241
4848.160428
4847.266358
4841.812532
4832.961241
4836.291651
4837.789218
4843.421858
4851.937872
4859.068079
4862.130268
4860.543294
4858.732803
4852.854294
4860.23037
4866.488858
4873.149678
4881.151602
4883.342073
4883.275018
4883.43148
4882.492707
4881.464527
4881.911562
4879.765794
4877.508268
4884.750233
4885.286675
4879.788146
4879.162297
4877.284751
4880.078719
4883.81146
4888.192402
4881.218658
4879.028187
4881.531582
4878.581152
4874.691948
4880.123422
4882.470355
4867.964073
4873.596713
4868.232294
4870.288655
4871.138021
4868.232294
4883.051501
4882.939742
4878.089413
4871.495649
4873.619065
4873.417899
4870.445117
4870.467469
4873.708472
4870.690986
4866.600617
4872.032091
4872.255608
4870.690986
4872.724995
4878.5588
4878.223524
4877.105937
4873.104974
4873.149678
4874.379024
4880.257533
4875.049576
4868.634626
4862.219675
4860.833867
4861.750288
4856.274111
4852.429611
4858.06225
4861.683233
4860.565646
4857.436402
4854.709489
4857.861085
4858.039899
4860.096259
4863.449021
4860.632701
4862.867875
4857.771678
4857.861085
4861.146791
4859.649224
4862.018509
4863.426669
4861.929102
4873.30614
4868.075832
4857.905788
4864.812477
4865.885361
4865.035995
4860.699756
4857.302291
4858.688099
4858.06225
4863.918407
4862.845524
4857.324643
4856.676442
4860.051556
4856.922311
4854.441268
4851.401431
4845.992308
4858.710451
4858.82221
4865.147753
4865.594788
4866.712375
4863.404317
4863.493724
4860.677404
4860.23037
4860.431535
4858.464582
4856.251759
4857.101125
4859.649224
4850.686175
4849.121553
4850.172085
4850.395602
4849.278015
4853.636605
4856.14
4855.044765
4849.702698
4848.719221
4847.400468
4840.762
4841.589015
4840.1138
4842.147808
4845.299404
4840.851407
4849.009794
4852.496666
4851.602596
4850.842637
4858.531637
4868.455812
4862.242027
4853.70366
4858.06225
4865.281864
4861.839695
4858.509285
4860.386832
4849.85916
4850.529713
4854.888303
4850.842637
4842.03605
4838.616233
4835.218768
4836.2693
4839.979689
4840.896111
4832.849483
4833.989422
4830.167273
4823.886433
4818.20909
4813.805796
4819.930174
4814.074017
4810.073055
4809.380151
4807.390846
4807.413197
4799.835956
4796.617305
4794.404482
4792.973971
4785.575543
4778.668854
4776.768956
4772.052738
4769.102307
4762.709709
4755.735964
4754.39486
4743.286043
4740.983813
4744.336575
4740.55913
4739.307432
4738.860397
4733.607737
4729.718534
4729.427961
4734.144179
4733.00424
4725.851682
4723.102417
4721.582499
4720.531967
4720.420208
4722.007182
4722.208348
4719.0344
4717.335667
4718.475606
4718.810882
4726.924566
4721.046057
4720.822539
4728.690353
4730.70201
4729.02563
4726.835159
4722.901252
4725.337592
4726.142255
4726.052848
4724.80115
4723.504749
4723.750618
4725.449351
4725.471702
4724.242356
4728.891519
4728.824464
4727.438656
4729.02563
4729.360906
4729.405609
4726.142255
4728.980926
4728.578595
4726.254013
4722.163644
4722.767141
4728.51154
4732.713667
4731.350211
4733.563034
4738.458066
4739.307432
4736.982851
4738.189845
4735.619394
4734.702973
4732.333688
4731.439618
4735.239415
4737.921624
4739.106266
4740.134447
4735.418229
4735.172359
4736.491112
4743.50956
4747.242301
4743.643671
4738.703935
4741.229682
4747.331708
4744.828313
4741.810827
4743.50956
4750.55036
4752.897293
4750.773877
4747.979909
4750.058621
4761.614473
4759.669871
4743.174284
4737.005202
4741.095572
4737.36283
4731.260804
4723.840025
4723.683563
4721.537795
4713.155891
4707.433844
4715.011086
4704.729283
4700.97419
4701.041246
4699.789548
4696.190917
4693.374597
4701.331818
4709.42315
4705.668057
4691.675865
4692.704045
4697.956705
4704.215193
4698.716664
4696.012103
4696.526193
4699.43192
4695.810937
4693.732225
4690.915905
4691.854679
4698.53785
4697.576725
4693.486356
4694.514536
4700.080121
4702.628219
4699.767196
4698.426091
4694.715702
4690.647684
4690.33476
4689.775966
4694.134557
4686.020873
4684.232734
4689.485394
4695.20744
4694.581591
4694.738054
4699.208403
4698.470795
4694.916868
4693.821632
4694.268667
4690.401815
4685.327969
4690.133594
4694.402777
4698.470795
4698.269629
4698.247278
4699.789548
4699.074292
4692.592286
4693.173432
4689.664208
4696.950876
4703.164661
4701.756501
4696.637952
4691.452347
4693.776929
4693.464004
4693.15108
4693.061673
4691.899382
4698.716664
4697.353208
4692.927562
4690.804147
4694.402777
4693.843984
4691.988789
4692.793452
4697.800243
4696.526193
4692.748748
4696.347379
4695.565068
4693.106376
4690.625333
4691.295885
4692.100548
4694.112205
4686.445556
4683.606885
4694.514536
4695.296847
4698.291981
4695.788586
4690.602981
4690.737091
4688.568972
4691.050016
4697.174394
4691.050016
4693.218135
4695.989751
4700.638914
4700.571859
4696.079158
4692.078196
4693.329894
4697.50967
4699.096644
4702.561164
4700.97419
4698.515498
4700.638914
4703.388179
4708.104397
4717.447426
4705.891574
4692.100548
4693.195783
4686.579667
4677.102527
4671.983978
4663.155039
4659.377594
4651.979167
4639.819818
4634.433047
4636.109428
4637.897567
4638.657527
4642.077344
4642.077344
4639.46219
4639.998631
4640.378611
4647.106486
4643.373745
4639.953928
4640.11039
4642.367916
4642.434972
4642.949062
4637.29407
4634.544806
4637.227015
4639.641004
4641.362088
4635.081248
4638.165788
4637.584643
4634.924785
4637.517588
4643.641966
4641.496198
4640.713887
4639.797466
4643.30669
4642.256158
4643.194931
4641.295033
4635.7518
4635.416524
4633.69544
4630.677954
4636.26589
4637.115256
4637.517588
4638.992803
4635.707097
4632.242576
4636.064724
4634.187178
4631.415562
4637.29407
4633.203701
4633.024887
4635.327117
4638.009326
4638.791637
4642.300861
4639.395134
4633.941309
4641.853826
4645.452457
4641.116219
4634.164826
4648.31348
4664.026757
4663.55737
4667.044242
4673.906228
4682.981036
4688.79249
4689.30658
4695.006275
4699.968362
4703.477586
4711.770083
4710.741903
4715.614583
4717.514481
4717.559185
4715.256955
4720.57667
4721.33663
4716.866281
4721.247223
4719.637897
4719.660249
4720.06258
4720.263746
4721.493092
4726.589289
4721.135464
4715.860452
4715.793397
4712.37358
4715.8381
4718.810882
4713.625278
4712.820615
4714.117016
4712.574746
4712.217118
4710.205461
4710.004295
4710.384275
4711.367752
4707.970286
4710.987772
4706.696237
4706.22685
4711.881842
4705.444539
4708.104397
4708.1491
4703.41053
4701.309467
4700.013065
4702.38235
4700.035417
4700.124824
4703.857565
4697.532022
4700.571859
4711.814786
4710.876013
4709.803129
4709.333743
4711.524214
4714.787568
4713.40176
4715.078141
4714.094664
4716.240432
4710.786606
4708.283211
4711.412455
4714.854624
4720.107284
4713.155891
4712.597097
4712.731208
4708.640839
4708.327914
4711.255993
4714.720513
4716.508653
4713.200595
4711.747731
4712.440635
4712.038304
4709.825481
4707.612658
4703.79051
4707.299734
4708.551432
4705.913926
4707.009161
4705.958629
4702.427054
4705.511594
4709.892536
4716.21808
4716.978039
4721.671906
4730.478493
4738.748638
4741.900234
4743.241339
4744.962423
4739.53095
4741.006165
4735.30647
4740.894406
4743.978947
4740.737944
4739.553301
4740.000336
4743.844836
4737.809865
4740.402668
4736.021726
4738.033383
4744.694203
4739.955633
4739.687412
4744.336575
4743.107229
4745.521217
4745.610624
4739.486246
4743.844836
4742.950766
4737.027554
4738.2569
4743.576615
4741.341441
4746.638804
4742.637842
4746.303528
4746.169418
4736.133484
4733.607737
4743.822484
4754.01488
4732.668964
4727.192787
4732.825426
4724.220005
4714.385237
4706.137443
4696.123862
4681.327007
4677.214286
4670.709928
4663.155039
4657.969434
4652.984995
4649.408716
4653.990824
4650.213379
4647.173541
4646.502989
4644.603091
4649.475771
4647.017079
4645.810085
4646.972376
4648.782867
4653.610844
4656.628329
4648.000556
4645.944196
4643.753725
4642.569082
4639.819818
4646.055954
4651.465076
4654.102582
4656.740088
4657.321233
4660.137553
4654.750783
4650.369841
4650.146323
4648.335832
4649.855751
4651.174504
4656.717736
4655.220169
4652.314443
4654.661376
4654.393155
4657.567103
4657.991786
4656.181294
4654.594321
4654.996652
4653.096754
4650.816876
4652.15798
4645.787733
4646.011251
4649.364012
4648.514646
4649.900454
4643.239634
4640.602129
4641.093867
4641.183274
4643.4408
4642.591434
4637.741105
4639.685707
4645.340698
4645.318347
4640.400963
4640.289204
4637.897567
4637.450533
4638.679879
4636.824684
4638.076381
4641.764419
4645.027774
4641.607957
4639.685707
4640.266852
4642.278509
4639.529245
4636.154131
4635.103599
4645.027774
4649.811047
4650.571007
4651.465076
4656.091887
4660.830457
4668.832382
4672.475716
4671.268722
4675.113222
4675.448498
4687.473737
4695.475661
4690.379463
4687.473737
4686.557315
4683.718644
4689.016007
4690.535926
4692.815804
4692.435824
4686.981998
4692.033493
4693.464004
4696.280324
4696.593248
4693.508708
4686.914943
4686.423205
4687.250219
4687.339626
4691.653513
4688.971304
4690.938257
4694.067501
4690.759443
4687.831365
4685.506783
4685.618542
4681.595228
4680.522344
4686.11028
4687.183164
4681.37171
4688.144289
4694.000446
4687.183164
4686.669074
4690.602981
4690.781795
4692.815804
4686.423205
4684.500955
4685.395024
4689.708911
4690.602981
4690.84885
4692.502879
4688.54662
4687.049054
4686.333798
4691.429995
4691.161775
4684.456251
4682.64576
4688.79249
4691.809975
4692.860507
4687.473737
4688.188993
4690.066539
4685.439728
4683.785699
4689.574801
4690.580629
4688.971304
4689.463042
4687.339626
4688.144289
4691.117071
4686.512612
4681.75169
4682.690463
4688.837193
4685.775004
4683.763347
4681.885801
4683.517478
4683.226905
4683.271609
4682.690463
4683.919809
4686.445556
4690.804147
4682.891629
4683.584533
4681.327007
4675.202629
4663.713832
4664.093812
4657.321233
4651.532132
4651.353318
4652.850885
4655.778963
4653.923768
4655.175466
4661.188085
4658.774097
4654.3261
4650.459248
4654.236693
4655.041355
4651.576835
4646.525341
4654.124934
4659.779925
4659.355242
4656.829495
4659.623463
4660.584588
4660.450478
4653.141457
4659.154076
4659.869332
4653.588492
4653.767306
4653.901417
4658.997614
4658.349414
4655.73426
4657.187123
4655.689556
4657.41064
4656.225998
4653.81201
4652.314443
4648.671108
4651.062745
4649.274605
4650.705117
4655.622501
4654.706079
4654.706079
4657.164771
4653.879065
4655.555446
4660.964568
4654.504914
4648.984033
4651.867408
4646.190065
4640.088038
4632.600204
4630.029753
4632.28728
4632.108466
4624.173596
4629.560367
4626.341716
4623.525396
4627.861634
4629.292146
4627.995745
4627.302841
4629.314498
4633.807198
4634.34364
4628.889814
4629.180387
4632.913128
4622.966602
4615.009381
4622.161939
4621.424332
4623.32423
4619.189157
4612.751855
4614.808215
4619.390323
4616.909279
4614.763512
4615.992858
4612.707151
4613.534166
4612.371875
4610.337867
4610.494329
4608.616782
4611.343695
4610.404922
4611.433102
4615.948154
4607.43214
4609.577907
4605.554593
4605.532242
4609.86848
4605.487538
4606.716884
4606.493367
4603.431178
4599.87725
4603.699398
4605.979276
4602.134776
4598.670256
4608.013285
4612.058951
4607.94623
4608.102692
4609.309686
4609.846128
4610.449625
4606.91805
4606.381608
4609.130872
4610.047294
4607.208622
4606.694532
4604.034675
4599.921954
4599.072587
4604.258192
4602.626515
4602.067721
4605.755759
4609.644963
4607.700361
4610.337867
4605.711055
4603.766454
4609.399093
4606.649829
4603.788805
4599.519622
4604.74993
4602.537108
4597.932648
4597.82089
4603.386474
4615.76934
4622.631326
4617.490425
4612.416579
4623.614803
4630.476788
4636.198835
4638.769286
4644.290166
4654.348451
4649.006384
4650.10162
4660.316367
4663.713832
4666.798373
4662.775059
4663.669129
4666.731318
4664.809068
4666.708966
4663.400908
4663.445611
4665.099641
4667.156001
4671.603998
4669.055899
4665.658434
4660.763402
4664.026757
4670.3523
4668.877085
4664.786716
4666.217228
4667.513629
4665.881952
4660.249312
4663.758536
4668.966492
4666.440745
4663.199742
4666.5078
4669.525286
4666.664263
4661.478658
4663.467963
4664.652606
4660.003443
4665.34551
4665.613731
4661.322196
4664.518495
4663.892646
4661.724527
4658.237655
4657.611806
4656.136591
4658.30471
4659.288187
4662.417431
4665.010234
4660.159905
4661.769231
4667.893609
4664.116164
4658.014138
4649.520475
4649.140495
4659.802277
4661.769231
4657.388289
4654.594321
4658.729393
4656.293053
4654.706079
4656.941254
4669.055899
4671.425184
4668.29594
4662.193914
4666.463097
4670.687577
4672.341606
4667.156001
4669.257065
4673.235675
4668.608864
4665.613731
4667.066594
4663.42326
4663.691481
4664.898475
4668.452402
4667.91596
4668.854734
4664.742013
4661.992748
4669.972321
4672.475716
4666.261931
4670.195838
4674.57678
4671.648702
4671.425184
4670.486411
4672.743937
4669.055899
4668.43005
4672.587475
4677.214286
4672.833344
4674.397966
4674.06269
4667.133649
4666.328986
4671.358129
4665.434917
4666.619559
4668.608864
4665.770193
4666.552504
4662.037452
4661.165733
4662.886818
4660.249312
4661.165733
4663.55737
4667.245408
4669.771155
4670.486411
4671.022853
4666.306635
4667.558332
4665.278454
4665.546675
4676.476678
4673.369786
4673.772117
4676.297864
4672.810992
4666.999539
4671.022853
4672.051033
4671.313425
4673.325082
4669.637045
4668.966492
4671.581646
4667.78185
4667.424222
4667.357167
4669.458231
4672.632178
4665.569027
4665.591379
4672.431013
4671.581646
4666.597207
4661.992748
4668.452402
4664.227922
4657.008309
4656.963606
4660.405774
4665.457268
4660.137553
4652.91794
4659.668167
4663.132687
4662.931521
4663.825591
4665.658434
4665.658434
4667.446574
4669.525286
4667.692443
4668.184181
4666.418393
4666.5078
4668.474754
4676.834306
4675.739071
4666.418393
4667.647739
4672.922751
4678.577742
4679.762385
4671.358129
4678.063652
4677.303693
4675.493202
4672.229847
4675.269684
4677.147231
4674.934408
4675.001463
4668.541809
4676.767251
4673.705062
4670.039376
4671.492239
4670.486411
4669.257065
4665.904303
4664.317329
4671.402832
4668.519457
4669.145306
4677.124879
4679.292998
4673.146269
4671.313425
4666.530152
4669.145306
4673.101565
4667.357167
4661.50101
4662.238617
4662.0151
4660.517533
4659.399946
4665.144344
4663.602074
4662.260969
4656.740088
4662.842114
4668.81003
4667.379518
4662.260969
4665.077289
4663.490315
4663.713832
4660.60694
4659.958739
4669.033548
4670.240542
4667.446574
4665.725489
4670.3523
4674.532077
4663.602074
4661.679824
4663.870295
4667.78185
4664.026757
4659.087021
4663.713832
4666.820725
4665.256103
4661.031623
4662.953873
4665.501972
4662.819763
4669.122955
4668.67592
4675.448498
4678.689501
4672.878048
4659.556408
4659.601111
4657.567103
4643.95489
4628.889814
4632.913128
4634.477751
4622.474864
4611.813082
4613.802387
4620.329096
4619.971468
4622.631326
4626.431123
4628.554538
4620.999649
4618.205681
4621.357277
4630.297974
4626.252309
4624.441817
4629.672126
4627.392248
4622.832492
4620.127931
4622.318402
4620.574966
4628.57689
4628.666297
4625.201777
4624.777094
4629.336849
4625.559405
4625.648812
4625.335887
4624.955907
4623.212471
4628.398076
4628.979221
4632.533149
4633.494274
4631.035582
4636.042373
4636.712925
4635.774152
4628.912166
4631.236748
4635.841207
4639.864521
4633.538977
4626.744047
4629.359201
4636.042373
4630.767361
4627.436951
4629.314498
4628.353373
4622.072532
4622.966602
4632.130817
4631.884948
4627.414599
4622.161939
4624.73239
4627.705172
4631.460265
4627.459303
4625.380591
4630.677954
4631.817893
4623.70421
4623.659506
4625.067666
4623.637155
4623.19012
4621.312573
4623.480692
4623.748913
4625.090018
4623.056009
4626.65464
4628.509835
4625.268832
4624.821797
4624.933556
4632.756666
4630.789713
4631.817893
4633.784847
4631.728486
4631.616727
4628.621594
4627.772227
4628.95687
4629.158035
4627.258137
4630.297974
4631.348506
4630.052105
4626.207605
4625.000611
4627.839282
4624.039486
4623.927727
4624.687687
4627.079323
4630.901471
4629.068628
4623.257175
4625.782922
4630.566195
4630.633251
4625.24648
4628.733352
4636.623518
4634.365992
4627.951041
4628.353373
4626.766399
4618.853881
4623.368934
4630.186216
4637.67405
4638.299899
4643.261986
4656.605978
4671.827516
4669.592341
4663.311501
4662.976225
4667.91596
4671.492239
4669.882914
4665.971359
4664.898475
4666.5078
4660.897513
4657.745917
4665.010234
4670.486411
4663.17739
4657.835324
4662.976225
4664.384385
4658.841152
4658.885856
4662.462135
4664.674957
4665.680786
4658.952911
4658.729393
4663.602074
4672.27455
4668.564161
4663.04328
4666.328986
4664.786716
4662.998577
4661.880989
4669.301768
4673.615655
4670.262893
4661.858638
4661.590417
4664.227922
4663.982053
4658.952911
4656.985957
4666.217228
4663.713832
4656.069536
4657.768268
4663.780888
4666.284283
4663.065632
4656.270701
4660.98692
4668.184181
4663.065632
4654.639024
4660.383422
4665.613731
4656.650681
4655.264873
4664.987882
4663.780888
4664.160867
4660.09285
4660.696347
4666.954835
4664.160867
4658.751745
4662.842114
4672.363957
4665.747841
4664.563199
4663.378556
4669.234713
4670.799335
4662.819763
4661.813934
4666.440745
4673.794469
4667.804202
4661.925693
4670.754632
4675.85083
4670.687577
4669.905266
4680.634103
4677.482507
4671.380481
4667.021891
4670.642873
4675.247332
4675.046167
4667.848905
4666.843077
4673.660359
4671.581646
4661.411603
4667.379518
4671.000501
4669.994673
4665.434917
4664.764364
4668.29594
4672.609827
4668.452402
4663.624425
4663.087983
4667.468925
4664.317329
4658.617635
4662.953873
4668.877085
4663.222094
4656.002481
4659.690518
4667.826553
4665.546675
4662.328024
4659.19878
4663.467963
4663.222094
4660.808106
4665.837248
4667.26776
4669.011196
4667.133649
4663.870295
4664.496143
4667.290111
4662.52919
4663.602074
4665.166696
4670.08408
4668.452402
4663.04328
4666.239579
4667.26776
4662.596245
4653.968472
4660.137553
4669.815859
4667.133649
4661.925693
4661.25514
4666.083117
4666.999539
4662.171562
4659.176428
4660.875161
4667.983016
4666.485449
4662.596245
4667.893609
4671.805164
4665.323158
4664.898475
4665.971359
4670.799335
4665.591379
4665.300806
4671.62635
4673.839173
4673.5486
4674.777946
4683.092795
4686.803184
4689.328931
4683.740995
4671.62635
4671.380481
4675.60496
4662.350376
4653.499085
4650.4816
4645.474809
4628.465131
4625.11237
4631.572024
4635.461227
4631.706134
4628.398076
4628.286317
4631.348506
4628.465131
4624.620631
4628.331021
4636.444704
4632.93548
4626.855806
4626.609937
4632.980184
4630.096809
4624.240652
4625.179425
4628.889814
4629.180387
4627.951041
4625.827625
4629.560367
4630.588547
4626.878157
4628.331021
4625.559405
4627.124027
4621.089056
4617.736294
4616.842224
4605.822814
4601.307762
4608.393265
4622.81014
4635.729448
4631.52732
4630.521492
4633.203701
4634.500102
4634.455399
4634.433047
4631.326155
4634.254233
4630.543844
4624.419466
4629.403905
4636.109428
4627.369896
4619.122102
4615.098788
4620.910242
4627.995745
4623.860672
4618.183329
4620.396152
4625.045314
4627.347544
4622.497216
4624.441817
4623.659506
4625.291184
4619.546785
4623.70421
4628.509835
4627.146378
4618.697419
4617.065742
4621.40198
4612.573041
4612.260117
4623.32423
4631.370858
4638.121085
4646.212416
4651.196855
4665.47962
4678.734205
4683.316312
4683.15985
4697.107339
4700.191879
4696.079158
4692.39112
4693.329894
4696.503841
4696.727359
4688.233696
4689.82067
4694.961571
4697.017932
4692.167603
4693.307542
4696.682655
4697.084987
4694.492184
4693.888687
4700.616562
4700.97419
4697.241449
4694.089853
4694.492184
4700.191879
4694.492184
4690.759443
4695.408606
4694.000446
4694.782757
4687.607847
4689.641856
4693.307542
4691.161775
4681.215248
4686.222039
4684.433899
4682.221077
4678.689501
4681.170545
4695.050978
4692.614638
4686.959647
4679.807088
4682.288132
4690.312408
4685.998522
4684.56801
4687.38433
4693.776929
4691.452347
4683.942161
4685.886763
4690.84885
4692.1229
4686.311446
4690.71474
4693.262839
4693.061673
4693.687522
4692.39112
4693.28519
4696.056807
4690.915905
4687.272571
4696.861469
4696.928525
4695.07333
4696.347379
4703.812862
4709.93724
4703.566993
4695.9674
4701.532984
4701.22006
4695.855641
4690.044187
4694.983923
4701.108301
4697.979057
4691.653513
4695.386254
4702.158833
4698.247278
4692.547583
4694.626295
4698.314333
4693.978094
4689.641856
4691.206478
4698.716664
4697.979057
4692.055844
4698.448443
4705.444539
4699.096644
4695.520365
4698.448443
4703.611696
4702.941144
4698.850775
4693.329894
4694.55924
4697.375559
4694.626295
4693.084025
4695.743882
4701.980019
4700.638914
4689.485394
4690.915905
4698.02376
4698.046112
4695.766234
4693.620466
4703.075254
4701.600039
4694.358074
4692.793452
4697.219097
4700.773025
4695.296847
4695.565068
4698.627257
4698.426091
4697.979057
4695.565068
4698.91783
4701.130653
4707.031513
4711.077179
4699.744844
4692.100548
4697.330856
4687.965475
4681.37171
4684.56801
4675.940237
4676.230809
4676.387271
4683.53983
4680.589399
4679.784737
4676.655492
4676.230809
4680.097661
4673.615655
4670.776984
4680.298827
4685.171507
4680.522344
4675.269684
4678.264818
4682.757519
4683.53983
4676.856658
4679.069481
4686.914943
4681.930504
4679.740033
4682.958684
4687.361978
4684.769176
4672.922751
4670.799335
4676.566085
4679.337702
4671.603998
4667.111298
4673.392138
4674.085042
4670.620521
4670.262893
4670.374652
4674.465021
4672.386309
4668.184181
4675.381443
4688.837193
4681.259952
4666.686614
4666.060766
4668.184181
4659.131725
4647.106486
4646.145361
4651.107448
4643.418448
4641.652661
4642.770248
4648.805219
4650.4816
4647.240597
4639.864521
4641.675012
4647.553521
4645.407754
4640.468018
4643.463152
4643.463152
4638.299899
4638.523416
4638.299899
4642.300861
4637.070553
4633.158998
4632.622556
4640.959756
4638.277547
4628.107503
4635.37182
4647.79939
4649.162847
4641.719716
4645.675975
4647.732335
4642.770248
4643.038469
4641.183274
4646.458286
4651.196855
4648.782867
4646.704155
4652.582664
4659.310539
4652.180332
4651.532132
4652.560312
4656.516571
4651.64389
4643.552559
4642.077344
4650.638062
4652.180332
4642.233806
4642.41262
4651.040393
4649.475771
4650.414544
4652.314443
4653.454382
4651.778001
4645.519512
4640.959756
4644.670146
4649.185198
4647.955853
4646.994727
4648.000556
4646.994727
4642.41262
4637.495236
4639.46219
4644.938367
4647.441762
4639.417486
4640.088038
4651.152152
4643.172579
4631.437913
4634.20953
4640.177445
4647.106486
4644.312518
4638.121085
4644.71485
4643.776076
4636.77998
4636.77998
4636.869387
4644.33487
4638.56812
4642.166751
4646.234768
4643.597262
4636.623518
4637.115256
4648.514646
4653.81201
4648.849922
4658.1706
4674.599132
4686.534963
4691.094719
4692.547583
4692.614638
4693.486356
4694.291019
4690.670036
4687.674902
4691.139423
4693.933391
4691.429995
4691.988789
4700.281286
4698.247278
4692.860507
4686.177336
4689.731263
4690.781795
4687.227868
4679.69533
4678.577742
4685.193859
4687.227868
4682.511649
4679.762385
4683.584533
4690.401815
4680.969379
4677.3931
4687.786661
4690.759443
4683.830402
4684.612713
4689.30658
4694.156908
4696.012103
4690.066539
4688.79249
4690.357112
4686.043225
4688.703083
4699.163699
4703.902269
4694.089853
4686.691426
4697.286153
4711.501862
4702.427054
4692.212307
4697.800243
4699.856603
4694.872164
4693.396949
4693.262839
4697.50967
4697.64378
4688.79249
4687.697254
4694.291019
4697.979057
4694.827461
4692.838155
4698.180222
4701.600039
4691.944086
4689.284228
4689.95478
4692.324065
4697.688484
4691.273533
4692.882859
4688.971304
4685.551487
4679.404757
4676.566085
4683.875106
4688.03253
4679.784737
4678.689501
4689.910077
4691.608809
4687.89842
4682.377539
4684.322141
4688.568972
4679.248295
4679.404757
4680.142365
4684.992693
4680.455289
4681.014083
4685.573838
4693.061673
4692.324065
4687.473737
4695.565068
4701.86826
4695.028626
4690.647684
4692.815804
4692.189955
4690.021836
4690.491222
4695.58742
4703.164661
4698.806071
4694.223964
4697.666132
4700.303638
4700.32599
4694.492184
4690.267705
4693.66517
4700.281286
4695.632123
4696.213269
4697.308504
4702.494109
4702.114129
4695.9674
4700.571859
4706.115092
4700.303638
4688.9266
4696.973228
4701.600039
4702.494109
4700.057769
4698.135519
4700.370693
4704.796339
4697.241449
4696.705007
4701.421225
4702.114129
4694.670998
4695.095682
4697.688484
4695.855641
4696.503841
4692.39112
4690.178298
4692.927562
4690.781795
4690.781795
4690.46887
4693.28519
4688.904248
4691.161775
4685.730301
4688.010179
4690.602981
4687.51844
4689.239525
4691.474699
4691.36294
4689.485394
4685.618542
4692.7711
4696.257972
4689.686559
4685.059748
4688.591324
4692.994618
4695.743882
4692.949914
4693.15108
4693.396949
4694.067501
4686.512612
4677.683673
4675.426146
4668.474754
4669.7041
4678.197763
4686.11028
4682.601056
4678.197763
4679.360053
4678.533039
4675.493202
4676.208457
4674.979112
4681.662283
4685.640894
4674.107394
4675.224981
4678.510687
4677.974245
4672.766289
4676.387271
4679.471812
4680.298827
4671.24637
4671.358129
4677.147231
4676.588437
4679.31535
4673.816821
4679.114184
4684.299789
4680.72351
4676.49903
4673.280379
4682.355187
4685.059748
4681.75169
4680.812917
4683.003388
4683.606885
4681.10349
4678.980074
4688.457213
4690.580629
4692.324065
4687.764309
4688.658379
4703.343475
4699.655437
4693.173432
4689.574801
4695.252144
4689.530097
4686.534963
4694.581591
4699.744844
4693.553411
4684.657417
4686.780833
4691.675865
4696.682655
4687.026702
4688.457213
4696.794414
4697.800243
4689.485394
4683.226905
4689.552449
4690.737091
4689.083062
4690.379463
4698.068464
4699.029589
4693.642818
4692.279362
4695.9674
4702.270592
4699.923658
4693.374597
4691.899382
4695.833289
4700.750673
4696.682655
4692.882859
4697.64378
4697.420263
4695.341551
4695.050978
4693.084025
4696.906173
4693.486356
4693.776929
4696.593248
4701.063597
4701.063597
4699.186051
4700.773025
4700.929487
4699.074292
4691.340588
4694.223964
4699.498975
4700.817728
4692.569934
4693.061673
4699.074292
4698.046112
4694.849812
4695.095682
4703.321124
4708.976115
4697.084987
4694.492184
4695.07333
4706.070388
4706.182147
4701.175356
4707.590307
4707.478548
4709.579612
4699.878955
4703.097606
4710.630144
4714.519347
4703.835214
4689.932429
4688.434862
4682.64576
4677.348396
4671.402832
4668.117126
4664.786716
4657.969434
4653.119105
4658.125896
4656.181294
4652.873236
4654.951949
4655.756611
4665.34551
4653.879065
4650.682765
4658.885856
4665.725489
4663.222094
4659.869332
4657.053012
4655.73426
4652.426201
4653.275568
4656.38246
4659.869332
4656.158943
4654.348451
4653.43203
4659.623463
4655.264873
4656.561274
4653.364975
4656.360108
4662.775059
4653.588492
4648.55935
4659.33289
4664.652606
4660.294015
4661.076326
4662.52919
4662.953873
4656.404812
4654.661376
4660.897513
4664.227922
4658.751745
4654.951949
4661.880989
4668.43005
4661.769231
4654.661376
4655.309576
4659.511704
4658.975263
4653.744954
4656.069536
4657.79062
4657.164771
4650.749821
4649.833399
4655.153114
4656.851847
4649.676937
4648.380536
4650.10162
4653.141457
4652.493257
4647.374707
4650.191027
4654.370803
4648.31348
4646.547693
4651.599187
4656.89655
4651.688594
4649.296957
4651.800353
4651.800353
4648.581701
4645.117181
4645.988899
4650.906283
4656.047184
4654.706079
4645.87714
4652.426201
4652.113277
4648.872274
4644.133704
4651.576835
4657.298882
4650.369841
4650.749821
4656.270701
4664.607902
4661.992748
4656.225998
4657.924731
4657.812972
4660.070498
4657.522399
4656.158943
4660.673995
4658.237655
4655.48839
4650.928635
4655.846018
4658.438821
4652.873236
4652.493257
4654.057879
4661.188085
4659.19878
4658.416469
4662.059803
4662.685652
4658.438821
4655.980129
4657.500047
4658.528228
4659.355242
4666.016062
4668.519457
4668.474754
4670.821687
4668.877085
4674.040338
4674.532077
4676.834306
4670.933446
4665.904303
4671.916923
4673.392138
4671.514591
4667.357167
4667.893609
4678.689501
4671.402832
4666.060766
4669.771155
4671.358129
4670.531114
4668.877085
4668.742975
4672.609827
4666.038414
4662.976225
4671.603998
4673.03451
4668.67592
4669.122955
4669.614693
4671.335777
4676.119051
4670.419356
4665.99371
4667.960664
4670.709928
4670.240542
4666.328986
4669.145306
4678.220114
4671.939274
4664.697309
4663.467963
4670.017024
4670.151135
4665.501972
4662.6633
4664.563199
4664.227922
4660.204608
4664.384385
4669.100603
4667.379518
4666.038414
4664.920827
4671.536943
4673.258027
4664.540847
4662.216265
4665.837248
4666.954835
4665.680786
4669.480582
4679.583571
4681.818745
4675.493202
4678.242466
4679.203591
4678.063652
4670.866391
4669.905266
4675.694367
4682.891629
4680.432937
4681.483469
4678.041301
4677.124879
4675.336739
4676.677844
4675.314388
4676.454327
4675.336739
4670.419356
4670.151135
4673.16862
4670.262893
4666.463097
4669.234713
4675.157926
4675.202629
4669.905266
4667.468925
4667.983016
4673.794469
4668.318292
4661.277492
4660.852809
4664.540847
4667.960664
4667.334815
4669.100603
4670.374652
4671.827516
4670.151135
4673.794469
4674.085042
4669.346472
4661.478658
4663.870295
4669.994673
4666.865428
4659.399946
4661.076326
4669.525286
4670.911094
4667.178353
4665.613731
4667.893609
4670.464059
4667.558332
4666.217228
4668.564161
4668.117126
4667.178353
4661.925693
4662.551542
4667.603036
4667.066594
4665.658434
4666.686614
4668.653568
4668.67592
4667.893609
4665.233751
4667.021891
4672.878048
4671.24637
4668.452402
4673.481545
4677.549562
4670.665225
4663.222094
4670.039376
4670.464059
4670.642873
4669.637045
4672.028681
4673.593303
4673.593303
4667.647739
4673.481545
4671.916923
4671.469888
4663.93735
4667.513629
4672.989806
4672.498068
4668.340643
4667.78185
4668.742975
4672.051033
4665.233751
4664.384385
4670.307597
4668.452402
4667.692443
4660.98692
4660.852809
4664.853771
4669.368824
4671.492239
4672.766289
4684.679769
4685.842059
4679.985902
4684.500955
4693.531059
4691.988789
4692.39112
4695.9674
4698.604905
4697.532022
4693.464004
4693.396949
4698.001408
4694.715702
4690.312408
4690.021836
4694.939219
4698.247278
4692.078196
4685.551487
4690.938257
4685.395024
4684.545658
4686.065577
4688.993655
4693.329894
4691.117071
4689.887725
4692.435824
4695.676827
4693.039321
4687.697254
4685.327969
4689.44069
4692.994618
4692.525231
4694.223964
4693.66517
4693.888687
4695.475661
4692.145251
4694.313371
4689.753615
4684.411548
4683.808051
4682.466946
4691.139423
4692.882859
4693.575763
4694.089853
4693.933391
4688.680731
4683.338664
4682.556353
4694.223964
4699.700141
4692.905211
4690.46887
4697.330856
4699.677789
4693.843984
4688.077234
4691.921734
4703.6564
4701.667094
4694.894516
4701.711798
4699.968362
4694.626295
4691.608809
4695.095682
4698.850775
4696.302676
4692.704045
4693.754577
4701.957667
4704.215193
4700.84008
4698.91783
4697.688484
4691.988789
4690.871202
4691.809975
4699.342513
4708.618487
4694.514536
4684.992693
4689.172469
4692.212307
4680.052958
4668.005367
4675.336739
4674.688539
4659.131725
4654.169637
4650.928635
4652.493257
4653.655547
4651.755649
4654.571969
4652.694422
4653.633196
4653.588492
4652.292091
4650.347489
4648.291129
4650.4816
4653.923768
4655.264873
4658.662338
4654.147286
4653.94612
4659.131725
4657.902379
4657.432992
4654.281396
4655.175466
4656.002481
4653.588492
4653.81201
4656.181294
4655.711908
4654.214341
4655.913074
4654.661376
4659.958739
4658.148248
4651.88976
4650.705117
4655.130762
4653.633196
4645.273643
4638.322251
4647.017079
4647.620576
4643.105524
4641.585605
4648.715812
4656.76244
4651.465076
4650.056916
4646.748858
4647.2853
4646.502989
4644.156056
4645.899492
4645.385402
4648.358184
4638.679879
4641.965585
4652.426201
4648.224073
4648.469943
4647.330004
4657.343585
4657.567103
4649.162847
4647.173541
4658.036489
4654.035527
4650.503951
4649.252254
4653.454382
4656.918902
4656.270701
4654.102582
4651.263911
4652.850885
4654.795486
4652.940292
4651.308614
4656.337757
4664.630254
4668.117126
4670.531114
4665.792545
4671.335777
4674.666187
4682.534001
4690.893554
4682.332835
4678.689501
4679.248295
4682.534001
4685.484431
4680.656455
4679.471812
4687.473737
4684.389196
4678.331873
4673.727414
4677.840135
4677.326045
4675.381443
4672.922751
4675.672016
4680.812917
4676.789603
4674.219152
4679.225943
4684.18803
4686.333798
4679.225943
4680.544696
4678.242466
4670.419356
4664.227922
4667.200704
4673.325082
4675.314388
4673.16862
4673.883876
4676.387271
4679.963551
4674.979112
4671.425184
4679.158888
4682.802222
4686.914943
4681.75169
4683.53983
4681.863449
4680.634103
4679.807088
4677.929542
4683.182202
4683.696292
4682.802222
4681.975208
4685.283266
4682.086966
4676.320216
4676.253161
4680.745862
4683.428071
4678.957722
4682.355187
4694.000446
4693.441652
4686.020873
4681.304655
4682.489298
4689.753615
4684.70212
4680.567048
4685.015045
4688.770138
4684.992693
4679.248295
4683.15985
4690.737091
4689.708911
4683.964513
4676.342568
4681.148193
4691.161775
4695.520365
4685.998522
4682.556353
4692.324065
4700.258935
4693.66517
4692.793452
4693.575763
4685.886763
4685.59619
4688.725434
4689.686559
4684.70212
4677.236638
4681.349359
4688.345455
4684.880934
4680.745862
4683.450423
4687.786661
4686.49026
4682.399891
4679.762385
4685.216211
4691.541754
4681.774042
4675.940237
4681.282303
4682.77987
4678.086004
4677.750728
4678.80126
4681.863449
4677.169583
4677.102527
4674.375614
4672.475716
4677.862487
4675.493202
4677.706024
4677.080176
4673.481545
4671.402832
4669.592341
4676.119051
4673.5486
4672.363957
4673.705062
4678.711853
4673.258027
4666.328986
4662.953873
4665.837248
4669.748803
4670.486411
4667.804202
4672.609827
4672.207495
4669.502934
4669.7041
4675.426146
4677.817783
4671.11226
4668.228885
4673.369786
4680.477641
4678.778908
4671.693405
4673.839173
4677.795431
4677.728376
4680.589399
4680.097661
4681.952856
4676.901362
4672.676882
4670.262893
4677.817783
4677.057824
4675.783774
4674.330911
4679.091833
4681.192897
4673.92858
4674.241504
4678.600094
4683.495126
4682.042263
4681.215248
4682.556353
4682.735167
4677.460155
4669.078251
4670.709928
4672.27455
4672.431013
4671.380481
4675.582609
4680.589399
4677.124879
4672.52042
4669.83821
4677.169583
4680.075309
4674.174449
4668.161829
4673.123917
4673.92858
4670.620521
4669.681748
4673.660359
4674.621484
4670.017024
4665.032585
4666.127821
4676.856658
4671.045205
4668.944141
4669.815859
4678.108356
4675.113222
4666.172524
4668.921789
4675.292036
4675.09087
4671.648702
4674.353263
4678.465984
4677.840135
4675.426146
4672.386309
4674.889705
4682.64576
4682.556353
4677.504859
4678.220114
4680.20942
4678.890667
4678.555391
4683.986865
4689.530097
4685.998522
4677.951894
4681.036434
4683.740995
4681.997559
4682.444594
4677.415452
4676.633141
4682.466946
4678.041301
4676.610789
4683.092795
4682.399891
4680.410585
4683.226905
4683.584533
4682.623408
4674.152097
4676.834306
4682.824574
4680.388234
4673.68271
4677.258989
4685.104452
4687.138461
4684.165679
4677.303693
4682.221077
4688.054882
4687.920772
4682.489298
4681.818745
4688.077234
4693.441652
4685.484431
4683.942161
4684.769176
4686.62437
4690.46887
4687.965475
4685.864411
4688.457213
4682.086966
4682.064615
4687.294923
4691.653513
4689.395987
4684.433899
4686.557315
4689.239525
4688.300751
4678.868315
4674.710891
4684.389196
4682.77987
4678.175411
4678.398928
4678.622446
4676.186106
4672.252199
4673.660359
4683.53983
4685.797356
4675.359091
4672.028681
4681.058786
4677.52721
4674.1968
4671.603998
4668.228885
4673.5486
4670.553466
4669.145306
4678.890667
4686.579667
4684.880934
4683.249257
4684.322141
4688.03253
4683.048091
4672.922751
4674.465021
4685.864411
4684.836231
4679.248295
4683.986865
4690.111243
4691.497051
4686.736129
4685.59619
4688.591324
4694.04515
4693.128728
4689.463042
4692.25701
4693.642818
4686.49026
4677.124879
4674.710891
4686.914943
4683.785699
4677.191934
4676.610789
4682.109318
4683.450423
4675.672016
4675.60496
4681.595228
4685.529135
4683.472774
4681.058786
4684.18803
4681.125841
4680.544696
4677.370748
4680.544696
4686.892591
4676.655492
4671.268722
4676.029644
4679.740033
4676.342568
4673.68271
4682.310484
4681.595228
4681.304655
4673.16862
4674.085042
4680.388234
4680.20942
4676.901362
4681.058786
4689.083062
4690.513574
4685.126804
4676.633141
4684.433899
4688.345455
4678.93537
4673.615655
4687.026702
4688.814841
4683.986865
4683.53983
4688.814841
4686.62437
4681.304655
4675.381443
4680.365882
4688.770138
4686.222039
4683.517478
4681.75169
4689.038359
4686.400853
4673.392138
4673.481545
4677.147231
4678.622446
4671.089908
4670.307597
4678.465984
4685.395024
4683.964513
4681.304655
4684.992693
4691.117071
4679.762385
4678.577742
4685.506783
4690.021836
4683.450423
4681.572876
4680.030606
4682.601056
4684.277437
4678.980074
4672.296902
4679.963551
4680.388234
4676.744899
4679.874144
4684.322141
4685.59619
4683.003388
4682.64576
4690.737091
4696.973228
4691.139423
4689.865373
4690.826498
4693.911039
4688.747786
4683.942161
4687.853716
4691.720568
4690.915905
4685.305617
4687.00435
4692.882859
4690.759443
4683.271609
4687.741958
4692.100548
4693.396949
4690.915905
4684.344492
4688.479565
4693.106376
4684.635065
4681.528173
4685.484431
4688.144289
4687.920772
4685.819708
4687.361978
4689.463042
4686.534963
4680.902324
4688.636027
4689.485394
4684.120975
4683.964513
4685.350321
4687.406681
4680.634103
4681.259952
4685.842059
4684.232734
4680.321178
4673.5486
4672.900399
4680.298827
4684.076272
4681.528173
4682.310484
4685.439728
4685.685597
4682.981036
4676.744899
4680.634103
4690.602981
4684.813879
4679.404757
4685.0821
4686.467908
4684.500955
4681.148193
4683.338664
4685.104452
4686.691426
4681.282303
4681.61758
4692.994618
4696.794414
4686.780833
4683.651588
4687.920772
4689.530097
4682.466946
4683.003388
4686.780833
4686.825536
4687.853716
4683.15985
4679.538867
4684.925638
4681.975208
4679.31535
4683.003388
4688.144289
4687.853716
4682.310484
4684.903286
4690.357112
4685.417376
4679.427109
4679.091833
4684.612713
4683.450423
4676.387271
4675.023815
4683.450423
4685.551487
4684.836231
4681.863449
4682.489298
4686.289094
4685.730301
4678.108356
4683.562181
4688.099586
4685.350321
4681.595228
4682.64576
4687.227868
4683.361016
4682.377539
4683.450423
4687.183164
4685.775004
4684.56801
4686.087929
4685.037397
4681.706987
4687.205516
4688.837193
4690.424167
4688.814841
4676.49903
4675.068519
4685.730301
4688.680731
4684.724472
4684.925638
4685.797356
4690.245353
4686.065577
4677.974245
4679.427109
4687.250219
4685.998522
4684.299789
4686.020873
4692.793452
4695.72153
4690.960609
4690.915905
4702.091778
4699.56603
4699.186051
4696.861469
4700.370693
4699.700141
4701.085949
4700.303638
4699.186051
4703.254068
4698.850775
4697.50967
4700.929487
4704.617525
4696.772062
4693.911039
4698.359036
4703.052903
4700.303638
4695.877993
4699.834251
4703.075254
4703.27642
4697.621429
4696.906173
4698.336685
4694.335722
4691.318237
4695.296847
4701.331818
4706.495071
4694.782757
4689.060711
4697.733187
4698.247278
4695.386254
4692.301714
4693.66517
4694.000446
4695.050978
4693.28519
4690.357112
4695.58742
4693.598115
4693.776929
4690.692388
4693.66517
4684.769176
4683.53983
4685.059748
4687.183164
4692.592286
4689.261876
4684.05392
4691.072368
4688.881897
4682.221077
4683.316312
4690.804147
4695.118033
4691.206478
4687.227868
4686.423205
4689.44069
4690.088891
4686.244391
4690.155946
4691.87703
4689.194821
4690.84885
4690.71474
4694.872164
4692.368769
4690.982961
4689.708911
4691.921734
4692.704045
4693.709873
4690.893554
4696.414434
4692.838155
4692.167603
4689.284228
4695.118033
4697.688484
4699.029589
4695.542716
4695.9674
4698.40374
4693.329894
4684.769176
4690.044187
4698.694312
4695.945048
4692.100548
4694.134557
4694.603943
4692.25701
4693.128728
4695.676827
4695.520365
4694.872164
4690.20065
4688.881897
4696.034455
4697.353208
4692.167603
4687.51844
4691.474699
4698.761368
4695.341551
4686.892591
4693.955743
4700.705969
4692.726397
4686.445556
4688.345455
4692.502879
4695.408606
4693.598115
4696.414434
4697.442615
4695.453309
4694.782757
4696.839118
4694.402777
4697.487318
4693.843984
4696.48149
4697.64378
4696.347379
4694.067501
4694.894516
4696.794414
4700.303638
4700.035417
4699.074292
4695.609772
4703.499937
4700.370693
4689.574801
4693.620466
4697.755539
4693.396949
4691.519402
4687.585495
4692.949914
4697.308504
4689.172469
4691.139423
4699.141347
4698.448443
4694.492184
4690.021836
4686.199687
4690.915905
4685.618542
4686.467908
4691.832327
4688.837193
4688.703083
4687.563144
4695.855641
4700.862432
4702.717626
4698.671961
4692.681693
4689.261876
4680.969379
4674.174449
4672.095737
4675.135574
4680.499992
4674.286207
4670.441707
4686.534963
4690.088891
4678.913019
4681.2376
4680.142365
4673.481545
4669.748803
4673.526248
4674.845001
4682.623408
4683.226905
4679.628274
4681.975208
4683.003388
4685.551487
4684.657417
4688.300751
4689.686559
4684.657417
4684.836231
4685.350321
4688.233696
4686.222039
4684.858583
4688.300751
4688.904248
4689.664208
4686.736129
4686.847888
4693.642818
4690.71474
4683.919809
4685.283266
4687.183164
4693.262839
4689.574801
4688.859545
4694.402777
4692.480527
4691.117071
4690.20065
4693.933391
4694.291019
4686.065577
4684.389196
4684.791527
4688.747786
4683.383367
4677.951894
4680.254123
4684.992693
4681.192897
4678.913019
4680.432937
4681.37171
4683.383367
4686.356149
4686.512612
4687.51844
4689.753615
4685.395024
4681.550524
4689.30658
4687.674902
4684.769176
4680.656455
4689.016007
4692.055844
4687.138461
4680.879972
4685.730301
4692.25701
4687.786661
4678.644798
4678.197763
4681.975208
4685.886763
4681.327007
4676.186106
4682.534001
4680.075309
4675.359091
4675.180277
4681.975208
4689.641856
4691.87703
4688.54662
4691.586458
4690.178298
4687.697254
4686.736129
4694.872164
4699.767196
4701.555336
4700.013065
4695.296847
4691.340588
4690.71474
4692.458176
4699.230754
4701.801205
4698.91783
4698.649609
4696.861469
4692.167603
4701.980019
4702.695275
4698.850775
4702.359999
4701.532984
4699.722493
4697.286153
4699.744844
4704.192842
4694.983923
4690.737091
4696.526193
4695.118033
4695.654475
4694.380426
4695.006275
4698.940182
4698.515498
4689.016007
4683.048091
4690.133594
4688.636027
4687.630199
4687.250219
4689.843022
4695.453309
4692.346417
4684.389196
4691.273533
4695.9674
4692.324065
4685.260914
4684.657417
4688.725434
4687.987827
4682.601056
4686.669074
4689.530097
4690.960609
4687.741958
4688.256048
4688.300751
4690.245353
4684.612713
4687.00435
4692.949914
4691.184126
4683.986865
4689.150118
4692.145251
4694.536888
4694.17926
4691.474699
4691.809975
4695.162737
4696.123862
4689.463042
4687.138461
4690.602981
4687.876068
4688.233696
4693.933391
4700.817728
4692.614638
4695.900344
4695.20744
4699.521327
4701.73415
4691.586458
4687.809013
4696.392083
4699.543679
4697.286153
4694.380426
4693.642818
4694.738054
4692.63699
4693.173432
4697.017932
4697.621429
4698.783719
4691.340588
4691.541754
4694.782757
4686.467908
4680.276475
4687.89842
4695.386254
4690.602981
4690.312408
4687.831365
4689.463042
4692.838155
4682.109318
4673.839173
4683.070443
4688.568972
4684.009216
4685.797356
4685.618542
4683.338664
4680.432937
4679.538867
4685.663245
4688.568972
4687.809013
4688.814841
4693.642818
4693.531059
4696.146214
4694.000446
4698.560202
4698.314333
4695.945048
4690.424167
4687.630199
4683.53983
4682.981036
4687.38433
4685.015045
4691.273533
4695.9674
4686.087929
4685.685597
4694.425129
4694.067501
4687.093757
4686.222039
4689.44069
4691.541754
4685.529135
4682.109318
4683.875106
4689.932429
4685.104452
4682.198725
4686.512612
4689.95478
4681.975208
4682.377539
4687.607847
4689.083062
4691.653513
4681.662283
4680.812917
4686.736129
4690.938257
4684.009216
4682.77987
4683.182202
4679.963551
4674.889705
4673.68271
4682.757519
4686.803184
4685.126804
4683.875106
4688.904248
4694.223964
4690.245353
4688.144289
4687.294923
4692.145251
4692.413472
4687.00435
4683.986865
4687.473737
4691.564106
4685.439728
4684.724472
4682.377539
4684.769176
4686.356149
4681.2376
4681.081138
4682.936333
4682.198725
4681.818745
4681.550524
4684.523306
4684.411548
4679.672978
4681.483469
4688.680731
4688.568972
4680.20942
4684.433899
4686.557315
4683.584533
4678.465984
4683.428071
4689.284228
4681.081138
4672.989806
4672.453364
4679.650626
4679.851792
4677.683673
4670.441707
4675.403795
4682.086966
4678.086004
4670.486411
4675.09087
4680.924676
4679.360053
4671.62635
4674.286207
4682.623408
4678.756556
4670.195838
4672.587475
4676.320216
4676.186106
4670.866391
4676.119051
4683.808051
4689.373635
4679.69533
4674.57678
4681.61758
4685.171507
4678.175411
4675.672016
4679.740033
4682.601056
4671.939274
4664.853771
4673.593303
4679.31535
4670.464059
4669.458231
4675.716719
4675.560257
4676.186106
4669.011196
4672.073385
4678.667149
4678.644798
4671.849867
4671.156963
4676.722548
4682.444594
4672.766289
4671.603998
4681.572876
4685.417376
4680.164716
4674.107394
4679.047129
4680.142365
4677.795431
4673.883876
4675.001463
4682.355187
4680.432937
4674.040338
4678.845963
4679.44946
4674.152097
4671.805164
4672.989806
4677.080176
4679.382405
4677.035472
4680.321178
4684.210382
4682.556353
4673.816821
4674.666187
4680.187068
4687.138461
4682.913981
4678.957722
4683.651588
4682.757519
4673.280379
4668.541809
4678.220114
4694.067501
4692.614638
4681.885801
4679.248295
4691.787623
4699.588382
4697.64378
4693.642818
4697.688484
4693.262839
4689.194821
4690.178298
4696.950876
4700.683618
4696.325028
4698.068464
4703.566993
4700.683618
4693.039321
4694.425129
4694.626295
4699.521327
4700.594211
4701.600039
4704.908097
4709.445501
4706.115092
4698.493147
4699.342513
4708.439673
4702.494109
4698.001408
4701.331818
4707.679714
4708.484376
4695.609772
4689.686559
4703.902269
4714.385237
4706.919754
4702.047074
4698.269629
4705.556298
4702.315295
4705.221022
4717.559185
4717.536833
4707.612658
4693.776929
4699.096644
4701.287115
4700.817728
4692.480527
4697.88965
4705.511594
4702.225888
4692.368769
4692.838155
4698.336685
4692.078196
4685.819708
4684.992693
4693.933391
4695.386254
4687.026702
4684.389196
4693.911039
4689.708911
4682.757519
4684.791527
4690.044187
4690.133594
4686.244391
4687.227868
4685.059748
4689.194821
4690.647684
4689.798318
4688.9266
4688.9266
4690.670036
4689.530097
4688.636027
4689.016007
4683.651588
4678.041301
4684.165679
4686.914943
4682.936333
4681.908152
4682.399891
4685.439728
4685.0821
4681.841097
4683.964513
4689.530097
4686.512612
4687.071405
4688.345455
4688.457213
4690.178298
4692.055844
4690.133594
4691.921734
4693.866336
4692.324065
4687.294923
4690.46887
4694.223964
4693.106376
4685.372673
4686.937295
4691.340588
4694.492184
4694.581591
4697.084987
4700.661266
4705.511594
4697.50967
4690.826498
4692.838155
4699.141347
4698.582554
4694.939219
4695.766234
4696.056807
4696.079158
4694.536888
4697.912001
4698.806071
4695.900344
4692.547583
4694.626295
4698.582554
4701.443577
4698.202574
4697.040283
4696.012103
4696.436786
4693.039321
4689.261876
4690.535926
4692.659341
4692.994618
4686.378501
4694.156908
4700.527155
4692.25701
4690.357112
4689.753615
4700.482452
4694.916868
4685.506783
4691.295885
4696.123862
4695.520365
4692.704045
4689.910077
4697.912001
4694.581591
4691.117071
4696.369731
4699.320161
4697.822594
4692.413472
4685.573838
4695.430958
4702.89644
4694.425129
4684.836231
4691.899382
4691.720568
4689.887725
4689.641856
4691.765272
4690.267705
4687.026702
4686.669074
4689.910077
4688.121937
4683.137498
4682.623408
4686.467908
4689.887725
4689.418338
4683.696292
4677.52721
4695.453309
4696.190917
4687.585495
4685.909115
4686.512612
4693.329894
4688.188993
4681.952856
4691.631161
4695.028626
4689.418338
4682.444594
4689.731263
4700.191879
4695.050978
4683.472774
4686.803184
4704.572821
4708.685542
4695.72153
4687.563144
4693.732225
4693.396949
4692.212307
4696.190917
4699.543679
4696.123862
4694.805109
4697.375559
4699.968362
4699.543679
4686.892591
4684.791527
4693.352245
4699.543679
4693.508708
4690.71474
4693.441652
4696.034455
4689.798318
4691.117071
4693.531059
4692.614638
4688.345455
4686.87024
4688.904248
4696.213269
4694.648647
4687.786661
4688.859545
4694.872164
4693.866336
4689.373635
4685.395024
4691.139423
4696.526193
4691.564106
4690.267705
4696.347379
4699.320161
4696.6156
4691.944086
4696.280324
4700.080121
4699.253106
4698.202574
4693.329894
4700.124824
4697.867298
4695.07333
4696.794414
4698.336685
4694.112205
4690.044187
4693.888687
4697.50967
4693.307542
4693.933391
4689.82067
4692.189955
4693.128728
4687.51844
4692.793452
4698.873126
4699.94601
4691.474699
4686.333798
4690.245353
4692.7711
4689.217173
4683.808051
4683.830402
4693.15108
4691.921734
4685.417376
4685.953818
4686.467908
4692.592286
4686.199687
4688.814841
4695.386254
4696.883821
4690.021836
4683.852754
4683.718644
4691.474699
4682.668112
4683.316312
4690.111243
4690.602981
4685.305617
4684.232734
4690.513574
4695.498013
4692.055844
4688.256048
4690.893554
4693.709873
4691.094719
4686.020873
4685.238562
4692.704045
4696.459138
4688.077234
4683.115147
4687.361978
4685.819708
4679.360053
4681.327007
4689.463042
4689.597152
4687.361978
4681.483469
4685.909115
4689.708911
4684.523306
4681.885801
4680.142365
4686.199687
4687.406681
4684.94799
4688.524269
4689.82067
4685.484431
4680.276475
4683.830402
4686.669074
4687.227868
4681.997559
4681.528173
4684.94799
4687.00435
4681.528173
4678.980074
4686.736129
4685.0821
4675.180277
4666.440745
4676.789603
4676.566085
4667.088946
4666.954835
4669.681748
4677.795431
4684.120975
4671.156963
4670.195838
4677.281341
4678.644798
4671.24637
4672.14044
4679.516516
4678.644798
4676.923713
4671.201667
4675.381443
4678.734205
4672.967455
4673.414489
4673.258027
4677.795431
4673.705062
4668.139478
4672.386309
4678.689501
4666.776021
4660.584588
4672.699234
4677.080176
4672.498068
4666.530152
4667.200704
4673.816821
4669.681748
4664.764364
4663.400908
4668.944141
4671.380481
4664.540847
4660.361071
4662.685652
4667.513629
4657.902379
4658.192951
4671.961626
4674.152097
4675.627312
4680.455289
4684.925638
4684.724472
4682.891629
4677.571914
4687.943123
4696.861469
4687.294923
4682.601056
4685.126804
4692.011141
4693.933391
4685.909115
4681.37171
4685.775004
4685.283266
4679.672978
4680.321178
4688.367806
4690.401815
4686.087929
4686.065577
4686.467908
4691.36294
4682.221077
4681.997559
4690.424167
4688.747786
4686.199687
4685.439728
4685.305617
4690.580629
4684.724472
4683.226905
4682.712815
4685.283266
4685.149155
4678.130708
4676.476678
4684.322141
4683.606885
4679.762385
4681.841097
4685.730301
4686.333798
4684.098623
4683.048091
4689.485394
4691.608809
4684.679769
4681.885801
4684.05392
4689.105414
4686.959647
4680.812917
4682.891629
4688.300751
4682.489298
4678.108356
4681.975208
4688.54662
4689.217173
4680.790565
4683.942161
4688.256048
4687.652551
4685.730301
4687.89842
4692.301714
4687.272571
4680.008254
4671.961626
4679.471812
4676.677844
4673.92858
4669.212361
4669.927617
4682.936333
4675.940237
4670.374652
4672.945103
4677.01312
4677.549562
4673.012158
4671.671053
4673.593303
4669.145306
4664.697309
4669.234713
4670.531114
4668.184181
4663.780888
4662.864466
4671.134612
4670.486411
4668.117126
4667.021891
4669.458231
4672.855696
4672.118088
4669.368824
4673.816821
4676.275513
4670.799335
4669.19001
4676.141402
4680.947027
4679.158888
4673.772117
4679.292998
4692.659341
4688.971304
4677.236638
4678.264818
4689.708911
4698.202574
4693.374597
4684.590362
4689.105414
4701.86826
4704.438711
4698.180222
4691.698216
4695.274496
4696.503841
4691.541754
4689.865373
4698.180222
4696.123862
4689.418338
4688.2784
4692.234658
4690.223001
4685.551487
4689.105414
4694.022798
4693.486356
4689.418338
4687.361978
4693.084025
4695.520365
4686.266742
4677.124879
4684.925638
4687.764309
4679.225943
4680.589399
4690.088891
4692.234658
4688.859545
4685.46208
4689.597152
4690.602981
4683.338664
4683.584533
4685.59619
4686.512612
4686.423205
4681.729338
4688.077234
4691.117071
4691.22883
4686.758481
4688.837193
4691.653513
4689.261876
4684.657417
4685.618542
4685.998522
4690.804147
4690.267705
4690.401815
4694.514536
4694.715702
4690.759443
4682.981036
4687.00435
4692.1229
4692.838155
4685.842059
4686.557315
4689.708911
4689.261876
4687.160812
4688.077234
4690.044187
4688.658379
4679.292998
4679.158888
4683.15985
4680.879972
4677.728376
4677.303693
4684.500955
4689.731263
4685.909115
4682.913981
4685.909115
4684.411548
4682.176373
4679.918847
4678.175411
4686.177336
4685.439728
4683.003388
4684.299789
4691.474699
4685.350321
4676.566085
4678.28717
4683.964513
4684.925638
4678.823612
4680.947027
4693.911039
4693.66517
4683.092795
4685.216211
4691.161775
4689.261876
4687.496088
4684.791527
4693.173432
4695.788586
4690.558277
4684.836231
4685.283266
4690.558277
4685.752652
4682.221077
4683.897458
4690.647684
4690.580629
4686.914943
4684.992693
4688.859545
4688.457213
4682.64576
4684.523306
4686.713777
4684.657417
4681.192897
4676.49903
4682.243428
4687.853716
4681.528173
4679.091833
4683.53983
4687.987827
4684.210382
4675.828478
4680.991731
4681.483469
4680.544696
4679.471812
4682.578705
4685.909115
4684.836231
4679.404757
4680.85762
4687.473737
4688.479565
4681.259952
4678.42128
4687.138461
4689.485394
4682.690463
4681.796394
4686.579667
4693.15108
4693.486356
4689.753615
4692.301714
4694.603943
4693.173432
4689.530097
4691.988789
4696.749711
4692.033493
4688.524269
4687.920772
4693.598115
4693.329894
4689.083062
4689.641856
4695.07333
4693.28519
4688.2784
4686.423205
4690.223001
4696.570897
4687.071405
4681.259952
4685.305617
4685.327969
4686.199687
4680.008254
4686.400853
4691.899382
4689.373635
4687.652551
4687.205516
4685.775004
4681.930504
4680.656455
4675.60496
4680.879972
4673.146269
4671.894571
4678.197763
4683.740995
4682.154022
4680.745862
4678.376577
4680.701158
4684.590362
4680.030606
4678.890667
4684.903286
4685.283266
4673.749766
4666.150172
4674.263856
4682.869277
4680.187068
4676.163754
4676.297864
4682.086966
4675.448498
4672.27455
4680.030606
4689.999484
4687.697254
4677.080176
4686.937295
4688.2784
4686.423205
4683.092795
4682.221077
4688.814841
4690.982961
4687.853716
4679.69533
4684.433899
4688.703083
4683.338664
4679.360053
4680.075309
4686.244391
4682.042263
4677.750728
4678.734205
4681.505821
4681.572876
4679.650626
4677.303693
4679.047129
4681.304655
4676.521382
4672.609827
4674.420318
4682.869277
4686.847888
4685.484431
4686.557315
4692.860507
4698.560202
4700.102472
4704.416359
4703.321124
4696.682655
4692.435824
4704.3046
4711.680676
4705.846871
4695.945048
4699.29781
4705.757464
4704.17049
4702.427054
4697.084987
4710.160757
4705.355132
4697.397911
4698.470795
4699.767196
4699.633086
4695.565068
4697.733187
4705.645705
4710.250164
4702.471757
4695.498013
4702.89644
4701.35417
4695.363902
4691.698216
4694.380426
4700.884783
4700.214231
4699.141347
4700.97419
4704.796339
4698.113167
4693.061673
4694.939219
4698.448443
4690.602981
4685.46208
4688.524269
4689.038359
4692.458176
4692.435824
4690.290057
4696.034455
4699.43192
4691.541754
4688.256048
4689.351283
4693.933391
4683.651588
4681.416414
4685.395024
4693.553411
4699.29781
4689.083062
4681.37171
4690.491222
4693.329894
4684.165679
4686.11028
4691.22883
4687.00435
4681.438766
4679.360053
4688.188993
4687.250219
4683.584533
4687.563144
4688.9266
4689.977132
4682.869277
4679.851792
4681.818745
4688.993655
4686.244391
4681.10349
4680.634103
4690.871202
4684.120975
4678.309521
4682.489298
4684.858583
4678.622446
4675.649664
4679.538867
4687.607847
4682.623408
4675.426146
4683.942161
4688.568972
4689.418338
4682.109318
4676.208457
4676.767251
4673.615655
4661.232789
4662.953873
4672.207495
4671.224018
4669.145306
4667.111298
4672.207495
4679.740033
4677.571914
4672.52042
4677.52721
4679.091833
4677.460155
4675.180277
4673.056862
4678.443632
4676.789603
4669.525286
4673.816821
4684.05392
4687.227868
4680.902324
4675.560257
4680.768213
4686.534963
4678.197763
4676.141402
4686.445556
4688.010179
4681.259952
4679.427109
4684.411548
4690.580629
4689.753615
4684.813879
4687.89842
4692.614638
4682.377539
4681.684635
4682.981036
4684.545658
4689.150118
4683.53983
4677.01312
4681.774042
4682.824574
4676.186106
4676.297864
4681.058786
4682.26578
4680.187068
4672.431013
4680.34353
4685.685597
4683.048091
4678.510687
4680.947027
4688.077234
4680.231771
4672.341606
4676.968417
4683.137498
4678.868315
4671.24637
4671.268722
4679.069481
4681.662283
4672.252199
4676.610789
4679.740033
4683.226905
4673.950931
4670.844039
4675.224981
4675.672016
4677.348396
4675.001463
4686.289094
4681.215248
4662.797411
4666.37369
4680.254123
4683.852754
4685.46208
4675.828478
4691.541754
4704.103435
4698.314333
4689.105414
4688.636027
4699.454272
4699.29781
4695.498013
4693.687522
4691.608809
4697.286153
4696.593248
4688.323103
4697.286153
4702.047074
4695.900344
4687.987827
4689.977132
4689.127766
4686.646722
4684.05392
4687.786661
4696.012103
4691.295885
4693.933391
4695.699179
4701.376522
4699.856603
4695.788586
4694.112205
4700.929487
4703.231717
4695.654475
4694.827461
4704.930449
4707.925583
4703.008199
4695.050978
4704.058731
4710.160757
4700.549507
4693.754577
4700.214231
4703.544641
4696.6156
4692.301714
4700.124824
4702.158833
4696.682655
4689.798318
4689.060711
4698.046112
4692.212307
4686.669074
4694.648647
4701.108301
4695.565068
4687.697254
4688.770138
4695.833289
4695.72153
4688.03253
4687.563144
4694.402777
4698.224926
4692.547583
4686.11028
4692.279362
4697.084987
4688.591324
4686.244391
4686.736129
4693.240487
4689.910077
4694.402777
4702.985847
4703.052903
4692.994618
4686.423205
4684.724472
4686.736129
4679.18124
4667.021891
4668.81003
4674.107394
4677.52721
4672.319254
4669.949969
4675.046167
4678.845963
4673.302731
4673.392138
4674.733242
4681.975208
4677.460155
4672.699234
4671.603998
4678.577742
4673.213324
4669.480582
4669.748803
4676.230809
4675.627312
4666.261931
4664.45144
4671.581646
4672.185143
4672.185143
4673.503896
4673.906228
4676.409623
4669.167658
4661.746879
4670.575818
4670.039376
4661.098678
4662.372728
4660.696347
4663.870295
4662.104507
4657.79062
4660.785754
4668.228885
4667.580684
4669.19001
4673.839173
4675.940237
4670.687577
4669.726452
4677.728376
4687.026702
4682.846926
4669.145306
4674.733242
4689.105414
4691.22883
4686.669074
4684.389196
4691.921734
4694.648647
4697.912001
4704.863394
4714.29583
4713.044132
4706.09274
4695.900344
4692.212307
4690.20065
4689.641856
4685.707949
4687.876068
4696.056807
4693.888687
4686.646722
4684.56801
4693.173432
4690.938257
4687.809013
4687.361978
4698.202574
4692.25701
4686.534963
4684.232734
4686.154984
4689.194821
4685.842059
4684.679769
4687.741958
4692.413472
4685.216211
4678.130708
4685.864411
4688.524269
4687.607847
4681.550524
4687.38433
4692.502879
4687.89842
4680.097661
4682.891629
4688.121937
4688.747786
4682.77987
4684.635065
4691.36294
4688.41251
4682.556353
4679.292998
4679.985902
4686.020873
4689.217173
4680.321178
4683.875106
4687.339626
4683.450423
4682.802222
4684.791527
4692.480527
4692.815804
4683.204554
4687.250219
4689.798318
4689.597152
4685.439728
4686.356149
4690.491222
4689.351283
4686.780833
4690.312408
4696.168565
4689.038359
4681.684635
4683.226905
4684.746824
4684.769176
4684.657417
4682.243428
4689.44069
4692.614638
4690.938257
4686.981998
4689.910077
4692.927562
4692.279362
4687.51844
4685.752652
4689.351283
4689.775966
4692.368769
4690.088891
4693.978094
4693.262839
4687.339626
4693.933391
4701.532984
4696.906173
4685.149155
4681.483469
4682.846926
4683.092795
4675.627312
4664.473792
4663.378556
4675.403795
4671.11226
4666.954835
4673.772117
4679.963551
4677.214286
4672.945103
4671.536943
4676.789603
4679.136536
4669.234713
4670.419356
4679.985902
4678.309521
4672.14044
4669.994673
4673.950931
4671.335777
4668.027719
4662.484486
4666.910132
4674.06269
4668.564161
4665.121992
4672.028681
4674.889705
4669.592341
4669.257065
4670.285245
4671.939274
4673.883876
4667.245408
4668.854734
4678.510687
4677.3931
4672.766289
4670.933446
4674.733242
4678.823612
4674.465021
4671.201667
4675.962588
4679.18124
4676.789603
4666.954835
4669.502934
4667.513629
4672.185143
4675.940237
4672.766289
4681.684635
4684.18803
4686.266742
4686.11028
4684.009216
4685.126804
4678.086004
4679.292998
4685.775004
4682.846926
4678.577742
4676.521382
4684.679769
4687.071405
4682.601056
4681.885801
4682.154022
4683.338664
4681.975208
4680.052958
4685.707949
4683.584533
4678.197763
4680.745862
4682.712815
4687.51844
4685.752652
4684.433899
4688.613676
4691.787623
4686.937295
4683.53983
4686.579667
4692.435824
4689.843022
4685.0821
4683.830402
4694.827461
4699.342513
4688.680731
4688.345455
4695.743882
4693.709873
4684.769176
4688.054882
4692.569934
4693.173432
4691.988789
4686.691426
4690.223001
4689.239525
4688.770138
4683.606885
4689.95478
4699.230754
4698.91783
4692.614638
4692.502879
4692.368769
4691.273533
4683.092795
4684.791527
4688.457213
4688.524269
4685.238562
4685.037397
4689.194821
4688.636027
4680.120013
4681.908152
4691.139423
4689.82067
4683.271609
4681.930504
4686.669074
4692.592286
4684.56801
4681.684635
4686.62437
4693.486356
4687.317274
4683.562181
4688.367806
4688.390158
4689.619504
4684.791527
4685.663245
4690.982961
4690.625333
4684.411548
4682.668112
4688.077234
4688.79249
4692.681693
4694.738054
4696.459138
4694.492184
4694.738054
4690.826498
4696.079158
4700.035417
4693.754577
4688.03253
4691.452347
4697.688484
4695.296847
4689.395987
4693.396949
4696.883821
4694.670998
4684.992693
4687.205516
4693.486356
4693.508708
4689.30658
4690.625333
4691.139423
4690.647684
4687.853716
4685.193859
4687.093757
4694.223964
4693.843984
4687.00435
4691.586458
4695.989751
4695.498013
4692.25701
4695.609772
4696.392083
4693.061673
4690.826498
4692.547583
4695.632123
4693.508708
4689.82067
4692.033493
4693.531059
4697.755539
4690.602981
4688.747786
4691.027664
4694.827461
4692.279362
4689.127766
4692.614638
4699.878955
4699.901307
4694.961571
4692.324065
4696.526193
4692.860507
4686.11028
4691.429995
4697.442615
4690.84885
4685.305617
4688.814841
4692.614638
4693.128728
4689.105414
4688.859545
4694.156908
4691.474699
4690.178298
4689.217173
4692.614638
4697.844946
4690.915905
4686.803184
4692.212307
4692.704045
4683.986865
4677.236638
4684.009216
4694.648647
4689.999484
4681.416414
4684.679769
4693.28519
4691.027664
4688.457213
4687.853716
4693.553411
4693.508708
4689.574801
4685.015045
4692.324065
4698.381388
4685.797356
4681.438766
4689.284228
4695.006275
4688.54662
4686.959647
4691.74292
4693.732225
4687.741958
4683.562181
4686.400853
4693.419301
4687.473737
4682.109318
4686.333798
4693.531059
4694.156908
4688.03253
4690.84885
4692.279362
4688.568972
4681.528173
4680.812917
4685.193859
4683.338664
4681.304655
4683.651588
4686.043225
4685.417376
4680.432937
4687.160812
4690.84885
4690.088891
4687.406681
4684.903286
4681.215248
4683.606885
4680.20942
4676.901362
4674.643835
4673.392138
4669.569989
4665.032585
4673.973283
4677.191934
4678.018949
4671.916923
4671.916923
4675.269684
4675.672016
4669.681748
4670.575818
4673.973283
4674.532077
4670.464059
4666.708966
4674.666187
4681.37171
4674.06269
4672.810992
4677.90719
4681.483469
4678.197763
4668.631216
4668.787678
4671.805164
4673.503896
4672.14044
4671.425184
4678.577742
4680.097661
4675.98494
4676.834306
4678.778908
4683.942161
4674.934408
4669.592341
4676.074347
4681.416414
4670.531114
4669.100603
4673.101565
4671.738109
4669.011196
4669.19001
4673.392138
4676.476678
4678.130708
4674.509725
4676.968417
4683.226905
4681.37171
4674.107394
4671.872219
4678.398928
4681.908152
4674.621484
4673.436841
4676.208457
4677.169583
4674.129745
4672.766289
4681.036434
4685.015045
4683.629237
4682.466946
4683.338664
4681.483469
4677.124879
4674.263856
4681.327007
4684.880934
4679.963551
4671.268722
4672.386309
4674.330911
4673.772117
4673.593303
4674.845001
4675.202629
4675.09087
4667.133649
4671.939274
4675.716719
4674.777946
4678.957722
4679.203591
4676.476678
4678.175411
4676.208457
4671.603998
4678.689501
4691.027664
4681.416414
4671.514591
4682.77987
4687.406681
4675.448498
4670.307597
4670.911094
4681.394062
4681.908152
4677.437803
4677.460155
4678.398928
4680.656455
4673.213324
4673.638007
4675.448498
4673.5486
4662.752707
4648.984033
4660.539885
4684.098623
4671.201667
4660.875161
4664.943178
4671.603998
4667.133649
4661.433954
4658.572931
4659.154076
4656.270701
4653.05205
4660.584588
4665.099641
4659.936388
4653.744954
4651.64389
4654.214341
4658.68469
4660.450478
4661.076326
4664.049109
4663.266797
4659.601111
4651.733297
4659.176428
4666.88778
4664.540847
4659.467001
4663.713832
4667.737146
4668.072423
4671.380481
4669.055899
4670.799335
4667.245408
4669.748803
4670.061728
4668.340643
4666.261931
4667.960664
4666.619559
4666.843077
4664.205571
4669.972321
4667.178353
4658.349414
4663.579722
4661.836286
4657.611806
4660.808106
4663.892646
4654.281396
4656.784792
4656.225998
4656.829495
4659.176428
4650.816876
4653.387326
4660.629292
4656.047184
4648.447591
4651.420373
4656.404812
4650.034565
4647.777039
4655.019004
4653.163809
4646.100658
4642.41262
4644.916015
4647.084134
4650.079268
4642.680841
4641.607957
4650.056916
4644.089001
4639.238672
4639.08221
4651.688594
4650.302786
4645.005422
4643.753725
4648.671108
4648.425239
4640.62448
4635.774152
4637.808161
4640.847998
4650.503951
4648.268777
4642.971413
4652.873236
4650.302786
4647.307652
4647.777039
4646.435934
4645.564216
4645.564216
4645.87714
4649.453419
4644.84896
4644.737201
4642.367916
4648.425239
4653.43203
4649.945158
4646.704155
4650.973338
4652.984995
4656.941254
4648.469943
4649.766344
4656.337757
4653.543789
4650.436896
4644.379573
4643.641966
4652.202684
4651.778001
4650.436896
4650.727469
4651.554483
4651.822704
4649.140495
4653.856713
4651.912111
4648.872274
4645.005422
4651.64389
4660.361071
4646.681803
4638.501065
4647.553521
4652.247387
4647.486466
4651.64389
4658.192951
4659.846981
4657.187123
4648.671108
4644.290166
4650.191027
4647.464114
4640.691536
4645.385402
4654.728431
4653.610844
4647.039431
4641.742068
4650.526303
4655.108411
4652.694422
4644.759553
4648.045259
4654.817838
4654.795486
4660.472829
4658.461172
4661.12103
4656.427164
4648.447591
4640.445666
4644.759553
4648.335832
4655.197818
4664.227922
4659.735222
4654.102582
4651.018041
4650.861579
4651.822704
4655.153114
4650.302786
4646.078306
4651.912111
4662.260969
4659.534056
4654.035527
4652.582664
4655.778963
4654.482562
4648.112315
4658.952911
4664.07146
4656.963606
4647.106486
4647.955853
4654.996652
4656.941254
4652.448553
4652.001518
4659.176428
4659.601111
4653.744954
4651.733297
4652.225036
4652.761478
4650.705117
4654.571969
4661.992748
4657.745917
4647.218245
4648.626405
4656.516571
4661.366899
4655.063707
4645.787733
4648.358184
4655.242521
4652.649719
4647.397059
4642.144399
4646.324175
4655.801315
4654.884893
4651.465076
4657.745917
4656.628329
4652.761478
4652.314443
4655.175466
4648.581701
4641.585605
4635.908262
4647.084134
4654.437858
4649.341661
4645.74303
4640.669184
4637.227015
4641.965585
4636.601166
4634.835379
4645.094829
4652.672071
4648.067611
4648.984033
4654.057879
4653.834361
4645.564216
4645.072477
4655.220169
4662.953873
4660.182257
4656.225998
4659.087021
4661.299844
4657.254178
4652.761478
4657.053012
4658.68469
4653.879065
4649.743992
4655.48839
4663.892646
4654.706079
4652.247387
4661.25514
4667.424222
4663.244446
4658.796449
4667.759498
4676.968417
4672.945103
4670.933446
4667.625388
4672.542771
4679.762385
4672.989806
4667.40187
4670.933446
4675.672016
4671.291074
4661.568065
4669.949969
4677.147231
4670.017024
4662.976225
4669.771155
4675.113222
4668.787678
4661.746879
4670.531114
4675.515553
4674.889705
4670.866391
4673.235675
4670.240542
4667.558332
4665.300806
4664.473792
4672.810992
4680.656455
4673.705062
4663.244446
4669.793507
4673.190972
4666.999539
4659.221132
4667.245408
4673.369786
4672.766289
4668.631216
4671.849867
4681.997559
4685.395024
4676.051995
4676.454327
4681.192897
4680.298827
4671.358129
4676.163754
4686.154984
4681.61758
4677.258989
4678.93537
4683.361016
4688.859545
4675.917885
4676.700196
4685.909115
4689.865373
4683.897458
4680.052958
4684.456251
4691.050016
4685.439728
4679.382405
4684.389196
4686.445556
4683.226905
4680.745862
4681.259952
4682.511649
4679.292998
4672.989806
4682.578705
4687.294923
4691.385292
4683.562181
4679.047129
4686.646722
4689.150118
4682.534001
4683.942161
4687.51844
4680.969379
4671.492239
4673.325082
4682.086966
4684.769176
4680.365882
4671.335777
4672.766289
4678.80126
4676.856658
4668.139478
4672.632178
4681.148193
4679.270646
4673.727414
4673.503896
4679.628274
4674.397966
4667.379518
4666.664263
4671.447536
4676.856658
4672.319254
4663.736184
4669.011196
4675.403795
4667.647739
4669.435879
4670.3523
4664.138515
4657.254178
4659.57876
4669.771155
4672.207495
4662.976225
4651.755649
4657.41064
4665.904303
4662.931521
4657.65651
4657.857675
4666.418393
4669.7041
4660.495181
4653.990824
4661.053975
4659.377594
4651.442725
4653.990824
4658.68469
4660.204608
4650.034565
4646.033602
4653.56614
4658.394117
4650.012213
4648.134666
4653.700251
4658.975263
4654.884893
4644.513684
4655.533094
4665.323158
4660.517533
4656.24835
4655.019004
4659.042318
4661.523361
4645.832437
4643.30669
4656.002481
4654.169637
4643.753725
4638.299899
4649.565178
4656.516571
4654.057879
4650.682765
4656.047184
4654.102582
4644.357222
4630.856768
4644.893664
4655.063707
4647.397059
4639.886873
4641.071515
4649.609882
4646.726507
4632.108466
4631.817893
4630.923823
4632.153169
4622.854843
4616.819872
4627.235785
4622.94425
4609.332038
4606.940401
4609.242631
4610.315515
4610.360218
4606.15809
4605.778111
4606.850994
4602.31359
4599.944305
4603.788805
4601.196003
4594.713997
4591.338884
4600.547803
4602.671218
4593.507003
4587.494384
4590.444814
4594.937515
4595.093977
4586.890887
4580.386529
4584.409843
4591.718863
4587.986122
4581.302951
4576.81025
4583.314608
4582.509945
4578.7325
4579.693625
4583.247552
4578.643093
4576.363215
4578.263113
4578.419576
4577.70432
4571.736404
4576.542029
4581.459413
4574.440965
4562.97452
4564.181514
4574.642131
4579.380701
4562.639244
4564.047404
4577.145526
4574.262151
4568.271884
4567.578979
4574.977407
4581.258247
4577.950189
4567.668386
4573.34573
4583.538125
4579.514811
4567.958959
4567.109593
4572.049328
4565.120288
4558.414764
4562.683947
4572.496363
4573.85982
4562.281616
4566.997834
4578.911314
4577.279637
4572.675177
4572.228142
4570.887038
4570.01532
4563.600369
4559.487648
4566.014357
4566.014357
4559.532351
4559.264131
4562.08045
4564.38268
4562.303968
4560.068793
4563.756831
4566.886075
4566.215523
4564.24857
4565.723785
4574.530372
4571.065852
4562.952168
4564.405032
4568.003663
4564.24857
4556.559569
4560.91816
4577.033767
4584.298084
4571.199962
4562.751003
4569.233009
4569.881209
4560.269959
4571.624645
4587.002645
4580.721805
4574.306855
4569.367119
4576.452622
4581.951151
4578.598389
4573.301026
4571.55759
4579.335997
4577.994892
4568.651863
4569.545933
4576.966712
4583.649884
4580.27477
4568.696567
4573.882171
4574.888
4575.603256
4576.720843
4576.653788
4573.010453
4567.310759
4563.756831
4568.473049
4571.959921
4566.483744
4563.220389
4568.026014
4574.083337
4568.182477
4562.192209
4564.874418
4571.222314
4569.098898
4562.058099
4566.707261
4569.814154
4568.718918
4555.911369
4560.02409
4567.869552
4567.199
4564.539142
4558.99591
4559.666462
4556.425459
4551.57513
4557.833619
4566.729613
4569.12125
4565.768488
4556.090183
4560.269959
4567.489572
4564.650901
4558.414764
4558.280654
4565.768488
4570.171782
4562.996872
4562.102802
4567.288407
4566.014357
4558.906503
4560.381718
4569.322416
4569.948264
4559.957035
4557.498343
4565.768488
4574.351558
4574.865648
4578.039596
4579.179535
4581.973503
4579.24659
4573.412785
4574.910352
4580.408881
4575.78207
4568.651863
4570.954093
4582.71111
4580.721805
4579.179535
4579.783032
4583.806346
4582.44289
4577.033767
4569.63534
4573.412785
4578.754852
4576.43027
4579.961846
4589.707206
4587.516735
4578.508982
4581.526468
4594.244611
4597.262096
4582.912276
4570.797631
4579.604218
4591.785919
4592.411768
4580.230067
4580.163012
4580.520639
4582.867573
4586.399148
4589.327227
4596.815061
4597.3068
4587.628494
4588.589619
4594.691645
4594.758701
4592.590581
4593.775224
4595.719826
4601.173651
4597.686779
4588.321398
4588.522564
4598.893773
4600.033712
4592.478823
4594.132852
4598.111462
4597.955
4594.982218
4598.714959
4601.732445
4597.686779
4585.572134
4583.292256
4597.776186
4604.638172
4597.776186
4590.847145
4604.48171
4608.08034
4597.753834
4594.311666
4600.279582
4609.443797
4605.331076
4603.274715
4604.593468
4605.196965
4598.312628
4592.478823
4597.955
4605.934573
4606.783939
4602.917087
4602.805329
4605.554593
4602.604163
4590.668331
4589.684855
4597.396207
4597.217393
4595.65277
4596.166861
4594.915163
4589.953076
4586.823831
4590.355407
4594.222259
4596.770358
4589.662503
4587.606142
4595.630419
4607.43214
4610.404922
4596.725654
4588.611971
4598.446739
4591.852974
4583.761642
4591.964733
4608.437968
4607.387436
4605.375779
4596.099805
4600.413692
4597.597372
4589.506041
4594.266962
4604.437006
4606.001628
4602.157128
4594.803404
4601.419521
4612.707151
4611.768378
4600.681913
4599.631381
4600.838375
4598.491442
4596.748006
4596.658599
4602.715922
4604.548765
4595.697474
4597.619724
4598.625552
4595.13868
4596.256268
4603.922916
4610.986067
4609.689666
4601.531279
4600.279582
4609.443797
4612.394227
4604.772282
4601.061893
4604.705227
4608.437968
4604.794634
4605.085207
4610.516681
4608.303858
4600.860727
4600.279582
4608.370913
4614.897622
4617.1775
4609.935535
4606.493367
4609.980239
4608.549727
4603.766454
4607.208622
4612.528338
4602.69357
4592.925858
4601.911259
4618.406846
4618.272736
4606.471015
4600.25723
4608.527375
4613.981201
4608.147396
4609.399093
4616.953983
4619.010343
4611.298992
4602.69357
4609.734369
4621.647849
4616.350486
4605.152262
4602.604163
4612.081303
4613.154186
4606.471015
4599.787843
4601.754797
4608.639134
4612.528338
4610.851957
4610.404922
4610.851957
4604.124082
4606.940401
4616.14932
4621.200814
4614.137663
4603.922916
4607.163919
4616.484596
4618.228032
4612.215413
4610.807253
4616.506948
4614.450588
4614.09296
4605.912221
4607.633306
4609.667314
4612.349524
4614.495291
4617.289259
4617.848053
4609.510852
4607.499195
4616.641059
4625.76057
4615.389361
4610.360218
4615.590527
4618.183329
4609.801425
4602.872384
4606.135739
4612.126006
4616.886928
4615.612878
4611.41075
4618.406846
4617.1775
4613.936497
4622.586623
4632.80137
4624.441817
4610.695494
4609.980239
4611.79073
4616.998686
4617.445721
4615.925803
4618.96564
4619.278564
4614.942326
4611.231936
4609.130872
4612.774207
4620.731428
4623.257175
4619.47973
4623.83832
4612.908317
4603.319419
4613.891794
4625.939384
4630.297974
4618.540957
4619.680896
4621.893718
4618.07157
4616.01521
4616.752817
4622.184291
4622.072532
4610.539032
4604.548765
4601.888907
4619.323268
4620.284393
4613.780035
4620.910242
4623.994782
4619.971468
4611.589564
4616.618707
4623.860672
4618.96564
4605.711055
4606.940401
4614.517643
4612.908317
4604.325247
4599.832547
4604.369951
4605.062855
4594.512832
4598.33498
4596.591544
4595.809233
4593.708169
4583.404015
4585.706244
4584.812174
4574.753889
4569.747099
4566.595503
4569.523581
4566.886075
4557.20777
4562.728651
4563.734479
4555.41963
4550.301081
4550.681061
4554.056174
4559.800572
4557.252474
4555.15141
4556.581921
4552.916235
4544.422572
4543.193226
4549.786991
4551.329261
4545.696622
4542.030936
4548.334127
4550.636357
4548.200017
4545.80838
4547.037726
4548.378831
4543.304985
4544.042593
4545.517808
4549.205845
4545.875436
4538.700526
4539.572244
4544.020241
4542.679136
4540.04163
4536.107723
4543.014412
4542.790895
4538.968747
4533.157293
4543.439095
4558.660633
4561.387546
4554.25734
4568.048366
4581.057081
4585.706244
4592.255305
4602.671218
4605.554593
4599.653733
4596.479785
4598.133814
4600.413692
4599.541974
4599.944305
4599.072587
4602.17948
4602.17948
4598.044407
4595.920991
4599.072587
4604.10173
4594.021093
4590.467166
4597.887945
4598.178518
4592.70234
4591.785919
4600.994837
4601.173651
4597.619724
4594.155204
4596.703302
4602.917087
4599.854898
4590.511869
4597.150337
4602.581811
4600.39134
4593.305837
4594.468128
4597.262096
4599.318457
4592.679988
4595.988047
4605.711055
4603.341771
4597.552669
4599.296105
4599.094939
4600.637209
4601.508928
4600.234878
4598.223221
4601.28541
4596.278619
4592.836451
4599.676084
4609.555556
4604.816986
4598.536146
4600.972486
4608.616782
4603.051198
4595.719826
4600.167823
4603.520585
4597.843241
4590.154241
4595.13868
4605.085207
4606.895698
4601.955962
4600.39134
4604.884041
4613.154186
4603.900564
4599.541974
4603.20766
4607.007457
4606.381608
4600.748968
4605.174614
4604.682875
4601.017189
4596.055102
4603.408826
4609.734369
4606.471015
4600.860727
4602.402997
4601.643038
4602.671218
4609.421445
4610.181404
4614.294125
4622.29605
4619.792654
4625.62646
4642.971413
4654.437858
4658.30471
4651.263911
4656.673033
4656.337757
4649.453419
4641.943233
4651.576835
4655.555446
4649.274605
4644.893664
4650.973338
4652.53796
4644.357222
4645.988899
4649.855751
4648.112315
4645.653623
4646.502989
4649.72164
4655.041355
4649.408716
4643.776076
4645.340698
4655.48839
4658.036489
4652.940292
4650.593358
4658.885856
4657.321233
4647.128838
4644.267815
4648.358184
4651.308614
4648.894626
4640.959756
4642.233806
4644.267815
4643.664318
4642.524379
4645.407754
4655.957777
4655.443687
4648.849922
4649.296957
4652.716774
4656.76244
4648.112315
4646.234768
4650.369841
4651.599187
4647.307652
4645.675975
4648.648757
4647.2853
4643.999594
4641.742068
4645.675975
4648.69346
4646.793562
4637.048201
4640.669184
4648.380536
4649.475771
4645.407754
4641.026812
4647.039431
4645.787733
4638.009326
4637.718754
4651.353318
4652.649719
4640.847998
4638.56812
4646.972376
4653.722603
4651.822704
4654.907245
4653.767306
4653.364975
4648.134666
4646.458286
4654.236693
4658.68469
4652.694422
4647.2853
4648.69346
4656.293053
4649.520475
4646.435934
4651.755649
4656.605978
4658.125896
4649.252254
4653.454382
4671.380481
4667.133649
4646.547693
4642.300861
4652.515608
4649.855751
4637.405829
4625.604108
4626.006439
4621.424332
4613.19889
4604.928744
4612.126006
4621.603146
4618.250384
4610.136701
4612.930669
4621.737256
4623.257175
4616.730465
4620.843186
4627.280489
4629.09098
4622.273698
4620.50791
4625.447646
4624.307707
4618.07157
4616.104617
4627.883986
4628.398076
4622.340753
4613.265945
4620.038524
4630.253271
4625.604108
4620.060875
4625.224128
4626.229957
4621.111407
4613.57887
4620.396152
4620.194986
4620.105579
4618.362143
4619.166806
4624.531224
4625.469998
4621.26787
4618.339791
4623.32423
4621.513739
4616.976335
4617.490425
4618.563309
4621.200814
4615.992858
4612.640096
4619.144454
4621.089056
4617.736294
4616.864576
4619.166806
4626.855806
4622.743085
4612.461282
4617.93746
4624.017134
4624.263003
4621.536091
4621.26787
4619.882061
4613.936497
4613.57887
4615.590527
4621.089056
4623.70421
4616.618707
4612.193061
4619.390323
4619.166806
4613.19889
4616.574003
4625.715867
4628.599242
4621.357277
4617.55748
4611.142529
4614.405884
4623.301878
4622.854843
4626.878157
4635.707097
4648.224073
4652.068573
4655.331928
4666.105469
4665.971359
4656.315405
4653.588492
4662.953873
4661.858638
4657.120068
4655.35428
4659.019966
4662.6633
4656.874199
4651.532132
4656.114239
4662.305672
4657.030661
4654.035527
4662.864466
4667.871257
4663.669129
4657.522399
4660.584588
4666.530152
4665.971359
4657.477696
4660.919864
4666.686614
4666.284283
4662.104507
4658.1706
4665.949007
4670.642873
4663.378556
4659.869332
4662.328024
4658.192951
4655.398983
4658.260007
4662.775059
4666.776021
4665.211399
4655.153114
4656.225998
4663.602074
4656.181294
4650.816876
4647.888797
4659.042318
4661.925693
4653.968472
4656.069536
4661.545713
4659.19878
4653.163809
4649.766344
4657.745917
4661.545713
4652.15798
4645.027774
4651.241559
4659.57876
4659.802277
4658.751745
4664.987882
4667.893609
4662.417431
4656.494219
4659.042318
4665.904303
4665.792545
4662.037452
4662.640949
4662.998577
4663.803239
4653.767306
4658.841152
4668.474754
4666.731318
4661.076326
4662.596245
4668.81003
4666.5078
4664.719661
4660.808106
4665.837248
4671.62635
4662.14921
4660.025795
4666.127821
4663.758536
4660.159905
4656.963606
4660.696347
4667.446574
4663.93735
4659.534056
4662.14921
4666.37369
4659.534056
4654.996652
4657.634158
4661.456306
4665.367861
4657.567103
4651.465076
4654.259044
4657.991786
4659.757574
4658.528228
4661.970396
4664.429088
4659.802277
4652.828533
4660.495181
4669.927617
4665.881952
4658.349414
4663.289149
4672.609827
4672.252199
4667.290111
4678.086004
4680.388234
4663.691481
4653.610844
4655.063707
4660.070498
4654.549617
4649.676937
4649.118143
4643.664318
4645.720678
4635.796504
4635.595338
4646.458286
4650.548655
4641.630309
4642.256158
4647.307652
4652.269739
4649.274605
4645.720678
4645.474809
4647.2853
4641.764419
4635.550634
4641.429143
4641.406791
4646.234768
4643.932539
4647.687632
4652.359146
4650.258082
4645.117181
4642.747896
4648.514646
4652.828533
4647.620576
4640.937405
4650.906283
4653.208512
4645.318347
4642.457323
4650.012213
4658.975263
4661.188085
4660.964568
4663.445611
4662.886818
4652.828533
4642.569082
4640.579777
4647.173541
4648.671108
4641.026812
4634.388344
4642.479675
4647.754687
4638.165788
4638.165788
4645.22894
4648.246425
4639.864521
4640.400963
4641.563254
4645.944196
4643.418448
4636.26589
4642.41262
4644.871312
4640.423315
4640.289204
4645.564216
4646.726507
4642.770248
4643.016117
4646.458286
4653.499085
4653.543789
4647.888797
4644.066649
4650.861579
4647.598225
4639.618652
4641.205626
4644.98307
4645.87714
4643.776076
4645.273643
4650.191027
4654.46021
4646.793562
4643.865483
4644.021945
4646.413582
4638.679879
4632.376687
4643.709021
4646.659451
4639.238672
4638.590472
4641.049163
4645.653623
4643.150227
4638.456361
4635.729448
4641.362088
4645.988899
4637.741105
4632.175521
4641.026812
4643.172579
4633.896605
4631.750838
4637.718754
4642.278509
4636.310594
4637.718754
4645.318347
4643.239634
4639.059858
4634.008364
4636.556463
4641.540902
4637.718754
4633.471922
4642.390268
4642.7926
4634.790675
4636.712925
4646.547693
4659.176428
4658.930559
4649.229902
4657.008309
4669.346472
4672.408661
4664.093812
4661.746879
4671.469888
4673.123917
4668.698271
4664.83142
4669.480582
4676.901362
4668.67592
4660.808106
4664.45144
4671.380481
4672.27455
4662.819763
4663.825591
4669.547638
4666.396042
4655.801315
4656.784792
4665.949007
4664.339681
4656.516571
4656.449515
4661.925693
4661.232789
4660.450478
4659.176428
4668.564161
4669.949969
4662.462135
4656.494219
4655.846018
4660.718699
4657.142419
4651.040393
4656.114239
4660.919864
4655.510742
4647.642928
4652.560312
4656.427164
4655.287225
4651.308614
4650.392193
4659.176428
4654.281396
4651.934463
4649.520475
4655.376632
4656.471867
4649.364012
4646.570044
4651.822704
4657.27653
4653.81201
4651.532132
4658.148248
4667.066594
4666.37369
4657.611806
4658.908207
4667.312463
4668.117126
4655.73426
4658.30471
4664.049109
4662.842114
4654.281396
4648.335832
4660.338719
4662.216265
4651.085097
4645.720678
4654.393155
4659.243483
4650.861579
4649.118143
4658.394117
4657.723565
4650.638062
4644.089001
4646.435934
4655.600149
4653.700251
4650.302786
4652.15798
4659.914036
4653.879065
4646.860617
4649.811047
4659.981091
4656.561274
4646.234768
4649.565178
4652.91794
4654.303748
4650.61571
4652.381498
4657.522399
4660.294015
4655.041355
4652.314443
4658.081193
4657.678861
4649.185198
4644.536036
4649.855751
4649.162847
4647.374707
4641.116219
4643.530207
4653.588492
4656.158943
4647.79939
4644.379573
4652.984995
4654.817838
4649.341661
4645.87714
4653.387326
4653.81201
4645.050126
4647.978204
4657.835324
4659.467001
4648.961681
4653.655547
4660.808106
4660.316367
4657.857675
4651.532132
4655.175466
4661.992748
4658.662338
4652.448553
4648.358184
4654.661376
4654.706079
4651.152152
4654.929597
4662.417431
4657.365937
4650.146323
4651.755649
4659.355242
4660.294015
4651.465076
4650.973338
4654.057879
4655.86837
4649.140495
4650.191027
4657.075364
4663.780888
4659.511704
4652.314443
4652.202684
4655.466039
4649.028736
4649.252254
4656.337757
4663.959702
4660.137553
4650.705117
4650.369841
4653.81201
4646.279472
4644.357222
4646.994727
4651.398021
4651.353318
4647.598225
4646.123009
4651.733297
4655.711908
4648.916978
4638.813989
4639.641004
4645.720678
4642.256158
4635.014192
4639.506893
4650.280434
4646.570044
4636.802332
4640.62448
4645.161884
4645.675975
4642.099695
4636.288242
4642.077344
4646.592396
4639.886873
4640.803294
4647.888797
4647.039431
4643.30669
4639.46219
4642.41262
4648.827571
4643.127876
4634.790675
4636.221187
4642.189102
4638.791637
4634.611861
4641.540902
4646.972376
4641.026812
4642.189102
4646.547693
4650.146323
4645.430105
4637.830512
4641.764419
4650.749821
4653.364975
4642.882007
4639.015155
4646.011251
4647.464114
4642.92671
4638.277547
4643.95489
4649.520475
4639.395134
4634.097771
4641.205626
4642.92671
4640.62448
4636.221187
4640.892701
4646.279472
4644.893664
4636.064724
4643.999594
4646.681803
4643.30669
4634.72362
4639.909224
4648.335832
4645.273643
4639.395134
4641.51855
4655.130762
4652.359146
4647.039431
4645.161884
4657.567103
4653.253216
4644.491332
4647.218245
4650.414544
4653.521437
4651.822704
4645.698326
4650.727469
4654.035527
4649.676937
4646.100658
4650.392193
4656.89655
4653.56614
4641.093867
4638.56812
4653.968472
4660.830457
4658.30471
4657.924731
4661.925693
4668.474754
4667.625388
4664.07146
4663.020928
4669.078251
4665.390213
4660.98692
4658.327062
4661.858638
4657.880027
4654.46021
4661.25514
4666.776021
4662.171562
4653.43203
4657.388289
4664.607902
4663.445611
4655.041355
4652.381498
4659.310539
4656.494219
4654.035527
4658.796449
4665.211399
4664.719661
4655.86837
4654.035527
4662.998577
4664.272626
4660.763402
4660.361071
4658.1706
4662.6633
4658.863504
4652.381498
4652.02387
4660.539885
4659.511704
4658.081193
4667.737146
4672.989806
4669.547638
4663.110335
4663.713832
4668.072423
4664.362033
4654.102582
4657.365937
4667.513629
4666.708966
4659.042318
4657.745917
4664.049109
4663.959702
4660.137553
4655.622501
4660.09285
4666.5078
4662.953873
4660.003443
4660.74105
4667.066594
4665.971359
4658.952911
4662.439783
4663.579722
4660.204608
4659.757574
4661.992748
4668.139478
4670.59817
4661.746879
4664.183219
4667.021891
4664.652606
4658.505876
4655.421335
4663.646777
4670.21819
4666.932484
4662.328024
4668.586513
4669.391175
4666.127821
4659.690518
4650.816876
4656.002481
4653.163809
4643.485504
4642.300861
4641.853826
4638.344602
4628.57689
4630.588547
4643.552559
4644.357222
4636.288242
4636.064724
4642.434972
4642.390268
4638.121085
4639.484541
4642.323213
4641.697364
4638.389306
4633.360163
4638.791637
4650.280434
4644.647794
4633.606033
4635.058896
4640.289204
4641.071515
4634.880082
4639.5963
4646.815914
4641.764419
4637.115256
4638.277547
4644.200759
4644.424277
4636.936442
4639.551597
4648.045259
4647.844094
4640.289204
4638.746934
4644.312518
4646.279472
4644.111352
4639.909224
4643.641966
4647.330004
4641.876178
4635.058896
4633.918957
4640.400963
4637.115256
4634.075419
4636.288242
4642.479675
4641.183274
4633.31546
4634.030716
4639.775114
4640.847998
4633.471922
4635.148303
4643.530207
4644.223111
4635.37182
4632.443742
4640.311556
4644.916015
4642.211454
4633.002535
4636.109428
4643.217283
4642.345565
4641.160922
4642.92671
4645.295995
4643.038469
4634.701268
4636.042373
4646.882969
4642.859655
4633.404867
4636.802332
4642.54673
4645.340698
4640.11039
4636.556463
4643.597262
4642.345565
4641.250329
4637.338774
4639.171617
4640.043335
4633.918957
4632.868425
4634.500102
4642.256158
4637.606995
4627.16873
4629.783884
4639.350431
4635.729448
4633.047239
4637.629347
4641.563254
4641.13857
4639.015155
4638.05403
4645.720678
4645.385402
4634.298937
4635.148303
4639.909224
4640.155094
4633.382515
4633.002535
4637.472884
4639.953928
4640.646832
4638.277547
4640.311556
4645.787733
4639.864521
4633.047239
4637.741105
4649.296957
4644.625443
4634.991841
4638.635175
4640.289204
4641.585605
4635.796504
4636.154131
4643.932539
4640.87035
4635.774152
4637.919919
4641.362088
4649.140495
4646.39123
4636.154131
4635.260062
4647.128838
4647.844094
4644.71485
4650.280434
4652.448553
4654.996652
4655.935425
4660.562236
4668.921789
4667.513629
4656.181294
4659.623463
4668.318292
4662.640949
4660.249312
4664.116164
4668.519457
4666.038414
4661.657472
4656.002481
4661.12103
4663.758536
4658.975263
4655.846018
4662.283321
4663.646777
4662.082155
4658.975263
4668.921789
4671.402832
4662.216265
4659.779925
4662.708004
4666.664263
4665.34551
4657.164771
4662.328024
4666.060766
4663.780888
4657.097716
4661.25514
4663.758536
4660.539885
4657.321233
4654.929597
4664.227922
4663.378556
4655.466039
4659.623463
4663.93735
4667.938312
4659.645815
4651.733297
4654.549617
4657.455344
4656.516571
4652.783829
4653.320271
4657.902379
4660.808106
4656.851847
4655.220169
4663.199742
4660.294015
4656.650681
4659.690518
4662.52919
4660.115201
4657.969434
4654.661376
4660.629292
4663.579722
4657.432992
4656.628329
4668.564161
4667.334815
4658.617635
4655.600149
4659.243483
4663.669129
4662.037452
4650.705117
4657.365937
4661.25514
4658.975263
4657.053012
4656.114239
4660.159905
4660.450478
4657.030661
4652.850885
4661.702175
4662.52919
4652.895588
4649.922806
4657.678861
4660.763402
4658.394117
4655.644853
4660.361071
4663.758536
4662.52919
4656.605978
4660.428126
4664.607902
4659.467001
4656.941254
4657.991786
4668.653568
4667.066594
4660.405774
4661.210437
4664.540847
4665.323158
4658.081193
4657.589454
4666.88778
4662.640949
4655.153114
4653.029698
4656.673033
4660.584588
4660.025795
4657.65651
4665.546675
4666.463097
4662.730356
4654.482562
4656.918902
4666.038414
4659.846981
4655.466039
4658.036489
4665.099641
4658.707042
4652.940292
4658.394117
4665.99371
4664.339681
4655.711908
4652.694422
4662.708004
4663.55737
4657.567103
4651.196855
4660.294015
4660.338719
4655.153114
4652.02387
4659.467001
4666.105469
4662.395079
4654.594321
4661.590417
4659.958739
4658.394117
4655.935425
4654.057879
4657.187123
4661.143382
4654.191989
4654.281396
4658.528228
4656.628329
4658.505876
4665.010234
4668.631216
4668.005367
4667.983016
4668.653568
4674.219152
4678.957722
4677.817783
4669.771155
4676.789603
4684.232734
4679.717681
4673.593303
4677.594266
4678.153059
4673.839173
4667.424222
4674.509725
4678.868315
4675.649664
4669.145306
4671.179315
4674.129745
4672.565123
4665.904303
4665.971359
4672.833344
4676.946065
4669.793507
4668.631216
4672.632178
4677.102527
4672.453364
4667.848905
4670.151135
4671.805164
4669.033548
4666.083117
4672.073385
4679.583571
4679.292998
4670.911094
4671.715757
4676.476678
4674.040338
4669.927617
4671.313425
4675.515553
4671.201667
4668.362995
4668.228885
4671.536943
4674.44267
4669.19001
4669.7041
4675.403795
4674.777946
4673.92858
4666.88778
4670.08408
4675.873181
4674.621484
4671.268722
4676.297864
4680.097661
4672.475716
4664.898475
4668.854734
4678.197763
4676.320216
4668.586513
4675.046167
4675.537905
4675.068519
4671.24637
4665.099641
4672.095737
4674.129745
4672.363957
4668.921789
4678.734205
4677.460155
4667.424222
4662.082155
4667.40187
4671.24637
4667.245408
4660.74105
4658.483524
4667.670091
4659.422297
4650.816876
4652.493257
4655.689556
4645.497161
4638.858693
4639.193969
4644.267815
4639.618652
4639.261024
4640.579777
4652.046222
4651.621539
4642.54673
4639.059858
4639.797466
4642.591434
4643.373745
4642.636137
4647.061783
4647.307652
4645.787733
4646.950024
4648.626405
4651.465076
4648.201722
4644.871312
4641.965585
4643.127876
4643.418448
4638.612823
4640.11039
4641.205626
4644.290166
4643.194931
4637.472884
4642.345565
4647.017079
4643.753725
4643.194931
4644.871312
4643.932539
4639.059858
4637.092905
4645.340698
4645.117181
4635.61769
4628.174559
4640.512722
4643.865483
4639.573948
4636.578815
4640.400963
4644.089001
4647.397059
4643.150227
4639.193969
4644.558387
4644.178408
4636.332945
4639.529245
4642.636137
4645.787733
4639.08221
4638.903396
4649.140495
4648.425239
4640.62448
4643.351393
4646.77121
4649.453419
4644.267815
4639.909224
4641.026812
4648.17937
4645.139533
4635.014192
4640.847998
4645.318347
4643.530207
4642.278509
4643.105524
4646.838265
4642.524379
4635.930614
4637.450533
4645.497161
4647.262948
4643.038469
4642.189102
4647.732335
4653.320271
4640.378611
4638.746934
4643.217283
4644.267815
4634.745972
4628.845111
4634.410695
4639.797466
4639.752762
4639.193969
4637.495236
4646.972376
4648.626405
4642.859655
4643.95489
4648.089963
4648.17937
4641.630309
4637.785809
4644.446629
4642.814951
4635.550634
4636.288242
4642.949062
4646.458286
4639.752762
4640.579777
4647.039431
4647.888797
4643.284338
4638.590472
4648.984033
4654.057879
4651.018041
4646.279472
4642.256158
4648.17937
4649.095791
4642.971413
4647.240597
4652.694422
4650.369841
4643.351393
4644.089001
4648.939329
4650.258082
4643.06082
4643.753725
4650.146323
4655.555446
4648.604053
4642.591434
4648.984033
4648.17937
4642.479675
4642.54673
4644.871312
4652.15798
4644.826608
4641.540902
4643.641966
4653.610844
4654.124934
4647.397059
4645.608919
4649.900454
4654.884893
4642.859655
4641.630309
4649.319309
4648.358184
4639.171617
4634.142474
4644.133704
4644.625443
4641.317384
4636.154131
4639.797466
4644.223111
4643.597262
4644.98307
4649.07344
4653.744954
4651.621539
4642.278509
4644.71485
4653.655547
4638.411658
4638.009326
4646.324175
4652.292091
4658.148248
4648.358184
4648.291129
4659.243483
4662.283321
4658.192951
4648.961681
4655.197818
4664.093812
4657.522399
4652.15798
4656.874199
4661.411603
4655.242521
4652.694422
4655.175466
4658.237655
4654.057879
4646.6371
4652.493257
4654.616672
4653.700251
4651.487428
4649.296957
4658.058841
4663.311501
4655.421335
4649.565178
4652.292091
4658.237655
4656.024832
4650.705117
4653.208512
4651.688594
4648.335832
4646.346527
4650.928635
4658.014138
4652.895588
4646.011251
4648.469943
4652.560312
4652.090925
4645.407754
4649.609882
4655.287225
4650.213379
4647.844094
4643.418448
4653.476733
4658.796449
4650.012213
4643.194931
4653.655547
4657.768268
4645.586568
4640.199797
4646.502989
4655.041355
4648.715812
4644.781905
4648.671108
4652.314443
4649.453419
4645.273643
4654.214341
4660.584588
4656.516571
4655.108411
4658.215303
4655.73426
4655.555446
4654.281396
4654.057879
4657.902379
4655.756611
4649.632233
4649.922806
4651.375669
4652.850885
4651.956815
4647.955853
4654.370803
4659.690518
4651.196855
4649.676937
4653.856713
4655.264873
4652.292091
4648.916978
4654.303748
4658.885856
4656.337757
4645.87714
4644.089001
4654.3261
4659.690518
4652.336794
4651.375669
4655.242521
4652.761478
4645.005422
4645.050126
4652.046222
4655.220169
4649.699289
4644.312518
4649.878103
4655.108411
4648.581701
4644.893664
4648.849922
4655.935425
4649.364012
4646.123009
4654.303748
4660.048146
4655.555446
4648.291129
4651.062745
4657.768268
4657.947082
4651.733297
4647.15119
4653.990824
4654.951949
4652.470905
4652.359146
4660.584588
4661.858638
4649.431068
4650.571007
4653.834361
4657.65651
4649.252254
4649.386364
4655.421335
4659.534056
4653.230864
4647.441762
4654.259044
4661.63512
4654.84019
4653.096754
4661.232789
4662.953873
4655.510742
4651.308614
4652.15798
4659.690518
4662.551542
4655.600149
4655.175466
4663.535018
4667.558332
4659.355242
4657.187123
4650.727469
4645.765382
4635.550634
4632.399038
4639.08221
4641.071515
4635.036544
4625.76057
4626.945213
4632.130817
4629.448608
4625.045314
4627.347544
4633.337812
4634.522454
4625.827625
4623.480692
4633.270756
4637.29407
4633.158998
4631.683783
4635.37182
4642.03264
4633.427219
4629.225091
4633.181349
4633.69544
4628.107503
4623.994782
4632.466094
4636.288242
4637.428181
4630.36503
4630.923823
4637.852864
4632.600204
4629.515663
4631.39321
4635.88591
4636.668222
4625.939384
4627.571062
4632.600204
4633.270756
4629.336849
4623.771265
4631.415562
4633.494274
4625.76057
4619.524434
4625.514701
4628.621594
4626.676992
4622.072532
4627.727524
4633.628384
4632.555501
4626.006439
4624.978259
4634.701268
4630.275623
4623.659506
4626.319364
4632.086114
4629.202739
4624.553576
4626.833454
4630.901471
4630.789713
4624.039486
4621.804311
4629.403905
4632.756666
4626.632288
4629.940346
4630.342678
4633.538977
4628.57689
4621.983125
4627.660469
4632.734315
4633.494274
4625.559405
4630.543844
4642.03264
4640.400963
4634.321288
4627.794579
4632.086114
4629.783884
4618.853881
4625.671163
4631.795541
4631.884948
4631.482617
4626.542881
4632.510797
4634.298937
4628.912166
4624.2183
4632.756666
4635.640041
4628.398076
4626.788751
4631.281451
4636.377649
4634.164826
4629.336849
4627.16873
4631.035582
4634.656565
4627.727524
4629.694477
4639.752762
4641.13857
4632.04141
4632.086114
4641.697364
4637.741105
4628.174559
4631.259099
4636.847036
4636.77998
4630.633251
4633.986012
4636.534111
4642.367916
4637.405829
4630.566195
4634.142474
4638.858693
4636.77998
4631.259099
4634.164826
4639.97628
4638.389306
4632.130817
4627.414599
4635.304765
4637.785809
4631.862596
4632.242576
4639.641004
4637.361126
4630.163864
4635.595338
4644.513684
4648.536998
4643.038469
4645.944196
4656.628329
4659.221132
4650.302786
4645.094829
4650.794524
4653.990824
4650.816876
4646.614748
4648.425239
4653.364975
4651.107448
4643.887835
4644.826608
4652.716774
4653.186161
4646.905321
4647.687632
4649.20755
4651.1298
4644.446629
4643.865483
4651.442725
4648.604053
4642.41262
4640.691536
4645.608919
4651.018041
4643.485504
4637.964623
4643.709021
4651.934463
4652.381498
4643.217283
4642.189102
4647.240597
4646.480637
4642.323213
4644.290166
4651.778001
4650.660414
4647.218245
4646.570044
4653.029698
4652.716774
4647.397059
4644.424277
4650.950986
4654.214341
4649.699289
4647.330004
4654.661376
4657.075364
4653.521437
4649.07344
4648.469943
4654.102582
4652.247387
4645.005422
4651.241559
4655.622501
4653.476733
4648.55935
4645.698326
4652.068573
4654.348451
4650.369841
4649.229902
4651.263911
4655.48839
4654.035527
4657.678861
4655.555446
4650.325137
4649.743992
4645.430105
4643.30669
4642.03264
4634.589509
4625.559405
4629.269794
4632.711963
4625.157073
4615.143492
4616.931631
4621.558442
4621.245518
4613.936497
4613.601221
4623.346582
4620.75378
4612.30482
4612.483634
4618.898585
4618.116274
4613.064779
4613.757683
4618.675067
4619.815006
4617.915108
4613.467111
4617.445721
4625.201777
4616.752817
4614.405884
4619.792654
4623.815968
4620.865538
4620.954945
4621.536091
4628.800408
4626.14055
4613.645925
4614.539995
4618.898585
4616.618707
4614.964678
4612.595393
4618.496253
4623.547748
4616.931631
4618.719771
4620.664373
4624.039486
4621.513739
4616.998686
4618.652716
4619.211509
4613.824739
4615.568175
4620.910242
4625.894681
4620.932593
4610.583736
4604.548765
4610.136701
4627.615765
4628.152207
4626.095846
4639.708059
4640.177445
4641.697364
4649.788696
4661.389251
4666.776021
4660.875161
4658.1706
4659.958739
4660.673995
4655.913074
4650.079268
4656.293053
4663.155039
4657.969434
4650.414544
4653.029698
4660.629292
4653.744954
4646.346527
4649.96751
4655.667204
4650.593358
4647.866446
4651.219207
4651.64389
4655.86837
4650.392193
4644.580739
4651.018041
4655.041355
4653.141457
4648.335832
4650.906283
4654.259044
4651.733297
4648.469943
4647.866446
4647.777039
4648.022908
4647.642928
4652.984995
4651.263911
4645.295995
4642.345565
4645.050126
4655.264873
4656.561274
4648.827571
4649.252254
4658.796449
4656.337757
4650.749821
4647.218245
4653.186161
4653.297919
4648.738164
4650.571007
4657.27653
4659.310539
4655.063707
4649.431068
4651.353318
4655.130762
4651.018041
4649.028736
4652.783829
4664.876123
4662.484486
4654.996652
4657.298882
4661.478658
4661.813934
4654.415507
4650.325137
4662.752707
4667.111298
4656.38246
4651.465076
4660.539885
4663.55737
4650.638062
4645.027774
4659.19878
4658.550579
4651.532132
4647.844094
4657.634158
4669.234713
4664.876123
4658.729393
4664.205571
4674.06269
4671.872219
4666.440745
4667.357167
4673.570952
4667.893609
4664.496143
4666.038414
4669.547638
4666.88778
4666.261931
4669.301768
4675.224981
4674.040338
4670.397004
4666.172524
4672.989806
4676.051995
4667.647739
4666.150172
4670.128783
4668.877085
4664.786716
4657.79062
4665.971359
4672.386309
4673.950931
4673.146269
4672.252199
4679.382405
4676.409623
4668.832382
4667.379518
4676.297864
4679.091833
4674.040338
4674.777946
4677.504859
4682.64576
4675.873181
4671.268722
4671.11226
4677.504859
4672.967455
4670.441707
4679.538867
4681.729338
4677.482507
4667.178353
4664.83142
4672.207495
4669.972321
4670.307597
4674.845001
4678.913019
4675.739071
4672.967455
4672.699234
4681.75169
4685.484431
4678.890667
4673.883876
4682.690463
4688.859545
4673.861524
4664.026757
4666.284283
4672.498068
4667.804202
4658.081193
4651.845056
4650.10162
4645.36305
4638.165788
4642.256158
4650.682765
4653.163809
4644.916015
4646.458286
4653.94612
4653.387326
4647.777039
4645.318347
4649.498123
4651.554483
4646.6371
4648.581701
4655.600149
4660.271664
4651.040393
4648.492294
4649.632233
4654.929597
4649.140495
4641.183274
4648.827571
4653.543789
4650.302786
4643.530207
4644.670146
4653.94612
4654.437858
4645.005422
4647.66528
4652.806181
4650.168675
4647.821742
4643.887835
4650.950986
4653.990824
4645.675975
4644.893664
4646.882969
4648.17937
4645.430105
4642.41262
4641.920882
4648.514646
4648.31348
4645.22894
4646.614748
4649.900454
4648.827571
4647.598225
4648.939329
4653.610844
4654.46021
4651.822704
4654.571969
4657.924731
4656.471867
4648.782867
4646.882969
4652.001518
4645.765382
4640.378611
4638.277547
4644.781905
4652.649719
4650.906283
4647.173541
4644.089001
4647.352355
4647.732335
4642.434972
4647.039431
4652.672071
4649.609882
4645.944196
4644.893664
4652.090925
4648.425239
4639.059858
4641.00446
4648.469943
4648.134666
4641.205626
4636.243538
4644.625443
4646.502989
4637.070553
4637.562291
4652.15798
4649.140495
4645.832437
4642.479675
4644.536036
4646.435934
4645.22894
4641.943233
4645.117181
4650.012213
4643.105524
4637.003498
4640.959756
4645.22894
4640.356259
4637.67405
4640.199797
4648.425239
4644.245463
4640.244501
4640.713887
4646.413582
4643.261986
4637.67405
4638.121085
4648.805219
4653.029698
4645.497161
4639.328079
4646.927672
4649.274605
4641.742068
4640.088038
4645.720678
4653.253216
4644.267815
4636.064724
4641.473847
4647.352355
4646.123009
4641.920882
4641.920882
4643.150227
4644.33487
4636.332945
4636.109428
4645.430105
4647.553521
4641.697364
4639.193969
4644.603091
4649.699289
4640.87035
4631.281451
4639.305727
4640.289204
4637.517588
4633.82955
4637.495236
4642.92671
4637.964623
4639.797466
4640.982108
4643.753725
4644.290166
4636.087076
4630.141512
4641.920882
4641.51855
4634.768323
4631.52732
4634.567158
4638.411658
4638.724582
4638.165788
4645.832437
4651.219207
4644.156056
4639.529245
4644.223111
4649.118143
4643.06082
4641.451495
4643.664318
4648.31348
4642.367916
4638.277547
4638.009326
4646.279472
4647.218245
4642.591434
4643.06082
4647.508818
4647.017079
4644.267815
4644.089001
4647.330004
4646.793562
4640.132742
4636.221187
4643.641966
4648.067611
4642.256158
4634.34364
4635.394172
4639.663355
4638.232844
4631.817893
4637.584643
4643.664318
4636.601166
4631.9073
4640.244501
4640.736239
4640.468018
4630.297974
4630.230919
4643.977242
4648.939329
4643.485504
4651.755649
4662.775059
4661.63512
4658.662338
4657.745917
4660.271664
4653.700251
4652.806181
4654.571969
4650.23573
4656.494219
4654.3261
4649.408716
4655.577797
4660.159905
4654.415507
4651.599187
4652.359146
4656.494219
4655.846018
4649.140495
4650.794524
4657.053012
4654.884893
4652.605015
4651.308614
4659.154076
4664.674957
4662.037452
4658.483524
4654.214341
4657.27653
4653.789658
4653.141457
4654.437858
4657.991786
4656.404812
4646.346527
4646.77121
4656.270701
4654.616672
4652.493257
4659.19878
4667.40187
4667.245408
4658.103544
4653.767306
4662.037452
4655.398983
4652.53796
4657.947082
4664.786716
4663.266797
4660.294015
4661.344547
4669.32412
4673.481545
4669.569989
4662.596245
4667.26776
4674.755594
4668.877085
4663.803239
4668.027719
4675.47085
4672.587475
4666.999539
4668.43005
4672.252199
4665.747841
4661.970396
4661.568065
4664.764364
4665.569027
4663.155039
4660.517533
4666.731318
4670.888742
4662.775059
4660.919864
