 ECG Channel 
-811.435379
-808.2390795
-832.2895565
-860.6539203
-850.8862079
-829.9649751
-832.4013153
-850.7968009
-844.6947747
-820.0855041
-811.6141929
-825.5393297
-820.5548907
-790.4023874
-776.7454716
-792.5705066
-790.1565182
-755.2430934
-733.9195292
-746.3694509
-740.1556659
-706.1139591
-676.8331739
-676.4531942
-680.5435634
-648.2676444
-615.589394
-611.834301
-612.5942603
-576.2950273
-538.9229106
-536.084239
-556.7372509
-519.3204307
-470.571276
-469.2301714
-482.1494796
-480.5178023
-458.5460375
-451.8628659
-482.5965145
-506.5352328
-494.1076629
-497.9074595
-540.5545879
-575.7585854
-580.0948238
-587.8061757
-634.6107286
-682.6669792
-698.4920142
-696.2121363
-724.9341279
-755.3548521
-767.4024424
-766.4860209
-787.8095851
-819.7278762
-826.2769373
-805.8474428
-808.194376
-830.322603
-836.2011118
-816.5539284
-814.7881406
-840.6714607
-847.376984
-820.8231116
-809.8037016
-822.0748093
-833.5189025
-817.8056261
-798.4713672
-812.3518005
-830.233196
-815.7939691
-800.7288934
-811.5918412
-830.501417
-821.6948297
-796.124434
-797.0408555
-824.287632
-822.5218442
-810.4519022
-811.1001028
-827.4839315
-827.8862629
-810.5636609
-808.5073004
-831.5743007
-842.6160625
-824.1758733
-805.8474428
-827.7745042
-846.7511352
-829.6073472
-815.3022308
-830.2778995
-852.7414027
-843.5771875
-824.8464256
-834.7929519
-860.2739406
-845.6782515
-824.2205768
-827.9533181
-852.719051
-851.6908707
-828.6685739
-827.9756699
-854.1272109
-856.3847371
-833.6306612
-825.516978
-844.672423
-873.9308565
-863.8055162
-853.3001963
-869.4381558
-879.9434757
-838.8833212
-788.6589514
-778.0642245
0
-14.97566879
-42.87064587
-34.37698297
-32.70060214
-65.08827985
-91.95507669
-82.27677134
-69.58098049
-90.21164062
-114.1280072
-102.4603966
-82.38853006
-93.67616101
-118.7548183
-111.4457979
-86.56830628
-88.691722
-113.9491932
-113.9044897
-90.59162028
-89.8987162
-114.4185799
-118.4865974
-93.94438195
-84.53429753
-111.2893356
-125.9297283
-106.4166554
-93.78791973
-115.2679462
-130.8694638
-114.9997252
-98.52648956
-115.0891322
-137.9996703
-128.2766614
-106.4613588
-116.765513
-143.2299785
-137.0832487
-113.0551235
-120.3864956
-144.8616558
-140.7489348
-121.5487863
-138.3349464
-171.8625631
-178.4116242
-145.7110221
-124.5215684
-127.1590742
-109.3000304
-76.13004161
-57.24281755
-73.559591
-82.36617832
-69.37981479
-66.65290197
-91.23982087
-117.1901962
-107.7130565
-87.75294873
-108.0930362
-142.6935366
-141.5535976
-114.4856351
-114.2844694
-143.5429029
-143.185275
-122.9345945
-123.1804637
-149.9578536
-158.9656066
-140.7489348
-134.4010394
-159.7255659
-173.4271852
-156.3728042
-142.8947023
-161.5137054
-167.9510078
-101.0298849
4.470348891
26.33035497
32.47708469
110.9317077
137.1056005
117.905452
160.2843595
161.5360572
78.54403002
17.25554672
-29.70546838
-56.46050649
-42.87064587
-40.70252665
-51.65488144
-40.27784351
-21.18945374
-26.77738986
-57.39927976
-77.82877419
-63.00956762
-48.7715064
-65.33414904
-81.94149517
-63.32249204
-39.7190499
-48.90561687
-65.80353568
-48.9726721
-17.45671242
-18.19431999
-38.08737255
-26.53152067
6.57141287
9.901822794
-7.443130904
-1.832843045
30.30896548
48.34682326
34.73461088
35.06988705
67.88224791
88.60231502
75.79476545
76.15239336
106.4837106
134.3116324
130.0871527
123.851016
151.0307373
178.7021969
175.4164905
158.5632752
173.0695573
194.4825285
184.9383336
159.189124
161.0890223
180.4903365
168.7780224
128.6789928
111.1775769
116.3855334
101.0522367
56.21463731
25.01160205
27.85027359
20.89888107
-17.9484508
-44.61408193
-37.75209639
-35.36045973
-59.8803234
-86.70241674
-78.49932653
-64.41772752
-82.4555853
-103.8015013
-90.32339934
-61.95903563
-67.79284093
-91.82096622
-85.60718126
-58.60627396
-59.65680595
-81.51681203
-82.54499227
-57.75690767
-52.50424773
-80.30981783
-88.66937025
-65.95999789
-57.15341057
-84.89192544
-99.42055934
-82.00855041
-68.30693106
-89.8987162
-111.5128531
-104.1144257
-85.49542254
-100.6052018
-122.5993183
-114.9550217
-93.36323659
-102.9744867
-129.4166004
-126.9802603
-98.81706224
-95.7325215
-132.7246586
-150.8966268
-127.7625713
-124.901548
-143.2299785
-142.5370744
-94.61493428
-53.75594542
-61.22142806
-77.15822186
-62.65193971
-41.64129992
-66.80936418
-98.77235875
-92.06683541
-78.87930618
-91.35157959
-118.6654113
-118.9783357
-102.1921756
-108.4953676
-128.7683998
-125.9297283
-103.1533007
-103.3544664
-127.6061091
-135.5633301
-115.804388
-109.1659199
-134.3563359
-144.5263796
-126.913205
-118.7101148
-144.056993
-159.7255659
-139.3854784
-108.8306438
-61.60140772
-17.41200893
-0.178813956
36.18747427
74.3642538
21.21180549
7.912517537
91.1057104
47.07277382
-60.0814891
-68.91042816
-41.66365166
-89.00464642
-115.893795
-117.0784375
-31.8288841
12.00288677
-13.25458446
-48.83856163
-45.17287554
-35.96395683
-58.62862571
-78.05229164
-59.65680595
-38.62381442
-54.73942217
-72.84433518
-53.26420704
-26.91150032
-36.5003987
-52.05721284
-35.00283182
-3.553927368
0.447034889
-18.86487232
-9.700657094
23.96107006
34.77931437
18.59665139
22.93288981
58.78508792
76.93470442
69.04453862
69.26805607
103.3321146
125.5050451
119.4253706
117.6372311
147.3426994
174.6565312
166.1628683
153.9141123
173.9189236
201.5903832
190.8168424
167.8392491
177.294037
203.5573368
194.6613425
161.4019467
148.1250105
158.0044816
140.5254174
98.39237909
71.12325086
73.13490786
60.61793096
22.55291016
-5.230308203
-2.972782013
-4.51505238
-41.37307899
-68.9327799
-60.23795131
-50.96197736
-75.03480614
-100.1581669
-90.21164062
-68.70926246
-81.74032947
-103.8462047
-92.24564937
-67.9269514
-70.83267818
-92.49151856
-89.27286735
-62.0931461
-61.04261411
-85.33896033
-89.47403305
-64.88711415
-54.04651809
-76.39826255
-88.691722
-66.85406767
-54.22533205
-77.44879454
-98.25826863
-81.78503296
-63.501306
-81.4497568
-102.952135
-92.78209123
-72.9560939
-87.4847278
-111.4905013
-107.3107251
-79.66161724
-83.6625795
-124.5662718
-130.7800568
-107.936574
-106.014324
-126.6449841
-123.6274986
-74.1630881
-44.27880577
-64.84241066
-80.06394864
-60.19324782
-48.74915466
-81.15918412
-111.5799083
-103.6003356
-89.54108829
-108.2494984
-137.5079319
-136.2785859
-122.8451875
-131.3835539
-154.5623129
-147.1415337
-120.1629782
-125.7062108
-152.4165454
-153.8023536
-128.9919173
-129.7071731
-158.1609438
-162.1395543
-138.1561325
-130.5565394
-155.9928246
-167.9510078
-136.6362139
-82.12030913
-29.37019221
-22.21763399
-8.985401271
46.80455289
37.23800626
-36.5003987
8.024276259
49.10678257
-69.67038747
-122.5322631
-108.0036292
-93.94438195
-113.5245101
-132.9034725
-101.4322163
-21.61413689
-1.497566879
-44.12234355
-74.11838461
-62.51782924
-60.34971003
-86.38949232
-100.940478
-79.23693409
-63.68011995
-81.15918412
-98.750007
-81.31564633
-54.91823613
-59.65680595
-75.86182068
-58.74038443
-28.85610209
-29.63841315
-48.52563721
-35.94160508
1.072883734
10.32650594
-5.498529136
1.765787812
39.36142199
57.26516929
45.88813137
52.88422738
90.9045447
114.7091525
106.3048966
106.2378414
141.3077284
162.9218653
149.041432
137.239711
161.4913537
184.558354
170.8120311
149.2649495
161.9160368
179.4621562
162.4077752
124.1639404
114.0162485
122.8451875
103.4215216
55.23116055
30.53248293
35.62868066
20.00481129
-24.05047703
-44.68113717
-34.62285216
-39.40612547
-72.03967238
-94.68198951
-82.8579167
-75.75006196
-102.2592309
-126.8685015
-112.4069229
-91.21746912
-105.2320129
-125.9297283
-115.3573531
-93.20677438
-97.23008838
-119.1571497
-113.1668822
-81.29329458
-79.21458235
-100.8734227
-99.37585585
-72.5537625
-66.07175661
-90.03282667
-97.67712327
-73.04550088
-61.53435249
-83.64022775
-97.5430128
-78.32051257
-65.15533509
-83.8637452
-102.2145274
-92.37975983
-74.29719857
-86.680065
-106.3048966
-95.08432091
-84.17666962
-107.2436699
-137.0161935
-135.5186266
-105.2096612
-103.8909082
-109.0988647
-83.93080043
-47.69862267
-45.64226218
-73.87251542
-74.40895729
-58.56157047
-63.92598914
-98.30297211
-123.068705
-107.2660216
-97.25244013
-128.6342893
-154.7634786
-146.06865
-126.4661701
-136.97149
-158.8091444
-150.8966268
-128.8131033
-139.5419406
-166.0734613
-163.7041764
-139.1172575
-138.4020017
-165.402909
-165.9169991
-144.4146209
-138.4914086
-152.7518216
-133.9540045
-30.28661374
45.7540209
44.83759938
81.98619866
148.3261762
142.5817779
164.441784
205.0996071
132.3893824
68.21752408
4.939735525
-8.404255915
-23.7822561
-3.889203535
-27.62675615
-43.07181157
-37.79679987
-31.31479398
-52.16897156
-88.24468711
-96.78305349
-76.59942825
-73.09020437
-97.92299246
-106.4613588
-81.67327424
-65.93764614
-82.09795738
-91.1057104
-71.65969272
-49.03972733
-59.14271583
-74.11838461
-54.89588438
-27.62675615
-31.0242213
-46.60338719
-25.72685787
7.867814048
10.37120943
-3.576279113
11.89112805
48.12330581
58.98625362
48.65974768
62.8978089
101.5663268
120.6100131
105.6119926
108.718885
138.983147
160.3514147
143.6546616
131.3612022
151.1871995
167.1910485
144.9734145
123.1357602
133.12699
142.0676878
118.1289694
77.76171896
69.20100083
70.45269852
43.07181157
-2.078712234
-17.99315429
-8.448959404
-22.7764276
-62.16020133
-81.42740505
-72.10672761
-77.85112594
-110.6187833
-126.0191352
-110.3058589
-103.734446
-129.6177661
-144.5263796
-124.6109753
-106.2825449
-122.5993183
-140.3242517
-125.3709346
-103.8015013
-117.2125479
-138.0667255
-128.1649027
-102.4156931
-108.3165536
-134.5351499
-130.6235946
-100.1805186
-97.87828897
-123.1134085
-126.2873562
-103.6897425
-95.39724534
-120.2970887
-131.1376847
-109.9035275
-99.04057968
-121.4593794
-135.1833505
-111.959888
-93.18442263
-105.5896408
-131.6070714
-115.983202
-92.26800111
-121.3923241
-155.7693071
-155.6351966
-129.5060074
-126.3767632
-139.2066645
-109.5906031
-68.03871012
-66.58584673
-98.88411747
-98.39237909
-71.50323051
-83.43906205
-122.6663736
-140.5477691
-121.7276003
-112.5186816
-145.9345395
-172.2648945
-160.9996153
-143.095868
-160.6196357
-176.5787812
-165.0229293
-146.6497954
-161.5137054
-187.8440604
-182.0326068
-158.2727025
-162.8101066
-188.492261
-189.0734063
-164.8664671
-162.0277956
-187.1288046
-173.6283509
-72.86668692
26.21859625
42.17774179
83.55082077
167.0569381
167.9286561
164.4864874
212.8780142
160.4631734
55.72289893
-31.91829108
-41.30602375
-27.58205266
14.50628215
-21.65884038
-47.05042208
-40.25549176
-32.25356725
-50.49259072
-85.83069871
-90.21164062
-67.97165489
-67.97165489
-92.87149821
-97.1406814
-72.03967238
-62.83075366
-85.13779463
-88.91523944
-60.46146875
-43.1388668
-63.16602983
-76.82294569
-49.26324478
-23.22346249
-31.06892479
-44.16704704
-20.65301188
8.82893906
6.727875081
-6.057322747
14.21570947
47.29629127
53.8006489
42.04363132
53.3983175
89.78695748
104.3602949
93.00560868
99.1523384
131.5176644
148.2367692
131.025926
120.4535509
140.905397
156.5516182
138.7596296
117.816045
132.6799551
142.7605918
114.2174142
79.05812014
73.17961135
73.29137007
43.60825343
1.65402909
-11.19822397
-5.945564025
-26.30800322
-64.7083002
-76.5770765
-65.28944555
-75.34773056
-108.9647542
-121.4593794
-105.1202542
-102.773321
-126.3320597
-143.6323099
-120.9899927
-109.0541612
-130.2883184
-144.8169523
-125.5050451
-105.3437716
-119.1124462
-138.4690569
-128.924862
-107.1542629
-114.7315043
-136.8597313
-128.5225306
-102.8180245
-102.5721553
-128.7683998
-128.8801585
-106.8636902
-103.91326
-127.6061091
-134.5575016
-110.4623211
-101.3204576
-123.6498503
-135.5856819
-118.3524869
-105.9919722
-127.5167021
-145.4651529
-130.8247603
-114.3515246
-129.1707312
-148.7732111
-136.3009377
-111.2893356
-125.080362
-166.6099032
-174.410662
-154.2270367
-151.5001239
-164.7100049
-152.6847664
-101.2757541
-86.16597488
-111.1552252
-119.6488881
-90.703379
-78.5887335
-115.5585188
-140.8830453
-131.3388504
-123.2251672
-146.5827401
-176.8917056
-172.5107637
-157.7362606
-168.1745253
-189.5651447
-177.472851
-155.9704728
-166.6099032
-193.5214035
-191.5320982
-164.352377
-166.6322549
-193.3425895
-197.1423861
-172.9354469
-166.1628683
-190.5709732
-193.0743686
-137.8432081
-43.51884645
13.90278505
35.36045973
114.9103182
172.3319498
126.5555771
132.5681964
188.3805023
95.15137615
-28.2079015
-105.2543646
-66.96582639
-46.89395987
-35.15929403
-76.30885557
-61.98138737
-37.19330277
-52.43719249
-94.23495462
-106.3943036
-86.18832662
-86.680065
-109.7470653
-115.5138153
-90.65867551
-78.29816083
-99.04057968
-111.7363705
-86.59065802
-67.01052988
-80.82390795
-90.94924819
-68.97748339
-46.44692498
-56.19228556
-72.64316948
-53.3983175
-19.71423861
-18.3507822
-30.33131723
-9.678305349
27.13501777
29.66076489
13.14282574
25.01160205
61.8919804
78.61108525
67.83754442
68.9327799
94.34671335
102.2815826
69.42451828
43.04945982
54.11357333
65.35650079
42.75888714
18.59665139
27.13501777
40.34489874
15.57916589
-23.73755261
-41.48483771
-47.5645122
-82.16501262
-135.9656615
-155.8587141
-154.9869961
-176.0423393
-222.7127818
-235.1403517
-219.8517585
-221.8410637
-255.7933635
-274.8146981
-255.7263083
-244.0586977
-260.3084159
-269.4055759
-245.2209884
-215.3814096
-228.1219039
-245.4892094
-214.3532293
-182.1220138
-187.7546534
-207.7594647
-192.9626099
-170.1861823
-180.2221155
-207.558299
-198.4834908
-156.8198391
-159.3455862
-188.2240401
-190.0568831
-160.6196357
-154.0035193
-171.9296184
-175.9305806
-150.1366675
-133.7975423
-149.2425977
-157.9374263
-136.7479726
-121.928766
-143.2970337
-160.3514147
-149.7119844
-141.5535976
-159.6585106
-183.7536912
-179.7080254
-154.9199408
-159.278531
-182.3008278
-179.5515632
-142.0229843
-124.3427544
-151.053089
-141.5088941
-106.6625245
-92.08918716
-97.99004769
-93.29618136
-88.691722
-93.22912612
-120.6100131
-124.02983
-99.42055934
-67.34580604
-55.63349195
-62.42842226
-57.60044546
-49.48676222
-70.05036712
-100.1581669
-92.89384996
-80.10865213
-95.01726568
-128.1649027
-133.3281557
-116.944327
-122.1746352
-149.4661152
-146.4262779
-118.3748386
-120.5876613
-140.3018999
-148.5496936
-132.6352516
-131.8082371
-156.4845629
-180.4009295
-166.9228276
-146.6050919
-152.3941937
-168.6215602
-150.5389989
-128.6342893
-125.2591759
-83.57317252
-3.688037835
30.93481433
42.31185225
72.28554157
43.7423639
44.03293658
119.4924259
55.34291927
-53.42066925
-45.17287554
-20.13892175
-65.73648044
-78.99106491
-69.78214619
-21.81530259
-10.37120943
-22.10587527
-28.36436371
-32.92411958
-60.37206177
-83.50611729
-70.09507061
-60.55087573
-73.9619224
-86.97063768
-84.0649109
-65.49061125
-66.78701243
-84.33313183
-71.30206481
-37.19330277
-30.71129688
-40.9260441
-45.86577962
-20.9659363
-8.583069871
-26.77738986
-37.01448882
-5.654991347
22.84348283
15.80268333
9.253622204
38.02031732
71.07854737
71.39147179
57.86866639
80.30981783
109.769417
112.3845711
101.9910099
114.8879665
146.7839058
150.1366675
136.5021034
149.8907983
168.4427462
169.5156299
147.5885686
146.6497954
164.9782258
159.7479176
126.4214666
96.60423954
96.64894302
84.02020741
43.38473599
12.76284608
18.97663104
30.57718641
-6.213784959
-50.47023898
-57.42163151
-57.98042512
-83.10378588
-117.7489898
-120.5653096
-104.1814809
-118.2407282
-144.7051936
-142.2465017
-112.0716467
-103.1309489
-128.6789928
-116.8325683
-90.16693713
-101.2086989
-124.9238998
-137.3291179
-115.9161467
-97.96769595
-116.3855334
-131.8752923
-117.6372311
-97.65477153
-108.5847746
-123.4933881
-113.0327717
-88.60231502
-91.1057104
-115.9608502
-104.7626263
-68.10576536
-72.08437587
-99.66642853
-108.4059606
-97.78888199
-93.7208645
-103.0862454
-107.6012978
-88.24468711
-85.83069871
-110.3952659
-119.4477224
-95.62076278
-79.84043119
-98.03475118
-117.033734
-100.1134634
-83.6625795
-93.69851276
-112.6974955
-110.1717484
-108.4953676
-126.1085422
-152.371842
-150.1366675
-130.2659667
-118.6654113
-110.8646525
-89.60814352
-65.02122462
-61.84727691
-86.85887895
-90.03282667
-66.85406767
-72.5537625
-101.6780855
-112.0716467
-98.16886165
-94.63728602
-122.3981526
-152.8859321
-137.0832487
-110.4846728
-118.77717
-145.2416355
-152.2153797
-141.8665221
-159.4349932
-185.0724441
-172.8460399
-136.8150278
-132.6576033
-158.4962199
-163.5924177
-141.955929
-133.3952109
-129.1707312
-57.24281755
23.15640726
24.27399448
10.48296815
36.00866032
9.857119305
-27.62675615
-15.98149729
-94.61493428
-175.9305806
-160.8655048
-134.7139638
-125.080362
-80.60039051
-60.81909666
-30.19720676
-18.77546534
-26.33035497
-39.07084931
-51.83369539
-75.01245439
-78.96871316
-62.31666354
-59.41093676
-78.1864021
-77.29233233
-63.9036374
-63.00956762
-78.32051257
-81.74032947
-65.93764614
-42.20009353
-57.53339023
-83.23789635
-62.00373912
-39.29436675
-48.01154709
-58.85214315
-34.51109344
-15.95914554
-24.40810495
-39.83080862
-14.21570947
31.53831143
48.27976802
44.50232321
58.69568094
93.78791973
118.5536526
110.7752455
107.5118908
134.870426
162.3854235
152.7294699
145.6216151
153.5788362
155.255217
133.4622661
102.952135
94.14554765
104.4497018
84.91427719
49.79968665
34.73461088
36.52275044
12.09229375
-39.24966326
-52.03486109
-47.11747731
-66.5187915
-108.4506641
-114.7315043
-77.96288466
-78.83460269
-118.3748386
-125.862673
-113.2786409
-116.8102165
-147.4768099
-165.5370194
-145.2639872
-121.5487863
-145.6439669
-152.1706763
-130.5788911
-118.4195421
-133.3505074
-151.1648478
-144.7946006
-118.4865974
-116.6761061
-121.6605451
-105.2320129
-91.19511738
-101.6557338
-122.979298
-122.7781323
-103.9579635
-98.72765526
-115.5138153
-118.8889288
-98.77235875
-86.41184406
-101.722789
-106.5284141
-82.83556495
-65.53531474
-93.58675403
-125.3932864
-115.5138153
-96.96186745
-112.0045915
-139.6984028
-130.4447806
-119.3583154
-126.1979492
-145.3533942
-140.8383418
-123.068705
-120.9229375
-145.5992634
-137.8432081
-116.0949607
-136.7703243
-165.6934816
-169.7167956
-133.9763563
-95.86663197
-83.99785566
-83.43906205
-72.5537625
-69.24570432
-85.20484986
-101.5439751
-101.5439751
-87.03769291
-106.4837106
-122.7557805
-116.5419956
-105.7908065
-123.0240015
-157.08806
-157.0210048
-138.89374
-142.7382401
-165.8052404
-172.2425428
-156.7527839
-162.6983479
-185.9441621
-187.9334674
-170.3426445
-184.3124848
-206.8877467
-213.5485665
-183.7983947
-159.8149729
-145.9568913
-80.53333527
-5.543232625
23.53638691
50.380832
83.03673065
56.97459662
68.19517233
112.4516264
-5.766750069
-116.3631816
-139.2960714
-74.90069567
-42.87064587
-19.02133453
-21.07769502
-16.22736647
-44.65878542
-83.55082077
-82.47793704
-73.40312879
-99.19704189
-117.9278037
-103.2874111
-96.55953605
-106.3048966
-116.6090508
-99.28644887
-77.47114628
-89.25051561
-107.0425042
-100.4263878
-69.26805607
-60.97555887
-78.43227129
-74.67717823
-43.00475633
-34.24287251
-56.28169254
-57.95807337
-28.56552941
-8.471311149
-10.57237513
-1.072883734
14.05924726
17.45671242
-1.542270367
-1.519918623
31.73947713
64.64124496
63.18838158
55.23116055
70.07271887
97.81123374
108.6518298
97.36419885
88.4905563
89.31757084
82.83556495
51.94545411
54.85118089
70.7432712
56.99694836
22.03882003
0.8046628
6.191433214
-8.717180338
-47.81038139
-71.63734098
-59.52269548
-57.28752104
-75.571248
-89.78695748
-95.28548661
-97.25244013
-124.812141
-153.9364641
-145.9121878
-129.1483795
-133.2834522
-138.0667255
-123.3592776
-103.8685565
-124.0745335
-158.406813
-158.5409234
-146.2251122
-143.3640889
-164.6205979
-163.8159351
-135.5409784
-129.885987
-146.940368
-156.037528
-144.8393041
-129.7742283
-135.6303854
-141.9112255
-120.4759026
-113.1221787
-133.1493417
-148.9967285
-135.6974406
-105.7013995
-115.6926293
-143.4311442
-134.5798534
-128.9025103
-139.6089959
-155.5457897
-152.9753391
-141.2406732
-142.8276471
-164.1288595
-165.3358537
-147.4991617
-141.9335773
-165.6264264
-174.6341794
-147.6332721
-132.0094028
-138.3572982
-160.7984496
-152.7965251
-145.6886704
-177.3387405
-209.2570316
-193.8566797
-164.2853217
-163.5253624
-160.6643391
-121.2358619
-88.31174234
-105.9025652
-146.9850715
-151.5224757
-120.7664753
-103.91326
-133.9540045
-152.4388972
-141.8888738
-137.4408767
-164.1959148
-182.5243452
-164.7994119
-155.2775687
-175.8858771
-191.8003192
-173.4271852
-154.3164437
-173.9636271
-186.7264732
-170.2755893
-150.6284059
-167.2804555
-215.6272788
-221.1481596
-194.5495837
-183.1278423
-202.0821216
-192.336761
-107.3554286
-1.944601768
39.04849756
72.44200378
156.4622112
155.4563827
105.2990681
148.5049902
149.7119844
-18.97663104
-140.8830453
-134.5127981
-26.17389276
49.03972733
25.83861659
-37.99796557
-39.58493943
-46.29046277
-77.1805736
-119.5371293
-132.7470103
-105.0979024
-109.5011961
-138.8043331
-133.1716935
-103.0191902
-95.39724534
-116.1396642
-121.057048
-80.48863178
-52.61600645
-86.30008534
-121.1688067
-107.1319112
-80.71214923
-81.56151552
-79.48280328
-45.46344822
-21.81530259
-35.4945702
-60.19324782
-45.61991043
-4.380941913
3.017485501
-12.78519783
3.576279113
49.53146571
58.71803268
48.72680291
56.84048615
87.86470745
97.27479187
62.18255307
47.20688429
83.0590824
106.7742833
96.55953605
92.89384996
115.983202
120.3864956
92.33505634
60.84144841
62.51782924
62.11549784
32.54413993
-13.27693621
-28.11849452
-38.69086965
-85.62953301
-126.6002806
-118.8218735
-88.17763188
-88.66937025
-113.6809723
-133.7528388
-143.9452343
-162.0501473
-187.620543
-188.7157784
-140.5701209
-109.3000304
-129.2377864
-149.5108187
-129.2377864
-118.866577
-145.8004291
-164.352377
-141.4194872
-114.3068211
-124.2756992
-149.2425977
-154.294092
-143.9899378
-158.4962199
-177.5399062
-150.6507576
-113.4127514
-104.0697222
-126.8014463
-145.6439669
-141.955929
-126.130894
-135.920958
-137.7090976
-109.8141205
-117.5254723
-168.5768567
-200.7857204
-184.6701127
-171.3037695
-169.7391474
-171.1920108
-153.064746
-132.2999754
-143.6323099
-155.2775687
-122.1299317
-95.71016976
-101.4322163
-138.7819813
-155.8810658
-143.3193854
-153.4447257
-203.3561711
-234.2462819
-212.3192206
-191.9120779
-181.0044266
-169.7838509
-137.2173592
-131.9646993
-155.9481211
-166.5428479
-172.4660602
-181.496165
-196.0247989
-224.1656451
-217.9518602
-172.309598
-142.045336
-139.6536994
-145.6663186
-148.6167489
-161.379595
-163.8606386
-147.4321064
-143.9228825
-154.5176094
-153.2882635
-138.983147
-132.1435132
-160.3514147
-207.1559676
-235.63209
-212.9227177
-189.0063511
-192.515575
-185.4971272
-161.9383886
-163.4359555
-206.2842496
-238.2472441
-223.0257062
-208.0500374
-217.4377701
-218.1977294
-183.507822
-163.4583072
-156.4398594
-78.87930618
22.61996539
94.59258253
151.6118826
149.5331704
79.39339631
79.37104456
44.1446953
-153.7800019
-316.1207218
-330.8058179
-210.799302
-152.3047867
-104.8073298
-97.96769595
-76.84529744
-98.86176573
-118.7101148
-102.0357134
-90.16693713
-108.5847746
-135.5186266
-137.0385453
-119.9394607
-125.6615073
-143.4311442
-146.0910018
-102.9297832
-61.66846295
-66.5187915
-65.60236998
-47.38569825
-40.79193363
-53.21950355
-62.4954775
-43.09416331
-30.06309629
-45.44109648
-63.21073332
-45.30698601
-16.85321532
-11.13116874
-14.99802053
18.08256126
67.83754442
59.83561991
23.62579389
38.22148302
75.3700823
94.43612032
101.5663268
106.9307455
136.1444755
135.7644958
106.0366757
110.0823414
140.7489348
152.5953594
130.4000772
109.1659199
128.1872545
121.5040829
58.98625362
12.78519783
49.26324478
68.91042816
21.39061944
-21.10004677
-35.47221845
-29.48195094
-54.51590473
-87.73059699
-93.18442263
-81.76268122
-101.1192919
-149.8460948
-155.4787344
-127.3155364
-111.3340391
-124.0074782
-125.3709346
-103.5556321
-98.03475118
-121.1464549
-138.4690569
-116.0949607
-103.6673908
-123.5827951
-137.3961732
-114.93267
-93.22912612
-110.2388037
-120.878234
-98.1465099
-79.28163758
-99.48761457
-123.5827951
-114.6420973
-98.63824828
-110.5070246
-141.6877081
-139.0502023
-114.3515246
-99.73348376
-110.1493967
-117.3690101
-100.940478
-102.952135
-124.4768649
-131.1600365
-110.3729141
-102.2815826
-125.3485829
-143.1405715
-124.1862922
-112.049295
-134.5798534
-153.4223739
-133.5293214
-113.2339374
-123.1134085
-147.3874029
-136.7926761
-115.7373328
-124.7450858
-140.6818796
-132.5234929
-117.6595828
-120.2747369
-148.1250105
-151.6118826
-129.8189318
-128.5895859
-150.4942954
-158.0715368
-129.7295248
-121.5487863
-133.998708
-128.0084405
-91.5080418
-76.24180034
-97.5430128
-120.0512195
-91.06100691
-57.26516929
-75.25832358
-109.7470653
-124.4768649
-117.5478241
-135.4292197
-162.7206996
-156.2386937
-123.940423
-115.5808706
-145.8227808
-153.9364641
-127.0473155
-116.85492
-148.5049902
-165.134688
-144.3252139
-132.0094028
-153.8694088
-166.5875514
-150.9636821
-135.138647
-152.9529873
-162.6089409
-112.2281089
-8.940697782
29.34784047
17.23319498
59.23212281
84.89192544
-21.10004677
-91.99978018
-119.9394607
-241.8235233
-279.4862127
-278.5921429
-227.9207382
-164.9111706
-111.3340391
-92.17859413
-40.70252665
-5.207956458
-9.678305349
-48.41387849
-70.65386422
-64.06009961
-51.9901576
-63.52365774
-82.20971611
-71.50323051
-53.06304134
-65.40120428
-87.35061733
-77.31468407
-49.41970699
-46.1563523
-68.01635838
-64.17185833
-34.71225914
-24.11753227
-44.50232321
-52.83952389
-25.3915817
-3.106892479
-1.810491301
11.19822397
28.65493639
37.26035801
30.51013118
23.71520087
52.9959861
82.00855041
86.23303011
86.70241674
111.7363705
136.5691586
132.0094028
117.8383968
133.5069696
157.0433565
152.1259728
128.7907516
128.7236963
151.3660135
149.8013913
122.3758009
109.0765129
119.8500538
107.4224839
64.99887288
35.62868066
35.51692194
35.18164577
-4.492700636
-33.57232017
-24.34104971
-26.08448578
-51.47606748
-75.9735794
-74.07368112
-61.78022167
-81.87443994
-109.0541612
-109.8364723
-92.64798077
-99.12998666
-122.9569462
-117.6372311
-94.90550696
-95.44194882
-120.006516
-122.5546148
-99.93464946
-90.39045458
-111.1552252
-124.5662718
-110.0823414
-88.80348072
-101.0075332
-110.819949
-94.01143718
-81.20388761
-98.61589654
-118.7101148
-110.1046932
-95.1290244
-107.9589257
-127.4719986
-113.1668822
-91.28452436
-99.42055934
-119.7159433
-116.7878648
-96.69364651
-100.3146291
-121.7723038
-124.9238998
-103.8015013
-94.14554765
-117.9725072
-128.1649027
-107.3107251
-94.9278587
-111.5799083
-125.1921207
-108.1377397
-83.81904171
-95.5313558
-118.084266
-108.0483327
-109.0318095
-128.053144
-141.1959697
-130.7353533
-109.5906031
-106.0813792
-97.63241978
-73.04550088
-51.65488144
-58.20394256
-79.37104456
-79.14752712
-67.97165489
-77.24762884
-108.6294781
-124.7003823
-106.2154897
-100.4710913
-130.8247603
-158.8985513
-151.6342344
-139.251368
-147.4321064
-160.1278973
-144.7722488
-128.7236963
-144.235807
-170.1861823
-165.8052404
-150.1590193
-153.5341327
-175.6400079
-178.3222173
-156.6410251
-156.6857286
-178.433976
-155.6351966
-55.56643672
15.48975891
0.424683145
17.85904382
72.88903867
19.24485198
-38.82498012
-59.90267514
-168.2415805
-214.3085258
-230.5358923
-194.2813628
-143.5652546
-75.72771021
-57.73455593
-29.88428234
-8.62777336
-2.615154101
-27.73851487
-66.27292231
-77.53820152
-62.87545715
-65.58001823
-82.50028878
-81.58386726
-61.53435249
-54.8064774
-79.21458235
-89.51873654
-70.1397741
-57.15341057
-66.00470138
-71.43617528
-53.10774483
-34.28757599
-44.21175053
-52.392489
-34.33227948
-13.5228054
-16.96497404
-24.9892503
-4.090369235
33.23704401
40.14373304
25.97272706
37.84150336
66.54114324
79.75102422
68.08341361
72.30789331
104.0473704
119.6488881
111.870481
110.1270449
130.3106702
145.0851733
127.9860888
107.7801118
116.7431613
131.3164987
122.2863939
101.9463065
96.35837035
98.01239944
73.51488751
33.43820971
21.94941306
24.22929099
4.336238424
-33.37115447
-48.5703407
-38.35559349
-45.44109648
-74.29719857
-90.79278598
-82.0532539
-80.95801842
-107.8695187
-123.1357602
-109.0541612
-96.02309418
-114.6197456
-129.6848213
-109.6129548
-87.86470745
-102.3486379
-120.4759026
-110.4846728
-91.61980052
-97.65477153
-118.1066177
-112.4739781
-88.82583247
-89.02699817
-109.2106234
-111.5799083
-89.0940534
-87.03769291
-110.3952659
-118.5313008
-96.24661162
-82.16501262
-97.00657094
-110.7975973
-98.23591688
-90.81513772
-107.1095594
-119.3136119
-102.1474722
-81.53916377
-94.70434126
-115.2008909
-105.9696205
-87.12709989
-94.34671335
-115.8714433
-107.75776
-85.71893999
-87.52943129
-108.7635885
-104.1814809
-82.50028878
-97.83358548
-130.6906498
-139.7654581
-112.6974955
-98.05710293
-113.4351031
-101.2757541
-63.99304438
-43.16121854
-63.43425076
-78.34286432
-65.1106316
-60.8861519
-87.46237605
-118.0395625
-113.1892339
-98.32532386
-117.5701758
-152.5059524
-152.6847664
-126.5779289
-129.4389521
-154.9869961
-157.177467
-136.9044348
-136.6138621
-157.6468536
-166.2299235
-149.041432
-140.1454377
-160.060842
-172.3543015
-156.7080804
-142.4253157
-157.1327635
-169.247409
-112.2281089
5.632639603
72.66552122
86.09891964
151.9471588
169.2921125
99.86759423
69.60333223
41.57424469
-78.70049223
-165.0676328
-201.3221623
-119.4924259
-42.96005284
-0.961125012
-31.8288841
-32.52178818
-13.07577051
-13.90278505
-47.89978837
-68.57515199
-59.58975072
-50.85021864
-67.25639907
-82.47793704
-65.62472172
-46.80455289
-61.31083504
-78.70049223
-65.3117973
-39.27201501
-42.60242493
-67.81519268
-62.24960831
-32.81236086
-26.53152067
-42.1330383
-35.51692194
-3.933907024
11.75701758
-2.034008745
0.156462211
31.67242189
49.66557618
41.41778248
40.7248784
66.9211229
89.98812318
84.51194579
81.89679168
107.8918705
137.2620627
135.5856819
123.0240015
138.0667255
157.2892257
147.6556239
127.4496469
134.177522
155.5457897
148.6838041
114.4185799
105.924917
112.1163502
100.8287192
59.03095711
29.07961954
30.44307595
25.54804391
-7.957221026
-34.73461088
-32.05240155
-32.87941609
-61.93668389
-86.4788993
-78.02993989
-66.85406767
-84.22137311
-108.4730158
-107.0425042
-87.4847278
-95.91133546
-122.0628765
-121.7723038
-98.10180641
-96.35837035
-115.9384985
-117.6372311
-93.89967846
-89.58579178
-111.1552252
-118.3748386
-94.90550696
-85.20484986
-104.8520332
-114.0833037
-96.09014941
-84.35548357
-104.695571
-123.6945538
-112.9433647
-97.25244013
-108.9424025
-127.4943504
-117.3690101
-95.39724534
-104.2932396
-131.4506091
-127.2708329
-101.6780855
-101.9463065
-128.5672341
-134.1551702
-112.0716467
-103.4215216
-120.2747369
-127.6955161
-108.1153879
-97.99004769
-121.1017515
-135.6303854
-116.6314026
-95.30783836
-105.0084955
-124.5662718
-107.9589257
-94.726693
-127.7402196
-158.9879583
-149.7119844
-121.3476206
-120.006516
-122.9122428
-96.29131511
-71.21265783
-85.22720161
-115.1114839
-108.7635885
-78.74519572
-82.94732367
-113.2562892
-126.4885219
-110.7081903
-107.75776
-140.9277488
-166.9451793
-152.7741734
-132.6128999
-147.1415337
-165.4699642
-152.6847664
-132.8364173
-151.8354001
-174.7906416
-166.7887171
-144.235807
-150.6507576
-174.9024004
-172.5331155
-152.3047867
-154.8528856
-175.7741184
-162.34072
-74.45366078
40.03197432
80.84625969
105.6343443
182.1890691
162.9665688
85.51777429
70.20682933
5.11854948
-136.189179
-227.2501859
-214.643802
-121.0123445
-36.88037835
-29.52665443
-59.74621293
-43.83177088
-25.92802357
-44.27880577
-79.50515503
-85.92010569
-69.11159386
-73.38077705
-90.54691679
-93.3185331
-71.52558226
-57.51103848
-78.02993989
-81.8520882
-57.06400359
-43.9435296
-61.22142806
-71.39147179
-51.94545411
-31.38184922
-36.67921265
-48.10095407
-28.90080558
-1.162290712
-2.078712234
-14.84155832
6.012619258
37.66268941
42.5353697
32.54413993
45.06111682
78.81225095
90.77043423
79.25928584
83.41671031
123.068705
137.4855801
120.967641
117.8607485
144.9734145
163.0112723
145.979243
132.2999754
149.5555222
162.7654031
139.7431063
111.3340391
109.1882717
114.3068211
90.68102726
51.52077097
39.27201501
43.1388668
20.63066013
-21.86000608
-38.66851791
-29.68311664
-40.322547
-77.96288466
-92.02213192
-79.59456201
-79.43809979
-104.9414402
-116.8102165
-99.82289074
-88.55761153
-106.3048966
-117.994859
-102.5051001
-86.99298942
-100.8957745
-121.5487863
-112.4292746
-91.7092075
-95.5313558
-113.3903996
-108.8753472
-87.8870592
-91.97742843
-115.9608502
-115.3350014
-92.08918716
-90.23399237
-111.959888
-118.6654113
-97.9453442
-90.85984121
-113.5692136
-122.7557805
-109.0988647
-92.73738775
-109.9929345
-127.002612
-110.8646525
-95.91133546
-107.9589257
-120.788827
-107.0648559
-87.01534116
-98.30297211
-119.738295
-114.5079868
-96.44777732
-101.6780855
-125.1921207
-125.1697689
-103.734446
-104.002667
-129.9083388
-136.5691586
-115.6479258
-111.5128531
-131.7411818
-140.1901412
-123.5827951
-106.1260827
-134.8033708
-173.4942405
-163.5477142
-144.0793448
-147.4991617
-159.0103101
-125.7956178
-78.92400967
-92.5138703
-130.0424492
-131.5623679
-99.97935295
-85.8754022
-106.3048966
-115.2902979
-104.1144257
-112.6304403
-140.1677895
-151.8354001
-140.5701209
-136.099772
-156.395156
-165.3582055
-142.8499988
-131.2270917
-149.8907983
-166.4757927
-150.0696123
-131.8305888
-146.3145192
-167.7721939
-154.4729059
-133.998708
-139.6536994
-157.6692054
-147.2756442
-103.8685565
-25.77156136
49.44205874
92.78209123
153.9364641
193.9013831
116.5419956
74.3642538
92.96090519
-12.44992166
-152.7965251
-219.7847032
-150.181371
-87.37296908
-55.11940183
-74.99010265
-47.34099476
-17.45671242
-38.95909059
-73.93957066
-68.79866943
-51.05138434
-63.27778855
-86.99298942
-76.91235267
-52.88422738
-51.54312271
-71.7490997
-68.95513164
-37.93091034
-30.97951782
-50.31377677
-49.26324478
-22.10587527
-7.17490997
-25.45863693
-28.8113986
-0.022351744
24.05047703
15.06507576
2.704561079
26.41976195
60.8861519
61.04261411
56.92989313
78.27580908
110.8423008
117.2796032
105.4778821
125.0356585
160.3737665
167.1016415
152.2377315
157.8033159
188.0452261
194.2590111
172.488412
169.4485747
185.0947958
187.441729
161.3572432
143.8558273
151.7236414
148.3261762
110.6187833
74.02897764
67.9269514
66.74230894
35.74043938
-1.743436068
-8.314848937
-3.553927368
-28.92315733
-62.98721588
-70.60916073
-56.52756173
-66.13881184
-92.55857379
-94.01143718
-72.9560939
-74.27484682
-101.1192919
-104.1144257
-74.67717823
-66.07175661
-87.50707954
-98.41473084
-78.70049223
-67.59167523
-85.18249812
-101.1416437
-83.03673065
-61.46729725
-75.34773056
-95.19607964
-83.41671031
-58.8744949
-66.74230894
-89.98812318
-85.69658824
-61.98138737
-65.66942521
-87.55178303
-91.55274529
-72.10672761
-68.50809676
-87.64119001
-93.65380927
-75.75006196
-67.99400663
-89.16110863
-103.1756524
-87.73059699
-74.78893695
-90.47986156
-106.3048966
-90.12223364
-77.53820152
-92.44681507
-113.792731
-106.0813792
-85.4730708
-95.91133546
-117.3690101
-111.4681496
-94.1231959
-94.34671335
-118.3748386
-122.3534491
-102.3933413
-99.64407678
-126.4438184
-131.115333
-103.2650594
-91.1057104
-111.0434665
-120.4535509
-102.5498036
-100.6052018
-134.1328185
-156.7974874
-137.5749871
-114.843263
-120.8111788
-119.1571497
-86.56830628
-54.29238728
-68.79866943
-102.0580652
-95.88898371
-68.39633803
-63.94834089
-91.9103732
-104.4720536
-96.38072209
-102.3933413
-129.3048417
-136.5915104
-112.1610537
-99.5546698
-120.5429578
-137.8879115
-119.4253706
-106.3496001
-119.6041846
-135.0715917
-127.0473155
-112.3845711
-125.3932864
-148.2814727
-143.7664203
-125.5497486
-133.4622661
-155.9704728
-140.123086
-59.09801234
10.21474722
-6.280840192
2.05636049
55.83465765
1.45286339
-83.72963473
-82.07560564
-134.6469086
-211.9615927
-229.0159737
-212.0733514
-177.1152231
-131.8529405
-131.6964783
-99.01822794
-60.77439317
-46.40222149
-84.84722195
-130.8247603
-140.0113273
-131.3388504
-147.3650512
-166.3193305
-163.5030107
-148.9967285
-166.1628683
-180.0209498
-169.1356503
-142.134743
-128.3213649
-137.4408767
-122.889891
-56.12523033
-11.13116874
-36.05336381
-67.63637872
-60.52852398
-49.26324478
-42.24479702
-25.97272706
11.17587223
57.51103848
98.81706224
94.01143718
77.82877419
85.92010569
75.88417243
48.92796861
53.57713146
80.10865213
100.0240564
102.6168588
109.5011961
143.2523302
160.060842
140.4136587
141.0395075
180.5126882
226.1549504
224.7467905
187.5758395
160.2620077
143.8558273
100.2252221
54.67236694
41.82011388
28.69963988
-3.844500046
-41.77541039
-48.81620989
-31.87358759
-33.75113413
-61.73551819
-68.68691071
-63.45660251
-77.09116663
-103.9356117
-95.55370755
-73.00079739
-67.39050953
-95.95603895
-107.3777804
-87.32826559
-76.9794079
-87.37296908
-99.9570012
-82.16501262
-70.67621597
-90.23399237
-96.62659128
-65.44590777
-46.40222149
-71.21265783
-90.81513772
-75.54889626
-44.07764007
-51.20784655
-75.79476545
-81.78503296
-53.37596576
-49.71027967
-73.04550088
-75.81711719
-59.03095711
-60.8861519
-83.30495158
-83.50611729
-62.71899494
-53.44302099
-79.43809979
-104.4497018
-92.33505634
-64.93181764
-92.37975983
-118.1960247
-101.1192919
-79.14752712
-94.70434126
-119.738295
-111.0434665
-97.58771629
-110.7752455
-126.5555771
-117.9725072
-88.691722
-75.50419277
-102.773321
-121.7946555
-115.4244084
-104.3379431
-99.71113202
-100.1581669
-69.536277
-40.30019525
-59.94737863
-97.23008838
-102.7956727
-91.5080418
-102.4380448
-116.2514229
-100.2252221
-85.96480918
-89.94341969
-116.1843677
-108.9200507
-93.60910578
-115.4691119
-149.5331704
-148.1473622
-119.2242049
-103.9803152
-102.3709896
-130.3330219
-145.0404698
-158.2727025
-191.1744703
-196.6953512
-168.2192288
-144.2581587
-162.4971822
-179.395101
-170.1861823
-146.1357052
-131.5176644
-78.25345734
-4.425645402
24.69867762
50.67140468
33.34880273
-41.3283755
-53.53242797
-62.0931461
-192.6720372
-209.3017351
-157.6692054
-111.7363705
-132.2776237
-121.4370276
-60.03678561
-0.625848845
1.117587223
-12.60638387
-20.04951478
-21.12239851
-39.04849756
-59.70150944
-46.20105579
-30.08544804
-50.80551515
-80.30981783
-62.78605017
-38.40029697
-52.23602679
-54.31473903
-26.3974102
-0.156462211
-13.96984028
-47.7656779
-40.5237127
-12.40521817
-9.924174538
-22.46350318
-19.87070082
9.43243616
28.05143929
12.09229375
20.94358455
55.8123059
92.67033251
85.8754022
74.78893695
99.06293143
141.2853767
131.3388504
127.6508126
154.0035193
179.2833423
160.6419874
136.5915104
125.5273969
117.5925276
96.55953605
95.28548661
131.2494434
134.8927778
112.2951641
66.76466069
44.07764007
60.2826548
68.21752408
33.23704401
6.616116359
7.57724137
7.845462304
-18.70841011
-38.15442779
-44.79289589
-55.49938148
-88.42350107
-112.2281089
-115.0444287
-106.1260827
-114.7315043
-128.6566411
-128.4778271
-115.7820363
-106.707228
-108.6741815
-99.12998666
-75.05715788
-77.51584977
-113.1221787
-126.4885219
-107.3107251
-102.5721553
-126.6896876
-134.177522
-96.1348529
-76.28650383
-95.50900406
-106.2378414
-84.40018706
-64.82005892
-78.5887335
-83.95315217
-55.32056753
-45.23993078
-81.91914343
-116.2961264
-107.7354083
-48.79385815
-1.0058285
-2.525747123
-13.00871527
-36.14277078
-92.78209123
-130.6682981
-142.2465017
-146.4262779
-134.5351499
-115.4244084
-92.82679472
-50.85021864
-52.10191633
-83.43906205
-106.3496001
-95.35254185
-102.9297832
-149.4437634
-179.395101
-167.0122346
-132.165865
-108.1377397
-108.5847746
-97.3418471
-67.74813744
-62.8978089
-78.32051257
-83.30495158
-73.06785262
-81.00272191
-112.0045915
-123.8063125
-116.7208095
-126.8461498
-152.3494902
-151.9024553
-122.3534491
-112.049295
-132.5458446
-160.1278973
-151.6565861
-139.0054988
-154.5846647
-165.0899845
-155.9034176
-129.3271934
-139.2737197
-172.0413771
-171.1026038
-143.095868
-139.6089959
-143.4311442
-57.57809372
51.05138434
82.99202716
110.6187833
128.1201992
106.5060623
135.4739231
151.8130483
22.84348283
-49.3750035
-67.90459966
-20.00481129
0.2011657
43.56354994
39.9202156
15.40035193
-20.94358455
-33.52761668
-33.25939575
-52.90657913
-73.78310845
-67.99400663
-48.9726721
-44.07764007
-58.29334954
-59.38858502
-41.01545108
-29.72782013
-47.40804999
-60.6849862
-54.06886984
-45.19522729
-30.75600037
-20.11657001
-15.9367938
-25.54804391
-43.27297727
-57.01930011
-38.06502081
-6.392598914
0.2011657
-6.325543681
9.611250116
45.86577962
53.57713146
32.41002946
39.00379407
76.26415208
103.7120943
95.64311452
86.83652721
91.23982087
95.59841104
77.582905
79.39339631
104.4049984
107.9589257
84.84722195
69.22335258
89.94341969
99.59937329
74.27484682
49.08443082
49.62087269
48.25741628
20.29538397
-13.79102633
-18.39548569
-15.44505542
-38.02031732
-65.35650079
-73.93957066
-76.93470442
-98.12415816
-120.3417921
-118.9783357
-100.6275535
-102.5721553
-124.2980509
-136.9044348
-104.4273501
-86.70241674
-112.2504607
-125.9073765
-104.1591292
-83.28259984
-95.75487325
-108.2718501
-92.35740809
-76.08533813
-97.52066106
-113.1668822
-95.15137615
-75.25832358
-86.30008534
-109.4564926
-103.5779838
-77.35938756
-83.79668996
-112.7869025
-118.3748386
-98.50413781
-88.87053595
-104.963792
-112.2728124
-102.4603966
-106.3048966
-128.5001789
-141.4194872
-124.8568445
-109.0988647
-128.9695655
-144.7946006
-127.4943504
-103.2427076
-118.3748386
-143.2970337
-139.5866441
-142.0900395
-161.6031124
-179.7750807
-153.6235396
-118.8889288
-101.2757541
-98.59354479
-90.16693713
-69.71509096
-69.46922177
-85.60718126
-94.07849241
-85.58482952
-86.41184406
-119.3359636
-141.3077284
-131.8305888
-123.2028154
-137.2844144
-155.0316995
-150.5166472
-143.5429029
-158.4291647
-180.0209498
-167.8839526
-148.1250105
-160.41847
-184.4018918
-171.9519701
-146.9180163
-145.3086907
-172.4213567
-182.0773103
-158.4291647
-149.8237431
-161.8713333
-112.3398676
5.342066925
69.29040781
85.58482952
130.9812225
125.1921207
102.1251204
120.878234
64.19421008
-56.16993382
-123.1581119
-118.2854317
-82.12030913
-30.26426199
-16.96497404
-36.16512253
-58.38275652
-59.74621293
-46.78220114
-62.33901529
-94.41376858
-94.41376858
-57.08635534
-51.14079131
-92.84914647
-115.3350014
-95.95603895
-75.07950963
-93.89967846
-103.2874111
-79.08047188
-55.23116055
-61.84727691
-73.49253577
-54.85118089
-26.26329973
-27.71616312
-49.68792792
-33.32645098
-1.072883734
3.777444813
-4.582107613
10.14769198
42.35655574
50.76081166
38.44500046
47.81038139
83.4614138
98.81706224
72.21848634
73.51488751
109.2106234
130.0424492
122.018173
109.2329752
124.9238998
136.6138621
111.4010944
85.24955335
91.08335866
105.1873094
90.52456504
56.52756173
48.25741628
54.13592507
31.87358759
-10.90765129
-25.12336077
-17.81434033
-32.72295388
-61.78022167
-66.29527405
-58.09218384
-66.02705312
-100.940478
-121.3252689
-102.0357134
-92.67033251
-110.037638
-121.749952
-105.7013995
-87.52943129
-98.25826863
-114.6197456
-100.0240564
-74.34190206
-85.22720161
-111.0658182
-102.1251204
-80.19805911
-87.61883826
-114.4632834
-113.9044897
-94.23495462
-100.6499053
-120.6770683
-126.6449841
-111.781074
-105.6343443
-126.7120393
-141.4194872
-124.0074782
-114.5750421
-134.3339842
-150.0472605
-128.835455
-110.3729141
-128.4107719
-152.3271385
-137.4185249
-116.765513
-123.9627747
-138.4467052
-130.6012429
-114.0386002
-127.2261294
-166.4310892
-175.2153248
-154.8081821
-149.0190803
-152.3047867
-144.7051936
-103.6226873
-77.22527709
-98.37002735
-107.4224839
-76.95705616
-58.00277686
-85.58482952
-117.2572514
-112.8092543
-100.6946088
-121.3923241
-151.1201443
-154.204685
-143.8111238
-164.7547084
-191.6662087
-182.1443656
-157.1998188
-158.2950542
-181.7420342
-179.1045283
-152.4836007
-149.1755425
-171.9296184
-175.1482696
-155.3893275
-147.7226791
-173.9859788
-191.0627116
-166.5651997
-122.6887253
-63.88128565
-7.733703582
27.13501777
91.77626273
119.6935916
74.63247474
103.1309489
166.4757927
80.30981783
-34.77931437
-76.08533813
-32.76765737
-39.20495977
-36.52275044
-49.10678257
-24.94454681
-23.96107006
-58.38275652
-77.02411139
-63.23308506
-56.50520998
-78.00758815
-88.53525979
-72.79963169
-60.0814891
-74.40895729
-87.93176269
-68.5304485
-54.91823613
-66.36232929
-69.89390491
-53.64418669
-32.0300498
-36.83567486
-54.6053117
-47.45275348
-17.68022986
-12.98636353
-27.67145964
-12.13699724
24.16223576
31.87358759
16.42853217
22.61996539
58.98625362
85.36131207
75.75006196
78.27580908
109.9035275
134.7586673
129.1483795
123.6945538
147.8791413
162.4077752
151.2095512
137.1726557
144.7051936
153.4670774
137.7985046
113.971545
115.7596845
123.851016
101.1863471
60.77439317
46.84925638
49.21854129
31.4265527
-8.024276259
-26.46446544
-19.42366593
-24.45280843
-54.6053117
-77.31468407
-75.95122766
-76.80059395
-99.84524248
-117.7042863
-100.3146291
-85.36131207
-101.4098646
-122.3981526
-106.796635
-84.17666962
-90.92689644
-112.2951641
-104.3602949
-79.23693409
-86.70241674
-108.7412368
-111.8257775
-90.47986156
-92.20094588
-114.3962281
-112.0269432
-82.41088181
-73.51488751
-98.21356514
-114.4409316
-99.21939364
-87.01534116
-105.8578617
-122.4875596
-106.1931379
-93.83262322
-104.1814809
-123.8063125
-117.9278037
-98.1465099
-105.2543646
-128.7460481
-120.788827
-91.77626273
-102.5051001
-146.2698157
-158.2056473
-132.2105685
-119.1124462
-130.5118359
-121.9511177
-71.39147179
-51.56547446
-75.75006196
-93.85497497
-68.79866943
-59.41093676
-86.41184406
-109.769417
-113.792731
-100.6275535
-121.6828968
-148.4379349
-143.7440686
-124.2309957
-130.5788911
-150.7401646
-145.979243
-125.2144724
-130.6459463
-151.9024553
-153.4894292
-135.0939435
-132.9034725
-159.1444205
-169.8509061
-151.5671792
-132.1435132
-148.1473622
-163.7935834
-136.1444755
-76.1747451
-24.9892503
-19.9601078
1.899898279
46.9610151
-7.733703582
-94.726693
-73.71605321
-76.28650383
-185.2065546
-214.2414706
-182.7478627
-153.064746
-134.1104667
-134.959833
-79.32634107
-15.82503507
-17.16613974
-60.77439317
-85.33896033
-70.27388457
-65.08827985
-90.83748947
-101.5663268
-81.38270156
-63.68011995
-82.54499227
-93.83262322
-71.1456026
-52.7948204
-61.84727691
-74.49836427
-62.18255307
-40.00962257
-47.69862267
-58.76273617
-44.25645402
-16.11560775
-12.31581119
-23.46933168
-17.83669208
14.55098564
29.70546838
19.82599733
27.8055701
61.73551819
87.8870592
77.56055326
80.51098353
114.0833037
142.4476674
138.6702226
130.1318562
147.119182
171.0802521
156.4622112
136.189179
143.6323099
161.1784293
146.9180163
111.8928327
101.4769198
112.6304403
88.691722
46.08929707
21.48002642
18.21667173
4.358590169
-29.59370966
-45.08346857
-38.40029697
-45.91048311
-85.22720161
-102.3262861
-92.17859413
-90.65867551
-117.5701758
-131.7858853
-114.9550217
-102.4827483
-117.1901962
-137.3067662
-127.8072748
-106.3272484
-116.4972921
-140.5030656
-129.103676
-106.4166554
-107.4895391
-129.4836556
-129.6624696
-104.8967367
-100.7840157
-122.2640422
-128.1649027
-110.998763
-103.7120943
-119.9841642
-131.9423475
-110.2164519
-96.31366686
-113.1892339
-135.0268883
-126.1085422
-103.734446
-108.1377397
-128.3660684
-117.4360654
-95.64311452
-101.8792512
-136.2785859
-143.2970337
-116.8772718
-114.1727107
-131.115333
-129.4613039
-88.80348072
-65.84823917
-81.22623935
-91.1057104
-76.35355906
-67.27875081
-99.53231806
-123.1804637
-114.6420973
-108.897699
-132.4787894
-158.9879583
-156.2610455
-149.3767082
-165.8052404
-184.9606854
-177.7187202
-154.9199408
-162.4748304
-189.7216069
-188.7157784
-164.4194322
-169.9626648
-196.2483163
-201.2998106
-178.1657551
-177.6740167
-203.1326536
-207.737113
-183.7089877
-158.1162403
-115.893795
-71.25736132
-56.48285824
-36.38863997
-22.08352352
-85.62953301
-108.2271467
-54.71707043
-120.8558823
-212.0509996
-202.2609356
-159.6808624
-158.5409234
-149.7119844
-126.6226323
-47.51980871
-16.18266299
-48.03389883
-76.46531778
-67.23404732
-69.35746304
-98.57119305
-109.0541612
-87.26121035
-75.34773056
-99.77818725
-115.4914636
-94.95021045
-78.52167827
-91.82096622
-107.0872077
-90.65867551
-66.29527405
-77.24762884
-94.88315521
-83.34965507
-58.33805303
-54.91823613
-65.84823917
-53.55477971
-23.06700028
-16.04855252
-30.68894514
-19.9601078
22.23998573
37.37211673
22.84348283
23.42462819
54.62766345
75.83946894
66.65290197
59.25447455
78.81225095
94.25730637
79.25928584
67.85989617
84.84722195
97.85593723
83.03673065
59.38858502
57.82396291
67.27875081
49.03972733
13.00871527
-4.291534935
0.8046628
-14.39452343
-51.14079131
-69.1339456
-59.29917804
-64.61889322
-97.5430128
-111.6022601
-95.39724534
-93.38558833
-122.8675393
-142.2465017
-126.0861905
-111.6246118
-130.7130016
-150.9636821
-139.8995685
-121.3699724
-136.2115307
-158.1162403
-152.9306356
-128.3884202
-128.1872545
-148.5273419
-145.1298767
-122.9569462
-124.7674375
-145.8004291
-144.1911035
-118.1289694
-113.6586206
-136.3903447
-141.6206529
-119.917109
-110.8423008
-138.0890772
-155.7022519
-138.2455395
-123.4039811
-140.8383418
-159.5914554
-145.7110221
-126.9579085
-152.7518216
-186.2123831
-175.4164905
-153.8023536
-153.6235396
-171.527287
-140.5701209
-90.81513772
-89.02699817
-115.9608502
-115.4691119
-87.59648652
-87.75294873
-122.800484
-139.5642924
-125.1474172
-117.1901962
-145.5992634
-169.9626648
-160.5078769
-143.3417372
-159.9714351
-182.8149179
-176.6458364
-165.134688
-175.2600283
-196.8965169
-192.3144093
-173.9412754
-180.8926679
-202.8644327
-202.5291565
-183.1948976
-185.9441621
-212.2298136
-216.2978311
-173.5165922
-89.51873654
-30.46542769
-18.08256126
36.56745393
80.62274225
26.35270671
21.25650898
81.27094284
15.02037227
-96.85010872
-163.3465485
-112.1163502
-75.41478579
-56.08052684
-82.72380623
-75.48184103
-64.66359671
-86.90358244
-118.3748386
-128.9695655
-112.4069229
-114.8656148
-138.7149261
-140.6148244
-114.3068211
-107.1095594
-125.3038794
-127.6061091
-102.9968385
-84.42253881
-97.45360583
-111.4681496
-85.98716092
-60.37206177
-63.07662285
-76.44296604
-61.31083504
-36.92508184
-41.1272098
-56.16993382
-39.33907024
-13.20988097
-7.487834393
-20.20597699
-11.01941002
23.69284912
35.02518356
17.7472851
18.97663104
50.80551515
69.78214619
57.48868674
52.12426807
73.7607567
81.15918412
60.2826548
44.92700636
60.14854433
67.9269514
45.64226218
15.84738682
14.34981994
21.27886072
-2.436340146
-41.21661678
-51.52077097
-46.73749766
-67.59167523
-104.9190885
-118.5983561
-107.8248153
-111.959888
-142.6711849
-156.3728042
-140.5030656
-138.200836
-162.4748304
-174.1424411
-151.5671792
-133.8645975
-147.2756442
-164.6876531
-148.3261762
-127.5167021
-136.882083
-153.5788362
-140.0113273
-120.8111788
-128.1649027
-150.9636821
-146.7168506
-123.0240015
-126.1979492
-152.3941937
-157.4456879
-138.1561325
-137.150304
-158.8538478
-164.3300252
-144.4593244
-138.3125947
-162.9665688
-177.6516649
-160.7313944
-143.6099581
-161.8489816
-179.9538946
-163.1453828
-165.7158334
-194.1025488
-219.9188137
-207.3347816
-175.3941387
-170.0520718
-166.5875514
-144.6828419
-121.3476206
-127.6508126
-147.5438651
-142.2912052
-139.8548651
-152.4165454
-183.507822
-188.2910953
-166.2969787
-168.4427462
-201.4786245
-220.7011248
-198.9528774
-183.1501941
-201.2551071
-216.7225142
-197.7235315
-181.6973307
-193.9237349
-215.9849067
-206.507767
-191.2415256
-203.1773571
-221.2599184
-207.8712234
-184.9383336
-187.5758395
-203.7585025
-167.6827869
-62.33901529
3.375113413
6.213784959
58.06983209
87.21650686
55.38762276
56.30404428
44.61408193
-55.99111986
-129.9530423
-177.472851
-149.3990599
-105.1426059
-60.23795131
-82.20971611
-101.2534024
-102.5721553
-100.0017047
-121.7723038
-150.0249088
-149.2649495
-128.9919173
-132.4117342
-157.7809641
-153.8694088
-128.5448824
-122.3534491
-137.9996703
-144.5040279
-122.5546148
-109.7247135
-122.8675393
-125.5944521
-101.1192919
-81.60621901
-89.76460573
-96.60423954
-71.70439621
-42.82594238
-43.96588134
-53.5994832
-32.52178818
-1.743436068
2.548098868
-4.760921569
11.55585188
45.53050346
51.45371574
37.26035801
45.37404124
77.06881488
88.42350107
68.82102118
64.08245135
84.24372485
92.60327728
69.37981479
47.7656779
57.46633499
61.93668389
33.63937541
3.777444813
1.542270367
-2.011657001
-31.8288841
-68.41868978
-75.99593115
-71.21265783
-91.93272494
-126.3097079
-134.177522
-119.5594811
-134.4233912
-168.0627666
-174.8129934
-155.6575484
-156.1045833
-183.2843045
-189.4310343
-168.6215602
-156.8198391
-177.1375748
-185.7429964
-163.5253624
-149.1084873
-170.0297201
-187.7323017
-167.7721939
-143.8781791
-157.7809641
-177.3387405
-163.0112723
-139.0054988
-145.9568913
-170.3649962
-164.084156
-146.247464
-149.041432
-168.6215602
-168.3309875
-142.4253157
-135.5186266
-161.3125397
-175.1259178
-158.8314961
-150.2260745
-169.0238916
-184.9159819
-169.4485747
-158.1162403
-175.4835457
-189.7439587
-177.2716853
-179.4621562
-205.7701595
-228.9489185
-214.9790782
-183.0607871
-176.1764498
-168.8227259
-157.08806
-137.4408767
-139.8325133
-153.24356
-146.8733128
-140.9501005
-153.4447257
-184.8712784
-196.2706681
-180.2221155
-181.5185167
-212.2968688
-233.5757296
-215.5602235
-201.4115693
-218.3318398
-235.8556075
-221.3716771
-205.2784211
-222.8021887
-244.6621948
-233.9110057
-210.2852118
-218.1083224
-245.1539332
-237.4425813
-213.3026973
-213.6603252
-227.3172411
-181.7867377
-63.21073332
0.715255823
5.722046581
55.56643672
71.63734098
50.60434945
64.77535543
36.54510218
-69.60333223
-129.193083
-159.5467519
-144.6381384
-106.1260827
-77.02411139
-96.11250116
-108.8306438
-106.6178211
-98.37002735
-118.866577
-150.5166472
-150.2037227
-127.87433
-131.8752923
-156.3728042
-154.8305338
-128.2096062
-123.4039811
-145.6663186
-146.6497954
-116.6537543
-104.4497018
-122.0628765
-130.5118359
-105.0531989
-81.76268122
-93.54205055
-104.4273501
-82.79086146
-53.53242797
-57.08635534
-69.64803572
-51.76664016
-17.70258161
-12.89695655
-22.7764276
-6.683171592
25.61509915
34.77931437
26.7997416
39.29436675
67.74813744
79.72867247
62.22725656
58.29334954
79.72867247
90.01047492
69.3351113
51.9901576
64.77535543
69.89390491
44.345861
13.00871527
10.058285
12.49462515
-19.46836942
-59.85797165
-71.39147179
-70.09507061
-91.73155924
-122.1299317
-129.8189318
-120.7217718
-128.5225306
-157.6468536
-167.0569381
-149.8237431
-148.7061559
-171.8625631
-181.4514615
-162.1395543
-150.3825367
-169.0685951
-183.8207464
-163.1453828
-145.6663186
-164.5311909
-180.3115225
-161.4466502
-142.8723506
-151.0083855
-171.4602317
-165.0452811
-143.2523302
-150.7625164
-174.9471039
-172.4213567
-149.220246
-151.4554204
-172.7119294
-173.9636271
-152.3494902
-148.6391006
-172.0190253
-177.6963684
-153.5341327
-139.072554
-157.8703711
-172.7566329
-150.3154815
-131.9423475
-150.4495919
-170.4096997
-159.9714351
-143.5205511
-154.6964234
-178.7021969
-171.1249555
-149.0190803
-158.4291647
-183.418415
-179.8644876
-155.5234379
-151.6565861
-191.6885604
-211.7380752
-194.4825285
-184.8042232
-203.9149647
-202.0374181
-148.8402663
-112.2728124
-136.2338825
-162.2289613
-148.7061559
-123.0463532
-129.9083388
-154.0482228
-150.6731094
-146.3145192
-162.2960165
-191.9567814
-192.7837959
-180.1103568
-186.8382319
-208.2288513
-207.6030025
-183.7536912
-183.0831388
-206.0607321
-209.1899764
-187.5534877
-186.7488249
-207.7594647
-218.667116
-203.4902815
-190.9509529
-206.9771537
-213.8614909
-181.6749789
-122.7557805
-59.25447455
-40.81428538
-11.35468618
59.58975072
44.05528832
-15.19918623
32.27591899
62.51782924
-52.07956458
-123.5380916
-130.8247603
-94.39141683
-78.52167827
-98.70530351
-91.5080418
-48.03389883
-44.77054414
-89.80930922
-115.3573531
-105.4331786
-99.24174538
-119.738295
-136.4797516
-119.045391
-100.5604983
-112.4292746
-129.1260277
-115.6926293
-96.80540524
-105.6790478
-119.0230392
-104.9414402
-77.67231198
-76.28650383
-90.54691679
-79.95218992
-53.5994832
-47.78802965
-61.86962865
-57.28752104
-25.32452647
-10.14769198
-18.90957581
-16.7414566
14.81920657
38.60146267
35.36045973
35.96395683
62.38371877
89.74225399
86.21067836
79.39339631
100.2699256
122.3534491
112.921013
90.21164062
97.49830931
119.9618125
107.6012978
73.11255611
62.96486413
74.94539916
62.38371877
19.31190721
-8.381904171
-5.811453558
-17.16613974
-51.69958493
-78.54403002
-77.51584977
-82.34382657
-111.2222804
-136.2785859
-130.5788911
-120.1853299
-141.4641907
-168.6662637
-157.3339292
-137.4855801
-149.6672809
-165.5146677
-160.8431531
-141.1959697
-149.4884669
-171.0131968
-167.146345
-138.983147
-134.3563359
-155.3669757
-162.1172025
-142.9394058
-135.5186266
-154.5176094
-166.0734613
-146.4262779
-132.7470103
-150.2260745
-168.0627666
-152.3941937
-136.7479726
-151.6118826
-173.1589643
-154.1376298
-129.5060074
-137.1056005
-160.7090426
-156.037528
-132.2329202
-137.9773185
-157.8033159
-156.5963217
-140.9501005
-141.173618
-161.6478159
-169.9403131
-152.8635803
-146.6721471
-167.4592695
-180.9373714
-166.095813
-154.1376298
-172.8907434
-191.5320982
-170.6779207
-152.5506559
-173.6730544
-207.1559676
-204.6525722
-187.1958598
-196.1589093
-209.9275839
-180.2891708
-127.3378882
-120.8335305
-143.2523302
-151.6342344
-131.3164987
-122.8451875
-151.6118826
-171.4602317
-163.4583072
-160.0384903
-184.1336708
-206.4630635
-197.6117727
-188.0005226
-206.3066013
-219.4494271
-201.2551071
-183.1278423
-204.2055373
-227.0713719
-208.7205897
-187.4640807
-200.472796
-223.4727411
-216.7672177
-194.2366593
-201.612735
-225.0820667
-216.3201828
-167.8392491
-105.0308472
-71.70439621
-71.97261715
-34.08641029
10.14769198
-56.61696871
-108.2494984
-64.82005892
-122.5322631
-221.1481596
-230.8488167
-188.3805023
-169.158002
-159.8596763
-169.3815195
-107.3330769
-55.45467799
-72.12907936
-118.7548183
-127.1367225
-109.5906031
-116.6090508
-143.9899378
-151.3436617
-130.4894841
-128.6119376
-154.1599815
-158.9656066
-135.8986063
-122.8228358
-139.3631267
-149.220246
-124.8568445
-105.5449373
-117.1007892
-128.5001789
-107.75776
-82.09795738
-89.96577143
-102.4380448
-80.42157655
-47.87743662
-38.86968361
-46.60338719
-31.13598003
4.760921569
13.79102633
2.637505846
16.24971822
48.52563721
56.68402394
43.7423639
46.13400056
72.48670727
80.73450097
59.09801234
47.18453255
63.00956762
73.91721891
46.46927672
17.9484508
24.45280843
28.25260499
-3.978610513
-40.63547142
-48.48093372
-46.84925638
-71.43617528
-108.4283124
-118.084266
-110.8870042
-126.6896876
-162.4748304
-171.3931765
-155.9928246
-162.0277956
-190.2804005
-204.1608339
-184.8489266
-173.1366126
-190.3027523
-206.7089327
-190.7944907
-176.7575952
-191.8450227
-206.9324502
-190.593325
-169.9626648
-183.1725458
-202.7750257
-188.8722406
-162.34072
-170.6779207
-189.542793
-182.2561243
-161.3572432
-166.095813
-191.7779674
-195.7789297
-166.7663654
-153.7576501
-176.6458364
-183.7536912
-161.9160368
-153.1318013
-175.3270835
-188.492261
-169.2027055
-153.0870978
-171.527287
-193.1190721
-179.5068597
-161.6701676
-177.383444
-201.5903832
-195.8012814
-177.5175545
-181.0714818
-202.3726943
-203.8255577
-187.1511563
-194.2143076
-217.6836393
-216.5213485
-192.9849616
-184.9383336
-214.1967671
-243.4328489
-232.5922528
-222.601023
-241.6000058
-245.4668576
-203.6020402
-158.4291647
-165.7828886
-188.4475575
-178.8139556
-158.0715368
-166.3193305
-189.0957581
-192.1132436
-182.6361039
-196.449482
-222.4669126
-230.1335609
-217.4377701
-224.0315347
-246.1597617
-245.0645262
-221.7963602
-216.2084241
-241.0188605
-253.7817065
-233.7545435
-224.9032527
-248.1937704
-259.9954915
-238.8954447
-221.3493253
-237.2190639
-253.4464304
-234.7156685
-195.2648396
-142.2912052
-88.2893906
-56.08052684
-6.012619258
33.37115447
-21.88235782
-32.4323812
36.16512253
-41.30602375
-169.158002
-209.8158252
-153.8023536
-123.6498503
-118.7548183
-135.3621644
-101.4992716
-80.77920446
-118.5983561
-156.8645426
-153.6011879
-144.4146209
-165.0452811
-185.0947958
-174.0083306
-156.6857286
-167.1686968
-186.6147145
-175.9752841
-150.8519233
-154.4058507
-171.8402114
-165.2017433
-138.6478709
-134.5798534
-151.4107169
-150.002557
-119.5371293
-103.734446
-114.4185799
-113.971545
-83.68493124
-65.84823917
-76.62177999
-79.97454166
-48.23506453
-18.86487232
-25.23511949
-30.4207242
-3.933907024
25.52569217
20.98828804
5.699694836
21.72589561
50.89492212
47.09512557
22.68702062
24.67632588
43.96588134
36.47804695
4.850328547
-6.727875081
4.783273313
-5.096197736
-46.9610151
-73.38077705
-69.58098049
-75.68300673
-110.909356
-140.9724523
-136.189179
-130.0871527
-160.0161386
-191.0850633
-186.2347348
-175.5953044
-192.3591128
-216.7672177
-206.1724909
-185.8324034
-195.6001157
-219.5164823
-215.8284445
-193.7002174
-188.9616476
-211.0898746
-213.8614909
-189.4980895
-181.7643859
-200.8527757
-208.7429415
-185.8771069
-174.6565312
-192.9849616
-205.8372147
-190.8391942
-174.1647928
-190.2356971
-208.4523688
-188.2016883
-166.364034
-176.6905399
-197.0529791
-189.5651447
-168.3980427
-175.3270835
-201.3445141
-200.8080722
-180.0209498
-180.0433016
-204.9878484
-212.2521653
-191.3532843
-187.5981912
-213.1909386
-227.2278341
-209.9499357
-199.6234297
-218.1977294
-232.5251976
-212.2298136
-197.4776623
-216.8789764
-237.3308226
-224.4785696
-204.2055373
-213.772084
-238.6048721
-245.7350785
-234.6933168
-246.0032995
-270.9254945
-253.1782094
-206.1501391
-188.4252058
-195.0413221
-197.4329588
-175.4164905
-175.1035661
-194.8401564
-205.8819182
-198.9528774
-201.0762931
-219.6729445
-226.9372615
-224.0538864
-220.2764416
-246.8079623
-266.3210352
-248.5290466
-229.7312295
-240.3483081
-262.7224043
-255.2569217
-232.0781627
-238.2919476
-262.141259
-262.2083142
-240.1918459
-242.807
-267.1480497
-270.7019771
-249.0654885
-238.0684302
-225.8867295
-145.1298767
-47.49745697
-4.403293658
35.24870101
34.89107309
23.13405551
70.3409398
58.62862571
-94.63728602
-182.7031592
-185.7206447
-129.3048417
-118.6654113
-97.18538489
-110.5964316
-129.2601382
-166.7440136
-176.4446707
-162.9889206
-167.8168974
-196.8965169
-205.0102001
-183.0160836
-176.0870428
-199.4893193
-206.5524705
-180.9597231
-164.26297
-180.8703161
-190.1462901
-166.6769584
-146.247464
-156.5516182
-167.414566
-146.8733128
-117.4360654
-119.6712398
-135.6527371
-121.4146759
-86.03186441
-72.37494855
-84.33313183
-73.69370147
-38.17677953
-24.63162239
-38.89203535
-33.59467192
-0.312924422
14.08159901
1.0058285
-0.424683145
23.11170377
38.04266906
24.07282878
9.141863482
21.30121247
36.76861963
18.99898279
-8.001924515
-5.051494247
2.816319801
-20.42949443
-52.70541343
-62.98721588
-59.38858502
-81.6509225
-123.2251672
-138.4914086
-129.4166004
-142.1123912
-178.9480661
-195.6448192
-181.8537929
-181.2502958
-206.8206914
-222.0422294
-206.4854153
-200.1375199
-224.2550521
-238.2919476
-221.1034562
-200.472796
-216.0743136
-236.4144011
-220.8128835
-196.4271303
-203.0432466
-224.0091829
-217.6612875
-194.8178047
-193.5884587
-213.2579938
-213.0344764
-188.5369645
-186.1676796
-210.9781159
-213.772084
-191.7109122
-190.3921593
-215.5825753
-226.9149097
-207.6030025
-191.1968221
-215.8284445
-233.9557092
-218.84593
-206.7089327
-226.1102469
-247.1208867
-236.3920494
-216.476645
-228.814808
-250.1383722
-246.0032995
-224.4562178
-232.3240319
-258.7661456
-259.2578839
-236.2132354
-234.1568749
-258.2967589
-265.4269654
-239.6777558
-233.0392877
-254.8545903
-266.4774974
-248.3055292
-235.5426831
-249.0431367
-272.8924481
-280.7826138
-270.009073
-284.0683203
-296.6747042
-267.5727329
-218.3094881
-198.6623047
-212.721552
-214.8002642
-195.9130402
-193.7449209
-207.6253542
-212.4756828
-202.4173978
-207.0665606
-227.1831306
-237.3531744
-230.7594098
-235.0732964
-259.7272706
-268.0644713
-248.1043635
-241.2870814
-261.8059828
-277.27339
-268.3550439
-251.0771455
-269.0255963
-289.5221459
-281.8778493
-260.7778026
-270.1431835
-292.8302041
-290.1479948
-266.5669044
-250.8312763
-203.6467437
-111.7363705
-49.1738378
-3.129244224
20.31773571
-16.80851183
-4.71621808
37.19330277
-76.68883523
-217.9965637
-257.9614828
-195.4436535
-176.4446707
-148.5049902
-152.9753391
-144.5710831
-162.2066095
-197.3435518
-194.2143076
-180.0880051
-194.4154733
-215.0461334
-208.9441072
-182.3902348
-178.0092928
-196.7847582
-196.1365576
-171.4155282
-153.6235396
-161.2678362
-143.4534959
-101.4992716
-96.58188779
-136.6585656
-170.0520718
-157.6021502
-142.0229843
-153.1988565
-158.5185717
-127.7178678
-99.53231806
-103.7791495
-111.1552252
-84.55664927
-50.42553549
-48.34682326
-62.31666354
-47.34099476
-12.53932864
-3.330409924
-15.62386937
-9.052456504
24.51986367
34.55579693
7.465482648
-7.510186137
11.39938967
20.25068048
-1.251697689
-17.56847114
-7.219613459
-0.759959311
-33.43820971
-69.64803572
-80.44392829
-82.0532539
-113.6139171
-154.115278
-158.5856269
-148.3261762
-168.286284
-212.2968688
-220.8352352
-203.8702612
-209.0111624
-236.4591046
-245.2209884
-225.2161771
-213.1909386
-227.0490202
-230.1335609
-215.6719822
-212.1404066
-234.8944825
-243.7457733
-216.1860724
-198.6623047
-218.1083224
-233.888654
-221.7516567
-203.2667641
-216.3201828
-242.1587994
-234.7827238
-210.8887089
-214.5320433
-235.6767935
-236.950843
-213.772084
-212.7662555
-238.6719273
-241.8011715
-222.69043
-219.896462
-246.7185553
-258.2520554
-238.7389825
-228.3454214
-253.5358374
-262.7000526
-237.6884505
-225.5291016
-243.2093314
-261.6718723
-248.6408053
-232.4804941
-256.3298054
-285.3870732
-280.2685237
-269.2491137
-263.4376602
-270.6349219
-258.6767386
-235.1850552
-237.3978779
-269.6290934
-287.5328407
-267.908009
-263.2141427
-282.1460703
-286.1246808
-276.9604655
-273.2724277
-280.0226545
-259.3249392
-210.4640258
-185.4077203
-189.6322
-190.0568831
-152.9753391
-128.0978475
-149.2873012
-176.3999672
-164.4864874
-147.6556239
-172.309598
-206.8430432
-213.0344764
-193.9684384
-206.3736566
-240.9294535
-255.6816048
-241.0188605
-242.0693925
-272.288951
-289.6786081
-273.3394829
-266.0304625
-294.2160123
-310.9798206
-301.0332943
-299.3792652
-322.580376
-342.0487454
-326.60369
-307.4258932
-320.3452015
-333.4433238
-287.0187506
-183.6419324
-133.909301
-135.3621644
-72.5537625
-20.07186652
-20.27303222
18.48489266
44.77054414
-43.72001215
-122.018173
-171.1920108
-151.1648478
-121.3029172
-104.8520332
-136.3009377
-137.3961732
-119.9394607
-120.0512195
-157.7139089
-188.0228744
-186.7041214
-173.2036678
-189.6769034
-210.5981363
-199.5787262
-177.20463
-184.9159819
-205.3454763
-200.4504443
-173.538944
-173.0248538
-193.2531826
-196.1589093
-162.3630717
-151.3883652
-168.5545049
-174.4330137
-145.0404698
-127.3825917
-137.8208563
-142.9617575
-108.3612571
-74.47601253
-71.77145145
-78.3875678
-48.25741628
-12.9193083
-7.957221026
-13.85808156
9.253622204
41.9318726
43.58590169
25.97272706
36.03101206
63.41189902
64.82005892
35.74043938
24.63162239
41.82011388
42.46831447
12.09229375
-16.29442171
-10.28180245
-17.88139556
-59.74621293
-93.96673369
-92.73738775
-94.726693
-125.7062108
-160.1055455
-160.5972839
-150.8072198
-169.8509061
-197.0976826
-196.2930198
-179.9762464
-192.8061477
-221.3046219
-222.7127818
-200.3610373
-202.0821216
-226.1102469
-232.9722325
-212.2745171
-206.9324502
-234.3356889
-250.0266135
-228.7924562
-213.1462351
-230.6252993
-244.3939739
-227.2725376
-208.0276856
-223.2939271
-239.7895145
-224.61268
-202.8644327
-207.6253542
-228.2783661
-219.4717788
-196.6059442
-210.709895
-241.4211919
-224.2550521
-180.6020952
-176.7799469
-213.3921043
-234.1345232
-224.1879969
-236.0344214
-268.5338579
-283.5989336
-261.3365962
-245.779782
-264.8681718
-278.4133289
-261.2024857
-237.0626017
-256.106288
-274.5017737
-257.3803374
-236.950843
-246.8973693
-263.8623433
-258.810849
-247.1208867
-238.3590029
-216.4542933
-181.3397028
-55.96876812
78.47697478
42.20009353
-95.03961742
-183.0384353
-210.5087293
-249.1772472
-260.0178432
-233.6651365
-226.8702062
-243.4775524
-249.9595582
-225.3055841
-212.4086276
-229.3959533
-243.5893111
-221.8857672
-190.7497872
-197.4329588
-226.1773021
-228.5018836
-216.7001625
-221.9975259
-235.5873866
-227.4066481
-204.6972757
-220.5670143
-271.4395847
-296.6970559
-283.6212854
-287.0187506
-308.5211287
-276.6922446
-185.251258
-156.5292664
-210.3969706
-223.4503893
-193.3202378
-232.0781627
-240.013032
-227.8983865
-310.8680619
-315.1148933
-301.8379571
-303.15671
-289.253925
-235.4085726
-202.7973774
-159.3455862
-135.920958
-120.3194404
-139.4972371
-178.6127899
-192.9626099
-176.9364091
-176.0870428
-206.2618978
-232.1899214
-226.0655434
-219.6058893
-249.0431367
-269.2044102
-258.4755729
-244.2151599
-258.989663
-269.2938172
-248.752564
-222.5563195
-224.0315347
-227.0266684
-203.3561711
-164.6429497
-157.8703711
-168.8227259
-153.4223739
-118.3748386
-109.2776786
-130.5565394
-130.936519
-106.707228
-91.06100691
-106.6401728
-107.6907048
-74.38660555
-44.32350925
-50.49259072
-59.09801234
-39.27201501
-19.5577764
-38.28853825
-60.77439317
-49.08443082
-34.66755565
-60.34971003
-114.4856351
-153.9141123
-174.8800486
-214.3532293
-255.5698461
-270.7690323
-271.4395847
-283.2860092
-308.2976113
-312.9244224
-293.9254396
-286.3258465
-301.2568118
-313.6173265
-297.8593466
-283.129547
-292.3608175
-301.9944193
-283.1742505
-264.2870264
-274.2559045
-285.5211837
-270.2102387
-244.1257529
-241.1082674
-256.1286397
-242.1140959
-209.6370112
-206.2842496
-226.7807992
-224.4562178
-193.7449209
-182.5914005
-201.9480112
-209.2346798
-189.7216069
-186.3241418
-208.698238
-224.3891626
-210.8887089
-204.9878484
-229.6194708
-247.3891076
-236.4367528
-223.3162789
-241.0412122
-262.4988869
-252.7535263
-231.8546452
-236.9284912
-260.0625467
-253.2676164
-229.7088778
-231.0276307
-247.9031978
-246.8973693
-236.2132354
-238.0237267
-258.4979246
-255.2792734
-218.84593
-201.0986449
-199.9140024
-184.8712784
-158.0938885
-148.9520251
-170.1861823
-195.2201361
-200.1822233
-196.3824268
-217.9965637
-245.7574303
-241.6447093
-235.6097383
-260.0178432
-293.098425
-294.327771
-273.8982766
-280.3132272
-311.471559
-316.1877771
-298.4851955
-300.8991839
-324.68144
-332.2363296
-313.7961404
-307.358838
-331.2975563
-345.2003414
-329.5541202
-313.2820503
-317.0371434
-290.304457
-202.9761914
-159.6808624
-172.4213567
-152.6400629
-142.8499988
-185.9218104
-180.7809092
-203.8255577
-308.0517421
-299.0886926
-278.7039016
-281.4531662
-257.5815031
-209.6817147
-172.399005
-146.4039262
-146.9850715
-146.8286093
-159.7479176
-192.4038163
-209.5029008
-194.3037145
-181.1832406
-202.57386
-220.1199794
-203.2444123
-187.2182116
-200.3163338
-217.6612875
-205.5019385
-181.8090894
-187.531136
-205.2560693
-195.8683367
-168.5545049
-165.8275921
-180.356226
-172.7119294
-143.4087924
-132.2552719
-147.7226791
-147.7003274
-115.5808706
-95.64311452
-103.0191902
-101.1192919
-71.32441656
-45.79872439
-51.94545411
-61.71316644
-40.322547
-13.61221237
-24.72102937
-40.68017491
-28.14084627
-5.163252969
-13.20988097
-37.72974464
-36.61215742
-21.32356421
-35.29340449
-73.38077705
-90.56926853
-82.99202716
-95.19607964
-132.4340859
-152.014214
-140.5701209
-141.9335773
-172.9801503
-194.7731012
-186.2123831
-180.8256126
-205.7478077
-230.0218022
-224.8138457
-214.6214503
-234.3803924
-260.4425264
-255.5474944
-237.2190639
-245.4445059
-268.3997474
-265.0693375
-241.4882471
-242.2482064
-265.4493172
-267.2821602
-239.7895145
-234.2462819
-258.0061862
-265.7175381
-243.768125
-234.7156685
-253.3123199
-263.6611776
-244.4163256
-231.4299621
-249.9148548
-268.4891544
-255.1004595
-234.4474476
-248.2831774
-273.9206283
-267.908009
-249.6913373
-259.6825671
-281.0955383
-275.172326
-249.9148548
-248.5290466
-269.5173346
-270.9478463
-263.1470875
-269.919666
-295.1547855
-293.4337012
-259.5484566
-238.2919476
-230.1782644
-219.2259096
-193.6331622
-181.6079237
-195.4436535
-209.1005694
-211.4698543
-208.5641275
-232.0558109
-258.6096833
-252.8205815
-243.946939
-264.2646747
-297.6358292
-296.8088146
-275.2393812
-277.7874801
-303.4696345
-307.9176316
-287.3987302
-284.1577273
-308.8340531
-321.6639545
-304.1178351
-296.5629454
-318.5794137
-332.0128121
-314.9807829
-300.9438873
-311.2703933
-295.1771373
-194.706046
-104.6061641
-90.21164062
-55.02999485
-15.06507576
-6.705523337
34.60050042
54.35944252
-59.76856467
-145.3086907
-189.2298686
-168.2415805
-150.0472605
-106.796635
-129.8636353
-163.7935834
-188.1346331
-182.7925662
-184.6030575
-211.6039648
-227.6078138
-210.6875432
-194.5942872
-210.2181566
-224.3891626
-207.1336159
-187.1958598
-196.7400547
-214.5767468
-200.9421827
-178.3222173
-180.6691504
-198.5058425
-194.1919558
-168.1521735
-162.161906
-177.6516649
-173.6954062
-144.2134552
-128.3213649
-141.3300802
-141.8888738
-112.1163502
-91.32922784
-101.2534024
-105.1426059
-76.68883523
-49.33030001
-55.58878846
-67.07758511
-44.68113717
-22.48585492
-32.32062248
-51.81134365
-41.64129992
-20.09421827
-28.38671546
-52.75011691
-54.0018146
-40.21078828
-53.06304134
-91.46333831
-111.4457979
-104.8520332
-113.5915653
-153.1765048
-177.4952027
-167.9733596
-165.6040747
-194.4825285
-216.834273
-206.507767
-197.3212001
-217.5495288
-237.4649331
-228.5465871
-215.0461334
-226.4455231
-245.3327471
-235.4979796
-212.2074619
-221.3493253
-246.8079623
-244.2822152
-221.9528224
-222.9362992
-245.3998024
-249.0878402
-227.0043167
-223.5174446
-246.8079623
-255.3910321
-234.2239301
-225.0150114
-246.7856105
-261.873038
-244.6621948
-233.3075086
-251.5912356
-271.8419161
-260.2413607
-241.7788198
-255.055756
-276.7592998
-269.5396864
-250.2054274
-256.4415641
-281.1849452
-280.3802824
-254.9439973
-251.1442007
-269.7408521
-281.2296487
-281.0508348
-286.5270122
-309.4151985
-303.7825589
-274.8817533
-240.6612326
-231.2287964
-239.1860174
-220.4999591
-201.5680315
-205.9042699
-224.6797353
-225.842026
-214.8673194
-232.5922528
-256.7544886
-251.7700495
-239.8565697
-255.3910321
-285.1188523
-284.0683203
-263.5494189
-266.2986834
-292.7407971
-300.1392245
-280.8049656
-279.1509365
-303.8496141
-318.7805794
-302.7767304
-292.0031896
-308.7222944
-324.0108876
-308.9011084
-292.9419628
-296.6300007
-252.2394362
-141.5535976
-71.70439621
-37.08154405
8.717180338
6.012619258
22.99994504
72.21848634
0.424683145
-141.2853767
-206.9548019
-196.9412204
-194.527232
-156.5516182
-142.5594261
-153.9588158
-186.5476592
-213.59327
-206.507767
-206.5301188
-233.0616394
-250.2054274
-233.7768953
-212.3639241
-225.9090812
-242.0917442
-227.9877934
-196.7847582
-202.5515083
-216.5437003
-201.1433484
-172.4213567
-171.7731561
-193.1861273
-189.1851651
-161.7372229
-153.2212082
-166.9228276
-165.4252607
-134.0657632
-116.6090508
-127.1367225
-127.0249637
-99.28644887
-76.06298638
-83.61787601
-85.29425684
-57.80161116
-28.58788116
-35.38281147
-49.44205874
-28.63258465
-5.744398325
-11.84642456
-30.75600037
-23.24581423
-4.738569825
-12.15934898
-39.76375339
-48.23506453
-38.40029697
-51.20784655
-93.96673369
-112.5186816
-105.7013995
-117.7713415
-157.8256676
-185.608886
-179.9091911
-179.9315429
-210.7769502
-232.9722325
-226.892558
-215.8060927
-233.1957499
-257.0227095
-249.020785
-229.0830289
-235.6767935
-255.2792734
-249.1995989
-226.8255027
-228.6806975
-245.2656919
-241.7117645
-220.7905317
-214.6885055
-235.3191656
-243.3434419
-223.9644794
-213.5262148
-233.5757296
-245.6233198
-226.0431917
-213.682677
-235.6544418
-252.3064914
-241.935282
-227.1607789
-241.7117645
-262.2530177
-252.5747123
-233.5533778
-244.9527675
-266.9692358
-265.4940206
-245.8915408
-248.5290466
-273.6524074
-272.7136341
-252.0159187
-252.5300089
-278.055701
-284.1130238
-259.6155118
-248.3055292
-283.7330441
-312.9914776
-300.6533147
-285.0741488
-289.3656837
-291.8020239
-247.1879419
-210.2852118
-220.1199794
-236.0344214
-223.6292033
-198.3493803
-217.4824736
-252.1500292
-254.8992938
-232.7263633
-234.3803924
-267.7291951
-278.4356807
-262.3424247
-259.9731398
-278.4580324
-285.8341081
-264.4881921
-257.6262066
-282.9283813
-299.9604106
-280.6708551
-272.2442475
-294.9536198
-314.9137276
-302.3520472
-286.9293436
-302.2626403
-324.8602539
-311.2480415
-260.2413607
-183.3737115
-125.4826934
-86.54595453
-4.649162847
29.23608175
-31.06892479
-14.9309653
29.34784047
-88.42350107
-231.6534795
-290.8185471
-230.1559127
-195.8906884
-175.4388422
-205.7701595
-185.7206447
-180.1997638
-207.7147612
-233.4639708
-225.3502876
-212.7439037
-227.9877934
-248.7749158
-236.5038081
-209.8158252
-216.2307759
-235.6767935
-227.2501859
-198.3493803
-193.4767
-209.1899764
-201.9703629
-170.9684933
-159.1444205
-175.6176562
-175.3270835
-143.5205511
-125.3932864
-135.1162952
-133.4846179
-104.9414402
-81.06977714
-88.02116966
-92.44681507
-66.94347464
-43.27297727
-46.51398021
-59.25447455
-39.20495977
-6.437302403
-6.012619258
-25.43628519
-18.66370662
7.018447759
5.11854948
-19.80364559
-22.39644794
-2.637505846
-5.923212281
-40.34489874
-61.04261411
-56.48285824
-65.35650079
-102.5721553
-132.1435132
-131.6964783
-135.3174609
-168.8227259
-197.8352902
-196.1142059
-190.7274354
-215.2472991
-244.0139942
-240.5494738
-224.0315347
-236.9061395
-262.0742037
-257.3579857
-235.2968139
-235.1179999
-254.4522589
-253.3793751
-226.6690405
-218.4212468
-239.8118663
-246.8079623
-221.3493253
-206.5748223
-223.0257062
-232.3016801
-211.6263165
-195.1530808
-213.3697526
-231.1170377
-217.3260113
-201.0092379
-216.0966654
-239.1413139
-231.0052789
-211.6263165
-222.5786713
-249.4007646
-246.048003
-224.1656451
-228.3677731
-256.9556543
-259.9731398
-234.760372
-228.8371597
-257.7826688
-269.7185003
-249.8254478
-241.5329506
-262.3200729
-277.1169278
-260.8001543
-247.7467355
-266.0081108
-277.4298522
-263.1470875
-243.9245872
-257.4473926
-297.1887943
-300.6309629
-281.3190557
-282.4366429
-300.6980182
-284.6047621
-230.3123749
-212.1404066
-241.8905785
-254.4746106
-231.966404
-214.9567264
-224.2550521
-236.772029
-223.919776
-216.744866
-241.756468
-262.6553491
-250.9206833
-243.9916425
-259.2802357
-273.6524074
-258.3638142
-238.1354854
-253.133506
-280.0226545
-273.1159655
-249.8477995
-259.7719741
-285.2753145
-286.4376052
-265.7175381
-267.1033462
-290.9526576
-291.4667477
-265.4046137
-217.9965637
-153.6011879
-116.1396642
-74.23014334
-6.057322747
-22.1729305
-63.27778855
-4.51505238
9.968878027
-116.9219752
-193.5437552
-197.4329588
-171.2367143
-168.375691
-184.2677813
-172.2872463
-132.9258243
-140.1677895
-183.0160836
-196.2036128
-180.3115225
-185.2959615
-212.0957031
-215.7166857
-192.0685401
-183.4854702
-202.0374181
-205.725456
-178.6127899
-162.8995136
-178.8810109
-191.3085808
-166.9898828
-148.169714
-158.5632752
-167.4369177
-143.4534959
-115.0444287
-113.9044897
-123.3592776
-102.3039344
-70.69856771
-65.84823917
-77.96288466
-62.98721588
-28.92315733
-18.90957581
-29.54900617
-24.11753227
7.264316948
21.30121247
9.164215227
8.024276259
31.51595968
40.83663712
22.70937237
9.275973949
24.9892503
37.37211673
11.57820363
-19.62483163
-19.51307291
-15.10977925
-44.36821274
-85.62953301
-96.06779767
-93.65380927
-120.6994201
-158.8985513
-173.2036678
-160.6643391
-171.169659
-202.484453
-213.682677
-197.1200344
-198.550546
-230.1559127
-242.985814
-220.2317381
-208.2735548
-227.0713719
-240.6388808
-220.589366
-199.3999123
-212.0957031
-227.8313312
-213.4144561
-187.8887639
-200.8080722
-219.5611858
-207.2900781
-181.4514615
-188.3357988
-209.7934735
-208.0053339
-182.3902348
-186.3688453
-218.667116
-225.4843981
-201.4115693
-194.348418
-217.0354387
-229.2841946
-211.1122264
-201.4562728
-227.4066481
-245.4892094
-231.0723342
-219.2929649
-237.4649331
-255.1228112
-245.1315814
-228.6136423
-239.4095349
-266.4998491
-260.3084159
-235.3862209
-238.4707616
-261.7836311
-257.3132822
-233.8439505
-249.6913373
-283.3307127
-285.4764802
-257.6038548
-239.4765901
-244.5057326
-221.3046219
-186.8158802
-174.3883102
-193.1190721
-206.0383804
-189.9451244
-187.5087842
-213.0791799
-237.3978779
-225.2608806
-209.9499357
-231.4299621
-262.2753694
-261.6495206
-237.5543401
-237.5543401
-258.4085176
-259.861381
-240.6388808
-241.8235233
-269.0255963
-278.9050673
-259.9060845
-256.2180467
-278.145108
-285.7223494
-265.5834276
-254.3628519
-277.5192592
-289.3209802
-231.3852586
-139.1172575
-123.4486846
-137.6643941
-86.12127139
-69.15629734
-141.8218186
-145.0851733
-138.1561325
-224.0315347
-247.4338111
-260.1743055
-253.4464304
-223.5844998
-202.4621013
-189.6545517
-146.2698157
-120.8558823
-136.5244551
-181.5632202
-203.5796885
-187.620543
-178.0092928
-193.5884587
-209.2570316
-191.1074151
-176.1988015
-194.0354936
-206.1724909
-185.0277406
-159.2114758
-165.9393508
-184.3124848
-171.6390457
-139.9889755
-134.2669289
-148.9967285
-139.8995685
-108.2494984
-99.91229772
-117.5925276
-110.0599897
-75.21362009
-56.52756173
-66.60819848
-64.77535543
-35.00283182
-11.28763095
-17.7472851
-25.90567182
1.564622112
25.30217472
17.23319498
1.318752923
15.89209031
36.76861963
26.68798288
1.564622112
5.565584369
17.47906416
2.726912824
-32.96882307
-52.41484075
-47.89978837
-64.46243101
-106.0366757
-128.2543097
-121.8617108
-129.2824899
-163.8606386
-187.1735081
-175.9305806
-169.8285544
-198.5952495
-225.0820667
-213.682677
-192.7390924
-196.628296
-202.2609356
-178.6127899
-157.1551153
-174.9247521
-208.2064996
-209.8605287
-189.6992552
-193.0967203
-219.6729445
-222.9810027
-199.3552088
-196.5612407
-218.5553573
-224.5679765
-206.3066013
-199.422264
-217.2142526
-227.2501859
-210.0169909
-198.7070082
-217.4377701
-231.1617412
-215.1802439
-199.9363542
-218.0636189
-236.2802906
-225.9984882
-209.0111624
-222.1986916
-246.6738518
-244.1481047
-225.1267702
-228.0772004
-252.0159187
-255.6369013
-234.7380203
-232.5475493
-254.8545903
-264.2870264
-240.4600669
-227.3395929
-259.0120147
-285.230611
-269.6514451
-253.3793751
-265.4269654
-271.2831225
-228.0548487
-189.7886622
-199.9587059
-219.896462
-208.8323484
-185.340665
-205.7925112
-242.0917442
-242.3376134
-223.2045201
-227.0713719
-260.9342648
-269.5173346
-249.9148548
-248.9090263
-273.3171312
-280.1344133
-258.2520554
-251.993567
-278.234515
-290.8632506
-270.277294
-255.9721775
-270.7019771
-288.2928
-273.8312213
-257.8944275
-272.9595033
-293.4337012
-285.141204
-236.1014767
-168.8450776
-130.8694638
-112.1163502
-51.11843957
-21.10004677
-87.8870592
-79.03576839
-21.01063979
-127.6955161
-218.6894678
-242.2482064
-192.8508512
-179.2833423
-178.9033626
-186.2794383
-142.4029639
-125.9073765
-165.7605369
-203.5573368
-199.8245954
-187.7099499
-205.3231246
-227.0713719
-218.4212468
-196.9635721
-201.1657001
-222.2210434
-214.8002642
-188.7828337
-185.9218104
-203.9820199
-198.3493803
-167.9957113
-158.9432548
-179.1715836
-182.9713801
-153.2882635
-133.0599347
-147.9909
-151.32131
-119.738295
-93.22912612
-101.812196
-108.4953676
-83.88609694
-53.04068959
-54.96293962
-65.1106316
-44.45761972
-14.28276471
-14.66274436
-31.27009049
-22.10587527
3.755093068
2.324581423
-23.04464853
-27.06796254
-6.236136703
-6.683171592
-39.98727083
-58.36040477
-52.05721284
-58.74038443
-94.726693
-122.3087457
-122.3087457
-127.6508126
-159.9043798
-189.7439587
-185.9888656
-176.2211533
-198.8634704
-228.725401
-225.7079155
-209.2123281
-221.4610841
-247.4114594
-246.3832791
-224.0315347
-225.931433
-247.7690873
-249.4678199
-224.7244388
-216.476645
-236.7496773
-243.7010698
-222.8021887
-210.6651915
-228.9489185
-240.1918459
-220.9022905
-204.4290548
-218.2871364
-234.8274272
-222.5563195
-200.8974792
-212.9003659
-232.659308
-224.0091829
-206.4854153
-213.6156218
-236.2132354
-235.5650348
-215.4931683
-218.9576887
-245.6680233
-248.6855088
-226.4231713
-223.6292033
-247.0761832
-258.2297037
-238.7389825
-229.8206365
-251.4794769
-266.2986834
-249.4007646
-234.0674679
-248.841971
-265.8069451
-250.8759798
-238.3142994
-268.3997474
-298.7087129
-290.0138843
-262.834163
-259.9060845
-259.1461252
-230.8488167
-199.3552088
-208.8994037
-240.1247907
-233.1510464
-197.7235315
-199.8916507
-236.772029
-255.5921978
-240.1918459
-235.900311
-266.1869247
-289.8574221
-276.9604655
-259.4590496
-275.4405469
-294.9089163
-283.7777476
-265.9634073
-278.7933086
-299.2451548
-292.1820035
-271.0149015
-281.028483
-306.8000444
-304.0284281
-282.3919394
-282.7719191
-304.9448496
-300.0274658
-229.7312295
-127.5614056
-83.6625795
-58.58392222
25.3915817
38.24383476
1.050531989
32.61119516
31.44890445
-100.0017047
-208.9217554
-230.3570784
-167.4592695
-111.7363705
-120.4311991
-165.4923159
-165.313502
-159.1444205
-179.4398045
-214.9567264
-221.2599184
-202.0150664
-202.8197292
-228.1442557
-231.3405551
-208.0276856
-199.9140024
-217.705991
-223.651555
-199.3105053
-180.8479644
-198.6846565
-208.0947409
-187.3746738
-168.286284
-177.7410719
-187.9558191
-166.2969787
-136.8597313
-137.8432081
-149.3320047
-131.2941469
-100.672257
-94.19025113
-104.784978
-89.60814352
-55.34291927
-45.23993078
-54.82882915
-45.12817206
-14.95331704
-1.85519479
-17.79198859
-24.47516018
-3.218651202
7.800758815
-14.01454377
-30.71129688
-17.61317463
-12.36051468
-41.17191329
-71.7490997
-69.71509096
-71.27971307
-97.85593723
-137.8208563
-147.6779756
-142.3582604
-160.4631734
-195.4660053
-207.6700577
-197.7458832
-206.2171943
-236.9731947
-246.6067966
-227.6078138
-224.6573835
-252.2617879
-264.2646747
-244.1257529
-233.6651365
-251.1442007
-263.3929567
-244.9527675
-227.0043167
-242.6952413
-260.2413607
-245.8468373
-222.6457265
-234.3803924
-253.8040583
-243.0975727
-221.3493253
-227.585462
-253.2452647
-250.1383722
-225.5514533
-224.702087
-248.3949361
-253.82641
-233.5757296
-226.624337
-248.5066949
-260.4872299
-242.6058343
-230.2453196
-252.6417676
-268.8914858
-253.8711135
-239.9012732
-254.6310728
-276.4240237
-265.5387241
-246.048003
-258.9226078
-283.04014
-275.2840847
-255.9051223
-263.1694392
-287.1752128
-283.4424714
-258.3638142
-257.0003577
-280.156765
-284.001265
-258.9673113
-245.6233198
-273.7641661
-306.9788583
-299.4463205
-284.8059278
-297.9711053
-302.8884891
-267.8856573
-221.7516567
-229.5077121
-255.9721775
-246.4503344
-227.1607789
-227.2054824
-244.7739535
-248.0373082
-241.1306192
-254.2287414
-279.8214888
-288.6727796
-275.9099336
-281.5202214
-306.0177333
-308.4764252
-287.6222477
-282.079015
-305.436588
-318.9370416
-299.31221
-290.21505
-310.510434
-326.2013586
-310.510434
-294.9089163
-310.2645648
-328.5706435
-316.366591
-290.7738436
-254.3181484
-177.7634237
-100.672257
-38.62381442
29.8172271
21.59178514
-1.184642456
58.69568094
48.07860232
-132.5011411
-246.2938722
-242.4940756
-182.3455313
-166.2075718
-163.391252
-171.3037695
-160.8431531
-192.7614442
-223.4950928
-218.0636189
-207.2006711
-224.7691422
-243.8798838
-232.0334592
-212.1404066
-221.2822701
-236.3696976
-228.3454214
-203.8032059
-203.4679298
-225.0373632
-219.538834
-193.8119762
-186.6594179
-202.8644327
-199.2210983
-167.0122346
-153.6011879
-167.0345863
-166.8110689
-137.932615
-114.4185799
-121.5711381
-127.3602399
-99.82289074
-71.19030609
-73.24666658
-81.20388761
-58.20394256
-25.92802357
-25.27982298
-38.78027663
-27.58205266
-1.363456412
-0.245869189
-20.40714269
-21.43532293
-1.765787812
-5.543232625
-37.1038958
-51.3866605
-41.41778248
-52.34778551
-93.13971915
-120.2970887
-118.5313008
-125.0133067
-162.0054438
-194.706046
-192.9849616
-189.4980895
-213.9732497
-242.6728896
-240.9965087
-225.9090812
-237.911968
-264.8905235
-266.1198695
-245.8244855
-250.7418693
-272.5795236
-272.981855
-250.1830757
-246.5620931
-269.8749626
-274.4570702
-252.9323403
-241.1306192
-260.6213403
-269.9867213
-251.6582908
-237.1743604
-249.7807443
-266.7904218
-252.9993955
-232.4357906
-249.8701513
-271.2607707
-260.4872299
-236.682622
-242.4046686
-266.0975177
-264.2646747
-242.1587994
-246.2715204
-269.0702998
-275.6640644
-254.876942
-253.6252443
-277.4969074
-285.4094249
-264.9575788
-257.2685787
-278.3015702
-289.7009599
-269.2938172
-257.1121165
-275.7758231
-293.8360326
-281.5425732
-265.4493172
-279.285047
-297.5911257
-285.1859075
-269.3608724
-277.1392795
-299.31221
-294.9536198
-271.3948812
-272.110137
-293.7466256
-294.9759716
-272.5571719
-270.4784597
-291.9137826
-301.6591432
-297.3676082
-303.2684688
-325.3519923
-333.3986203
-299.6474862
-262.2977212
-253.3123199
-260.3978229
-245.4892094
-233.8215987
-245.8244855
-258.028538
-248.6408053
-241.3764884
-264.935227
-294.6630472
-292.1820035
-276.9604655
-288.2480965
-316.6124602
-317.1265503
-292.6737419
-289.4103872
-314.5113962
-323.9885359
-302.7543786
-294.5512884
-315.7183904
-328.5929952
-310.9351171
-299.9380588
-320.3675533
-336.9078442
-318.9593934
-303.7825589
-309.7728264
-284.5600587
-176.8917056
-87.75294873
-62.58488447
-20.34008745
-5.833805303
-1.519918623
36.56745393
-4.71621808
-154.2493885
-230.4241336
-245.2880437
-226.4008196
-198.1482146
-163.212438
-171.6166939
-191.9791331
-216.834273
-212.4309793
-208.6758862
-233.7545435
-254.966349
-242.0470407
-222.5339678
-233.3745639
-253.6028926
-242.807
-217.3483631
-216.3201828
-233.2628051
-223.9868312
-197.2764966
-196.2706681
-217.0577904
-212.1404066
-180.2444673
-166.274627
-181.585572
-180.9597231
-146.6721471
-125.7062108
-135.4515714
-137.2173592
-108.4059606
-81.13683237
-83.48376554
-84.13196613
-57.66750069
-28.11849452
-28.83375035
-39.20495977
-20.69771537
7.689000093
4.559755869
-16.16031124
-10.63943036
12.67343911
7.57724137
-22.59761364
-30.30896548
-17.09908451
-27.02325905
-65.53531474
-90.14458539
-84.55664927
-93.05031217
-130.5118359
-162.3854235
-160.6196357
-159.2114758
-188.4475575
-215.4931683
-210.6875432
-206.5524705
-226.1102469
-250.6301106
-246.6291483
-227.7419243
-240.4824186
-263.7058811
-259.3696427
-238.8954447
-240.3706599
-260.911913
-261.962445
-238.2695959
-232.7040115
-253.82641
-258.900256
-236.2355871
-225.8196742
-243.5446076
-252.2170844
-233.70984
-216.3425346
-233.8663022
-252.4853054
-242.6058343
-224.5232731
-233.1510464
-255.9721775
-247.8361425
-229.6418225
-237.4649331
-260.3084159
-255.9498258
-236.3249941
-239.5883488
-262.2977212
-266.2763317
-246.6738518
-241.845875
-266.0975177
-275.7311196
-254.7204798
-244.997471
-265.9634073
-279.285047
-263.0576805
-245.5339128
-261.873038
-280.8273173
-266.2986834
-247.791439
-260.0178432
-279.1509365
-271.5066399
-250.3171862
-258.1626485
-283.2860092
-279.6426749
-257.0897647
-257.6485583
-277.0275208
-276.6698929
-249.2890059
-241.6670611
-266.164573
-291.0420646
-282.6601604
-272.9147998
-292.0031896
-298.9098786
-255.7486601
-208.5641275
-216.566052
-234.4921511
-226.1549504
-208.8770519
-217.3260113
-241.0412122
-245.7350785
-234.9168342
-243.5446076
-273.3394829
-280.9837795
-266.5669044
-271.7748608
-292.0031896
-293.277239
-270.4114044
-262.3200729
-288.8962971
-303.8943176
-282.5036982
-272.2218957
-296.1159105
-310.5551375
-292.7184454
-278.4580324
-297.9487536
-312.1197596
-300.2062798
-274.5464771
-244.3716221
-187.5758395
-144.7946006
-112.9657165
-62.60723622
-80.04159689
-112.9880682
-38.75792489
-23.22346249
-153.7576501
-193.3202378
-165.6711299
-171.4825835
-202.8197292
-213.9061944
-170.1638305
-127.3602399
-146.3145192
-185.7206447
-190.3027523
-188.2463918
-207.468892
-228.725401
-218.6224125
-197.2317931
-211.4698543
-234.0004127
-221.908119
-198.461139
-193.297886
-212.5874415
-207.0889124
-180.6244469
-173.4942405
-189.5651447
-185.9441621
-156.0598798
-143.7664203
-157.6915571
-157.1551153
-125.6838591
-103.6673908
-109.0541612
-110.8870042
-88.84818421
-58.27099779
-58.33805303
-64.97652113
-39.27201501
-2.413988401
-4.135072724
-19.24485198
-6.459654148
18.90957581
16.83086357
-2.279877934
-1.810491301
19.24485198
20.1612735
-9.700657094
-20.58595664
-9.23127046
-22.08352352
-62.67429145
-90.0998819
-89.2952191
-97.90064071
-130.4000772
-161.9830921
-164.352377
-157.5797984
-183.239601
-221.8410637
-219.6058893
-201.523328
-219.0023922
-246.4056309
-242.717593
-228.635994
-238.3590029
-260.1743055
-258.810849
-232.659308
-235.6767935
-257.8944275
-259.2131804
-237.1967122
-228.5912905
-249.5572268
-254.1840379
-232.9945842
-215.2472991
-237.3084709
-252.865285
-233.2181016
-215.5602235
-231.2958516
-249.3337094
-236.1014767
-211.5145578
-218.667116
-243.4999041
-241.0859157
-224.880901
-223.4280376
-246.9420727
-251.3677181
-227.9207382
-225.3726393
-254.4522589
-263.3259014
-239.4989418
-235.3415174
-256.3968606
-265.6728346
-247.4114594
-235.2074069
-259.1237735
-276.1110993
-262.051852
-245.2209884
-256.4415641
-277.005169
-268.3550439
-250.0936687
-259.7943258
-280.2908755
-273.3618347
-247.8361425
-249.5125234
-278.0780528
-286.4823087
-274.5688289
-272.2218957
-297.0099803
-296.4064832
-253.4240786
-211.2239851
-219.0247439
-230.5582441
-215.2472991
-209.8605287
-219.4941306
-233.9333575
-229.4406568
-228.0772004
-250.1830757
-274.6805876
-267.0139393
-256.9556543
-273.94298
-295.0653786
-285.7223494
-266.7457183
-267.3715672
-290.4832709
-290.5503262
-270.970198
-269.6290934
-293.7913291
-299.6251344
-280.7602621
-275.7311196
-304.6766287
-309.1022741
-286.7281779
-270.0314248
-272.9147998
-221.5281393
-144.1464
-122.2193387
-121.1464549
-108.2718501
-157.9374263
-200.562203
-206.6642292
-317.0147916
-392.7201501
-352.7999345
-322.9380039
-318.2664893
-270.8137358
-223.4503893
-167.1910485
-158.1162403
-170.5214584
-174.231848
-183.6866359
-211.1122264
-224.702087
-210.7322467
-196.7400547
-212.5874415
-228.0772004
-215.2025956
-192.1132436
-204.0043716
-221.818712
-210.3522671
-184.6924644
-188.2687435
-204.3843513
-192.9849616
-163.0112723
-161.9160368
-175.4388422
-162.6983479
-134.0210598
-124.901548
-137.3738214
-129.4389521
-93.69851276
-73.49253577
-81.56151552
-82.12030913
-48.86091338
-17.63552638
-28.29730848
-36.00866032
-8.784235571
14.66274436
2.615154101
-15.26624146
0.156462211
16.20501473
12.20405247
-10.66178211
-16.45088392
-8.806587315
-32.45473295
-76.42061429
-87.46237605
-82.54499227
-102.8180245
-140.4360104
-161.8042781
-151.2766065
-163.6818246
-195.3318948
-219.1141509
-209.2123281
-204.3843513
-227.3619446
-249.5125234
-243.6563663
-229.0159737
-245.8021338
-267.9527125
-255.2792734
-239.2530726
-249.5795786
-265.9410555
-264.152916
-238.783686
-235.2074069
-263.7282328
-263.3929567
-240.013032
-239.4095349
-257.067413
-260.6436921
-238.8954447
-228.2336626
-243.3434419
-258.4979246
-239.0295552
-226.7807992
-243.4552006
-253.9828722
-240.5494738
-223.1374649
-242.3823169
-262.4318316
-247.4338111
-231.5417208
-241.1529709
-258.5649799
-263.9517503
-242.7622965
-246.6738518
-271.0819568
-271.3725294
-246.6291483
-248.3278809
-270.4114044
-278.7039016
-252.8429333
-238.873093
-270.6349219
-294.1266053
-279.0391778
-263.2811979
-272.5571719
-281.7660906
-245.4221541
-198.7070082
-195.488357
-222.7127818
-220.7011248
-201.7915489
-219.0023922
-249.3113577
-258.028538
-235.4979796
-242.9187587
-275.5076022
-287.1305093
-266.4551457
-265.0469858
-288.4269105
-298.5746024
-278.6144946
-269.3608724
-289.9021256
-302.284992
-286.2364395
-273.5853521
-288.9857041
-308.0293903
-294.9536198
-280.5814481
-291.6232099
-313.2820503
-303.0673031
-268.3997474
-223.7633137
-169.9403131
-145.8674843
-108.3836089
-72.48670727
-149.2425977
-241.845875
-240.5047703
-308.1187973
-441.357546
-446.5878542
-397.8163478
-326.8719109
-280.3579307
-258.1402967
-194.0578454
-140.4136587
-163.2794932
-198.7517117
-198.7517117
-194.0354936
-217.3483631
-238.694279
-225.6185085
-201.3445141
-211.581613
-236.682622
-233.1063429
-203.0208949
-196.3824268
-216.3201828
-215.7166857
-191.1297668
-183.6642842
-200.1822233
-200.1151681
-170.119127
-154.2493885
-165.8275921
-171.6166939
-141.3524319
-118.8889288
-123.8286643
-128.5225306
-100.6946088
-65.75883219
-65.26709381
-69.24570432
-47.81038139
-21.59178514
-17.30025021
-31.49360794
-21.88235782
7.689000093
15.10977925
-6.034971003
-13.16517748
9.119511738
11.53350014
-22.73172411
-45.46344822
-41.55189294
-49.21854129
-84.44489055
-114.2621177
-117.3690101
-119.0900945
-153.9364641
-188.9392959
-187.8217087
-180.6915022
-205.6807525
-232.6369563
-229.9100435
-219.6505928
-232.9945842
-259.6155118
-259.3919944
-243.7010698
-245.958596
-270.8137358
-269.919666
-247.791439
-247.009128
-266.946884
-275.3287882
-253.82641
-241.8235233
-259.5931601
-271.7748608
-251.5688838
-236.2355871
-251.4347734
-265.896352
-251.7476978
-229.686526
-241.3764884
-264.6223026
-254.8992938
-226.0208399
-232.3463836
-258.028538
-251.5688838
-228.1666074
-231.8322935
-255.0334042
-256.4415641
-239.5212936
-236.1908837
-262.0742037
-265.7845933
-244.997471
-235.2521104
-251.7476978
-263.9293985
-250.9877385
-247.9479012
-268.5115061
-287.6445994
-273.7641661
-246.740907
-253.6475961
-245.6903751
-217.3707148
-194.1025488
-203.0432466
-225.663212
-220.6117178
-208.608831
-221.0364009
-250.853628
-258.5649799
-239.5659971
-240.8623983
-275.5746574
-295.199489
-273.7418143
-264.8458201
-286.0352738
-300.273335
-283.0177883
-272.0430818
-294.6630472
-309.8622334
-298.0381606
-284.8953348
-298.351085
-319.607594
-312.4550357
-291.3102855
-297.0770356
-319.8534632
-306.0177333
-230.4241336
-148.4826384
-135.2057022
-117.4137136
-36.0980673
-50.380832
-136.5915104
-128.6566411
-149.6672809
-264.2646747
-320.5910707
-321.5521957
-233.9110057
-175.371787
-181.5632202
-193.7449209
-170.5661619
-158.5409234
-190.414511
-227.94309
-231.7428865
-215.2696508
-226.9596132
-251.121849
-249.9148548
-228.3901248
-225.842026
-248.3055292
-248.6855088
-217.4377701
-210.0616944
-229.8429882
-235.6544418
-210.3522671
-192.8284994
-207.2230228
-216.1413689
-189.6098482
-165.3582055
-172.1307841
-180.4903365
-157.1551153
-127.8519783
-130.7130016
-142.0229843
-121.5040829
-87.50707954
-79.54985852
-89.0940534
-77.53820152
-45.19522729
-37.19330277
-56.97459662
-58.4721635
-31.56066317
-24.87749158
-50.04555584
-65.20003858
-47.78802965
-41.48483771
-71.86085842
-98.99587619
-100.7840157
-104.5167571
-137.5302836
-172.9577986
-177.1375748
-174.410662
-194.9966186
-225.1938254
-226.8702062
-215.8954997
-230.647651
-260.5319334
-265.8292968
-249.0431367
-252.3735466
-277.6757214
-286.0799773
-266.9692358
-263.0353288
-284.001265
-291.8690791
-270.187887
-258.810849
-277.7874801
-290.2821052
-270.5678666
-254.3852036
-268.7797271
-287.6893029
-275.3734917
-253.6475961
-263.9964538
-284.0683203
-274.3676632
-251.032442
-255.6592531
-279.6650266
-279.3297505
-257.1791717
-255.8827705
-280.4473377
-286.5717157
-263.5494189
-255.0110525
-276.9828173
-288.2480965
-267.3939189
-257.7603171
-280.4249859
-294.238364
-280.0897098
-265.0469858
-278.9050673
-297.8369949
-282.8166226
-269.5396864
-297.6134774
-326.0895999
-317.1712538
-286.9740471
-283.1518988
-287.5998959
-261.5824654
-234.9838895
-236.9955465
-261.1577822
-256.8438955
-232.7934185
-239.744811
-275.0382155
-296.1382623
-277.966294
-268.0197678
-298.3734367
-324.9720126
-313.8408439
-294.6630472
-310.0633991
-328.6824022
-318.7805794
-300.1392245
-311.8068352
-335.3655738
-328.3247743
-309.6610677
-314.3996375
-341.3334896
-342.2275594
-317.9982684
-315.6289835
-341.1546756
-343.3898501
-301.7038467
-219.1365026
-140.4583622
-101.6780855
-25.77156136
35.8969016
-9.23127046
-33.14763703
8.247793704
-84.93662893
-251.8818083
-330.8952249
-241.5329506
-157.8480193
-122.0628765
-181.6749789
-206.8430432
-202.6185635
-217.3260113
-250.4736484
-258.0955932
-241.3541366
-242.3152616
-267.4609742
-272.5571719
-250.9653867
-243.6340146
-260.5095816
-265.6057794
-241.2870814
-227.0713719
-240.6835843
-251.4124216
-230.2900231
-211.9168892
-222.69043
-234.5145028
-215.0908369
-186.1453278
-184.5807057
-198.72936
-183.8207464
-151.7236414
-144.3028622
-156.1492868
-147.2756442
-116.1396642
-101.4992716
-109.7247135
-102.0580652
-69.87155317
-52.70541343
-67.21169558
-72.19613459
-50.00085235
-33.84054111
-51.20784655
-66.67525371
-54.56060822
-46.69279417
-66.45173627
-98.66060003
-106.2601931
-104.1367774
-128.0978475
-166.3863857
-180.8256126
-175.4388422
-194.9519151
-234.2015784
-245.1539332
-234.1568749
-243.6116628
-273.3394829
-282.8166226
-264.5999509
-261.5377619
-288.8739453
-303.3802275
-288.8292419
-276.9157621
-291.5114512
-308.1411491
-293.4337012
-278.145108
-291.3773407
-307.0235618
-295.288896
-272.2665992
-281.7884423
-304.0060763
-297.3452565
-273.3394829
-280.7155586
-302.7096752
-299.8263001
-277.5863144
-275.4628987
-296.7864629
-304.5201665
-280.6261516
-271.6854539
-290.1032913
-303.2908205
-287.3540267
-274.8594016
-293.2995907
-312.4550357
-298.2393263
-280.3802824
-295.9147448
-317.3724195
-307.4258932
-286.7728814
-294.4842332
-320.0993323
-318.7582277
-299.31221
-300.2509833
-323.1168178
-325.5308062
-301.8826606
-296.9652768
-322.9380039
-330.3140796
-308.0293903
-297.8146431
-322.2898033
-333.3986203
-310.4433787
-294.0148466
-308.9905154
-331.1634458
-334.739725
-329.2188441
-344.1721611
-350.6094635
-330.8281697
-292.8972593
-274.6805876
-294.1042535
-304.2295938
-296.6076489
-292.3831692
-296.6076489
-287.7563581
-274.2782562
-286.2587912
-320.3228498
-330.1129139
-314.0867131
-311.9632974
-339.8359227
-352.9563967
-337.1984169
-321.0604574
-338.6065768
-356.7561933
-344.9097687
-326.5813382
-342.2275594
-364.0875654
-356.0185857
-333.8009517
-340.2606058
-365.5404288
-360.9359695
-336.3043471
-338.2042454
-348.0390129
-285.4764802
-152.2600832
-80.60039051
-46.80455289
8.895994293
16.85321532
8.247793704
8.694828593
-98.01239944
-264.6223026
-337.1090099
-305.525995
-248.5737501
-175.8858771
-174.0753858
-222.1763399
-255.0110525
-251.9265118
-233.3298604
-253.9381688
-278.7709568
-279.3744539
-257.5144479
-257.2909304
-281.3861109
-280.156765
-256.8438955
-250.4512966
-268.0644713
-270.9478463
-246.9420727
-232.7040115
-249.020785
-258.2073519
-236.6602703
-215.8954997
-225.3726393
-233.6651365
-213.4591595
-183.3513598
-183.8430981
-195.1083774
-176.3999672
-144.928711
-142.2465017
-154.6293681
-141.1289145
-104.8520332
-93.98908543
-107.6460013
-100.4263878
-68.99983513
-56.28169254
-72.59846599
-76.06298638
-51.09608782
-42.06598306
-66.9211229
-83.0590824
-72.19613459
-65.08827985
-97.87828897
-134.2892807
-139.2066645
-142.0229843
-172.6225224
-209.1229211
-217.2142526
-211.3804473
-232.3016801
-269.0702998
-277.2063347
-261.2024857
-267.997416
-299.4239687
-306.0847886
-286.3034947
-286.6164192
-313.1926433
-322.2003963
-300.5415559
-290.6620849
-312.9691259
-327.2965941
-308.0740938
-289.7009599
-306.5541752
-325.2849371
-310.0186956
-289.9691808
-299.5804309
-317.2830125
-306.0624368
-281.9672563
-291.2432303
-314.2431753
-311.5386142
-286.6834744
-287.6222477
-311.9632974
-316.7689224
-295.5794687
-287.5775442
-308.6999427
-318.4900067
-296.0935588
-285.9682186
-309.6610677
-326.424876
-310.510434
-295.6688757
-309.2363845
-327.8553877
-316.545405
-301.1003496
-314.623155
-334.5832628
-326.9836696
-308.5658322
-316.7018672
-340.1711989
-337.1984169
-309.6610677
-314.3102305
-340.3276611
-343.1439809
-322.1556928
-316.2548323
-338.1595419
-348.2178269
-326.3131173
-313.1702916
-333.1527511
-351.3470711
-333.4880273
-315.3384108
-329.6435272
-347.0555362
-335.1644081
-317.3500678
-326.8942627
-351.5705885
-343.5016088
-321.5968992
-327.475408
-350.0059664
-345.2673966
-318.5347102
-316.4112945
-341.2664343
-365.875705
-359.4607543
-353.3587281
-373.6317603
-372.1565452
-331.0069836
-286.4823087
-294.0595501
-314.444341
-304.5648699
-285.4988319
-294.148957
-309.281088
-303.6484484
-301.4803292
-319.5405387
-339.3888878
-337.9136727
-328.0565534
-343.9039402
-364.3334346
-361.941798
-337.6901552
-337.6901552
-362.9476265
-366.8591817
-345.1332861
-342.2722628
-365.2275044
-377.0962807
-359.66192
-348.2178269
-370.5472196
-386.6404756
-370.5472196
-352.1070304
-359.3936991
-325.8884342
-209.8381769
-122.7110771
-91.59744878
-48.21271279
-43.16121854
-43.72001215
-16.36147694
-88.93759119
-250.8089245
-324.502626
-319.4734835
-276.4240237
-229.6418225
-202.1044734
-229.4406568
-260.3307677
-277.5639626
-264.6446544
-259.9060845
-285.3423697
-302.9778961
-287.5551924
-271.0819568
-282.9507331
-301.2121083
-287.0187506
-260.5542851
-267.2821602
-284.5153552
-273.7865178
-250.6524623
-250.4736484
-267.1480497
-259.1461252
-230.1112092
-220.4776073
-237.0626017
-230.7147063
-200.2939821
-182.7478627
-192.4708715
-193.3202378
-160.9549118
-138.1561325
-147.208589
-149.1531908
-119.4477224
-91.03865517
-92.33505634
-101.7898442
-81.02507365
-54.71707043
-62.31666354
-82.03090215
-73.11255611
-52.12426807
-59.65680595
-85.96480918
-93.13971915
-79.23693409
-91.03865517
-130.5565394
-152.282435
-148.6391006
-160.5078769
-200.3163338
-224.4338661
-219.0694474
-220.9022905
-255.5921978
-283.5095267
-275.6864161
-265.4493172
-288.2928
-314.9360794
-307.9176316
-292.8749076
-305.8165676
-330.6717075
-326.0448964
-304.1178351
-308.0964456
-329.9117482
-327.9224429
-302.6426199
-300.4297972
-323.3403353
-329.1964923
-304.3413525
-294.3948262
-314.7572654
-322.5133207
-300.0945211
-288.113986
-307.8729281
-326.4695795
-308.4317217
-289.7680151
-305.1460153
-326.60369
-316.2101288
-292.9866663
-302.3967507
-325.9331376
-322.1780446
-299.5804309
-303.6708002
-329.576472
-329.9564516
-306.5988787
-306.2412508
-328.3694778
-337.2878238
-317.8194544
-312.432684
-336.4608093
-346.0497077
-322.7144864
-313.483216
-334.3597453
-349.7600972
-333.5774343
-317.0594951
-330.5823005
-350.2741874
-339.724164
-319.9428701
-328.6600505
-350.3859461
-345.8261902
-324.2567568
-325.4413993
-346.7426117
-346.0050042
-322.3792103
-319.9875736
-345.8261902
-351.6376438
-330.44819
-325.553158
-346.2061699
-355.6833095
-335.0079459
-319.3170213
-336.7960855
-355.2362746
-338.0030797
-321.1051608
-338.0477831
-356.2644549
-342.0710971
-320.2781463
-327.0283731
-351.0564984
-347.0555362
-342.786353
-358.3878706
-379.5773243
-377.0292255
-348.1060681
-324.6143847
-311.6503729
-305.0119048
-285.1635558
-283.04014
-305.347181
-308.9681636
-290.4162157
-287.1975645
-315.8301492
-337.2431203
-320.3675533
-306.9118031
-330.4258383
-354.1410391
-339.4112396
-311.4492072
-315.6289835
-332.4821988
-326.5589865
-306.7106374
-316.634812
-348.3742891
-353.6716525
-336.3714023
-336.9972512
-361.673577
-369.6307981
-349.0895449
-342.3616698
-363.0146817
-363.0593852
-284.4035964
-188.7381302
-173.7624614
-160.6866909
-92.06683541
-97.11832966
-123.4039811
-90.81513772
-132.165865
-216.9236799
-273.8759248
-283.3754162
-263.8399916
-209.2570316
-222.3551538
-243.2093314
-240.7506395
-230.5135406
-241.3541366
-274.9488085
-290.0809395
-267.9750643
-261.6271688
-281.7213871
-291.6679134
-271.3054742
-254.7204798
-268.8020788
-280.2014685
-259.9060845
-239.9459767
-250.4736484
-267.215105
-251.0771455
-223.919776
-225.0373632
-242.2482064
-227.6301655
-197.7905867
-189.4980895
-203.5126333
-193.4096448
-158.6750339
-143.6323099
-151.6118826
-143.3864407
-113.8374345
-93.29618136
-98.99587619
-101.4992716
-74.02897764
-52.16897156
-65.22239032
-74.87834393
-53.3983175
-31.60536666
-46.51398021
-72.1514311
-68.06106187
-50.85021864
-69.04453862
-102.5721553
-113.4351031
-106.2601931
-127.6955161
-170.208534
-191.1968221
-188.4699092
-199.4669675
-238.1131337
-257.6262066
-247.5902733
-247.8361425
-280.0897098
-299.1780995
-286.3258465
-280.6485034
-304.4531112
-326.424876
-311.8068352
-294.3054192
-306.1518438
-322.7368382
-315.9642596
-294.0595501
-298.261678
-318.5794137
-309.4151985
-284.6271139
-285.7894046
-307.180024
-308.2752595
-284.6271139
-280.0226545
-301.9497158
-308.6999427
-287.8681168
-278.7933086
-298.7981199
-311.9185939
-293.8360326
-277.4522039
-295.4006547
-311.9856491
-300.8321286
-284.0459685
-296.3617797
-318.7358759
-312.4997392
-291.4220442
-295.7359309
-321.1722161
-320.5240155
-298.1275675
-300.1392245
-326.1790068
-328.9282714
-307.6270589
-303.6037449
-326.7601522
-337.3101756
-312.7679602
-305.347181
-326.0672481
-339.3218326
-321.529844
-304.8554426
-324.8379022
-341.6017105
-328.6376987
-311.0915793
-323.2732801
-340.4617715
-333.3986203
-312.8573671
-319.4734835
-338.9642047
-337.3772308
-314.9137276
-314.8913759
-341.4899518
-342.7640012
-319.1158556
-313.7961404
-338.6289285
-344.619196
-321.0828091
-310.8680619
-332.549254
-345.6920797
-323.5191492
-304.7213322
-326.4472278
-361.4053561
-355.2362746
-337.5113413
-343.836885
-353.89517
-321.0157539
-270.7466806
-271.0149015
-300.4745007
-299.9157071
-276.9604655
-267.4833259
-296.8982216
-313.4385125
-304.7213322
-302.1732333
-323.2732801
-343.1216291
-329.7105825
-322.7144864
-343.7921815
-355.638606
-342.3169663
-327.3189458
-346.1838181
-362.0759084
-349.871856
-335.1867599
-350.3188908
-370.949551
-361.4947631
-341.0205652
-350.1624286
-370.9942545
-363.1264404
-338.0254314
-314.533748
-266.2316282
-212.3192206
-187.1511563
-151.4107169
-143.0288128
-212.0733514
-207.3124298
-165.1570398
-273.6524074
-346.2285216
-328.8835679
-284.7835761
-299.6251344
-292.4278727
-269.1820585
-206.1724909
-203.1997088
-235.9450145
-250.4512966
-241.5105988
-252.0382705
-280.8049656
-282.8389743
-257.7603171
-258.0061862
-283.0624918
-283.3977679
-255.7710118
-246.2715204
-268.17623
-273.4959452
-250.4512966
-233.5533778
-246.6962036
-254.787535
-232.9722325
-209.7711217
-216.1190171
-227.1607789
-206.7312845
-178.2775138
-179.5068597
-188.492261
-170.3649962
-134.5798534
-124.9462515
-134.3116324
-122.0405247
-84.13196613
-73.80546019
-89.78695748
-86.12127139
-58.80743966
-50.87257038
-69.04453862
-78.14169862
-58.40510826
-49.26324478
-72.48670727
-97.47595757
-93.38558833
-90.03282667
-121.4817311
-156.0822315
-163.7935834
-162.4524787
-192.6496855
-230.2006161
-237.4649331
-231.2064446
-250.5407036
-284.4482999
-295.6688757
-282.8613261
-285.5435354
-314.0196579
-325.7766754
-307.8058729
-301.145053
-325.9331376
-338.2489488
-318.4900067
-305.9953816
-324.5696812
-339.3888878
-320.389905
-302.195585
-314.5560997
-332.4374953
-319.7193527
-297.0323321
-302.5979164
-322.0662859
-315.7407422
-291.1538233
-292.8302041
-317.2830125
-314.8690241
-291.0644163
-289.2762767
-312.7903119
-316.9253846
-293.1431285
-285.3647215
-306.5988787
-317.3724195
-300.4968525
-292.6290384
-315.0254864
-333.1751029
-317.8194544
-300.3403902
-315.7630939
-336.751382
-325.7319719
-306.1294921
-317.417123
-340.1711989
-334.8514837
-315.4501695
-318.467655
-340.2159024
-340.1935506
-318.288841
-316.5677567
-339.5229983
-343.5016088
-320.7698847
-318.2441376
-340.7299925
-349.3130623
-328.1012569
-316.1207218
-336.3043471
-354.0292804
-338.3160041
-321.0381056
-335.70085
-355.6833095
-343.0322222
-321.8204167
-331.766943
-354.1410391
-345.2450449
-325.5308062
-327.654222
-352.3305478
-371.8883242
-362.5005916
-360.1313067
-377.1633359
-371.731862
-328.1906638
-287.2646197
-298.7757681
-314.533748
-300.1392245
-288.4939657
-303.0225996
-315.8972044
-308.3870182
-304.1178351
-326.8495592
-349.693042
-347.5249228
-335.4996843
-350.8553327
-371.8883242
-361.1594869
-338.9195012
-344.9544722
-371.3518824
-373.6764638
-349.6483385
-347.2567019
-370.8377923
-379.6220278
-359.0360712
-352.7105275
-378.1691644
-387.9368768
-363.3276061
-349.3801176
-349.3130623
-292.2714105
-199.3328571
-159.9490833
-144.6157866
-123.3592776
-149.2873012
-133.3952109
-99.19704189
-206.5524705
-289.5892012
-301.323867
-264.6670061
-271.2831225
-241.5329506
-224.6573835
-212.632145
-233.6427848
-256.3521572
-248.931378
-251.7700495
-280.2014685
-293.3219425
-276.3569684
-266.5669044
-283.5542302
-296.3170762
-280.6261516
-259.2131804
-268.8244306
-285.051797
-269.0255963
-243.0528692
-249.3113577
-266.7457183
-255.9498258
-228.5689388
-223.9644794
-240.6835843
-229.7982847
-196.449482
-184.0889673
-195.6448192
-193.297886
-158.0938885
-136.7703243
-147.2309407
-143.6323099
-112.1163502
-85.83069871
-94.10084416
-104.2932396
-80.06394864
-56.21463731
-66.00470138
-82.4555853
-70.78797469
-49.19618955
-58.74038443
-86.32243709
-86.50125104
-73.60429449
-91.15041389
-132.0541062
-150.4942954
-147.4321064
-162.6089409
-202.4173978
-224.7244388
-219.538834
-223.6962585
-259.0120147
-281.3637592
-271.8866196
-264.5552474
-288.4269105
-315.0254864
-305.9730298
-288.9857041
-302.2626403
-323.6756115
-315.8077974
-294.6630472
-304.3190008
-329.3082511
-321.4851405
-295.3559512
-298.7981199
-320.8592917
-320.5910707
-296.6300007
-290.8856023
-312.343277
-316.634812
-292.0478931
-281.7660906
-302.3073438
-312.343277
-295.9594483
-285.3647215
-303.6484484
-318.5794137
-301.8156054
-283.6212854
-297.1887943
-319.1605591
-310.2198613
-289.9244773
-297.2558495
-321.1498643
-318.467655
-296.8088146
-301.6144397
-326.2237103
-326.9836696
-307.9176316
-306.2859543
-329.2858993
-338.3607076
-317.0818468
-307.6941142
-326.5813382
-340.2829576
-324.1226463
-309.0799223
-328.1906638
-346.541446
-330.4928935
-312.2762218
-324.8602539
-344.9991757
-334.4268005
-313.5279195
-320.9710504
-343.836885
-338.1818936
-314.3325823
-314.7125619
-339.4782948
-341.1546756
-319.8534632
-315.2266521
-337.7572105
-345.3568036
-322.6921347
-312.7232567
-327.1848353
-344.1721611
-351.2800159
-349.4918763
-363.2381991
-375.9786935
-350.7212222
-308.6328874
-288.4492622
-307.269431
-307.2470793
-290.7067884
-292.2043553
-306.2636025
-303.5590414
-290.9079541
-305.4589397
-333.5550825
-341.5123035
-328.3247743
-329.5317685
-357.2479316
-366.0768707
-344.4850855
-337.4219343
-359.930141
-375.5763621
-357.3149869
-343.6133675
-360.0418997
-379.0408825
-367.1497544
-350.9000362
-363.9087515
-383.0641965
-374.4587749
-351.9952717
-354.4986671
-348.64251
-254.6310728
-153.8470571
-127.4496469
-100.9851814
-71.57028575
-80.10865213
-49.41970699
-46.29046277
-169.8956096
-247.6349768
-281.9449046
-254.4075554
-247.2997007
-202.7750257
-208.2959066
-228.0324969
-255.4580874
-255.6592531
-250.3842414
-271.7301573
-297.0546838
-293.5901634
-273.6300556
-277.8545353
-299.9827623
-294.7748059
-269.3385207
-265.4716689
-286.7952331
-288.1586895
-260.2413607
-245.8915408
-264.9575788
-268.6232649
-242.8517035
-224.7244388
-236.8390842
-243.2316832
-215.0461334
-189.2298686
-194.4154733
-201.8139007
-176.5340777
-144.1016965
-143.5652546
-152.1259728
-134.6916121
-101.901603
-96.58188779
-107.8248153
-95.68781801
-65.33414904
-61.66846295
-80.30981783
-80.55568702
-57.24281755
-51.9901576
-79.21458235
-97.65477153
-80.98037016
-79.03576839
-113.8597863
-146.2921675
-146.6721471
-150.5166472
-180.1550603
-217.3036596
-220.8352352
-219.628241
-246.3385756
-281.6766836
-285.141204
-274.211201
-285.9011633
-314.6902102
-319.8087597
-300.7427216
-302.2402885
-329.6882307
-339.9253297
-317.9088614
-311.4939107
-332.4374953
-341.0429169
-320.9263469
-310.0186956
-327.6095185
-339.0983151
-318.6911724
-303.3802275
-319.3840765
-336.1478849
-319.4734835
-298.3063815
-307.7611694
-328.6376987
-321.3286783
-297.2334978
-306.1965473
-330.8728732
-328.1012569
-303.514338
-303.0896548
-327.4307045
-331.8339982
-311.1362828
-306.2859543
-328.3024226
-337.6231
-318.9370416
-308.9458119
-328.704754
-343.4122018
-328.2353673
-315.2937073
-334.0691726
-354.6327775
-341.6911175
-320.300498
-330.537597
-350.654167
-343.9039402
-324.5249777
-331.2305011
-354.1186874
-352.8222862
-331.7222395
-333.0409924
-355.7950682
-359.9971962
-336.3266988
-327.9000912
-350.3635943
-363.9311032
-346.6532048
-331.2305011
-347.681385
-362.5676468
-346.4073356
-330.8505214
-344.8650652
-362.6794055
-350.3859461
-329.5317685
-336.572568
-373.1176702
-391.2449349
-372.8494493
-373.4305946
-388.2498012
-372.9165045
-317.9759166
-292.8302041
-319.3840765
-332.7727715
-313.8184922
-297.6134774
-312.0527043
-328.4812365
-321.6639545
-317.0147916
-340.7523442
-360.3995276
-353.716356
-345.4238588
-361.0030247
-379.5102691
-369.0496527
-349.7153937
-360.9359695
-383.5782866
-379.0632342
-359.751327
-364.5122486
-388.1603942
-389.8814785
-367.708548
-366.3003881
-389.1215192
-397.4363682
-375.6434173
-357.9631875
-326.9836696
-244.7963053
-166.8334206
-127.8072748
-91.06100691
-107.0648559
-116.3408299
-63.32249204
-99.77818725
-246.1150582
-315.8972044
-310.3539718
-280.6037999
-269.6067416
-255.3016252
-244.1704564
-246.0703547
-278.4580324
-292.226707
-284.2024307
-288.2257448
-316.0983701
-322.490969
-300.8097769
-292.316114
-312.2762218
-320.4569603
-296.6300007
-280.9614278
-295.4900617
-305.6377537
-287.5551924
-263.5717706
-268.7573753
-284.1130238
-268.0644713
-239.2754244
-240.3036046
-250.4736484
-234.5592063
-204.4290548
-196.8294617
-210.2852118
-200.562203
-165.6040747
-149.7119844
-159.5467519
-152.014214
-117.7489898
-95.71016976
-106.9083937
-109.2329752
-84.35548357
-64.12715484
-77.53820152
-92.89384996
-79.25928584
-64.44007926
-82.09795738
-108.0930362
-103.5556321
-94.07849241
-118.8218735
-159.7479176
-173.0025021
-170.3426445
-191.9120779
-234.2239301
-250.3618896
-244.4833809
-255.055756
-292.3831692
-308.5881839
-295.3112477
-295.3112477
-321.3063265
-336.0361261
-323.4073905
-315.9195561
-338.4724663
-356.7338415
-341.735821
-322.9380039
-335.8349604
-355.6833095
-343.658071
-320.4346085
-328.9059197
-350.0059664
-342.2499111
-317.9759166
-320.7251812
-343.3898501
-339.6571087
-314.533748
-309.1246258
-333.0186406
-343.5016088
-323.4073905
-314.4666927
-334.8067802
-345.6920797
-325.3519923
-314.354934
-333.1080476
-353.1128589
-338.7853907
-321.0157539
-335.7232017
-357.6055595
-350.3412426
-331.3869633
-340.1935506
-359.3713474
-356.6444345
-337.9583762
-341.4005448
-365.875705
-366.0768707
-346.630853
-345.8038385
-369.0720044
-374.01174
-349.7153937
-340.3053093
-361.0477282
-374.3693679
-357.1361729
-343.8592367
-362.5452951
-377.2303912
-361.9865015
-342.8310565
-356.778545
-376.2022109
-366.2556846
-345.6250245
-352.4199548
-374.1011469
-369.9437225
-343.0992774
-342.1828559
-363.7299375
-373.8105743
-376.1351557
-382.9077343
-400.9008886
-403.6501531
-371.3518824
-331.4316668
-319.4734835
-329.1741406
-317.1712538
-307.9623351
-321.4851405
-329.487065
-315.0254864
-311.5162625
-336.3490506
-360.0642514
-352.2858444
-340.9535099
-359.1478299
-383.1759552
-378.8620685
-355.5268473
-354.2751496
-378.8844203
-380.3372837
-361.5618183
-360.0418997
-383.2653622
-393.077778
-373.2294289
-364.825173
-385.5675919
-398.6210106
-377.6103708
-363.685234
-373.8776295
-350.2518356
-244.6845466
-167.1686968
-154.9869961
-126.3991149
-107.0648559
-111.2669839
-76.82294569
-92.24564937
-202.0374181
-249.5795786
-273.9876835
-273.6524074
-268.3326922
-235.2297586
-237.0402499
-247.5455698
-255.8604188
-248.7972675
-253.044099
-281.7660906
-298.4851955
-285.0294453
-270.2549422
-284.269486
-301.323867
-285.5658872
-261.8059828
-267.997416
-287.6222477
-276.0887475
-247.9031978
-249.6242821
-267.908009
-258.9449595
-227.1831306
-218.3765433
-238.1131337
-234.4921511
-200.0257611
-182.45729
-196.0471506
-193.2084791
-160.9772636
-138.6031674
-145.4204494
-144.8169523
-112.7198473
-83.88609694
-87.86470745
-94.54787905
-68.9327799
-40.70252665
-44.7481924
-60.97555887
-51.36430876
-29.79487536
-37.93091034
-66.67525371
-67.23404732
-52.86187564
-64.01539612
-103.1309489
-124.3427544
-124.2309957
-141.2406732
-181.6749789
-208.0723891
-204.1384821
-210.5087293
-245.0645262
-270.2549422
-265.9410555
-260.3978229
-283.5989336
-307.2917828
-302.1508815
-286.37055
-302.5308612
-329.3306028
-324.0555911
-303.3802275
-308.7893497
-332.9292337
-327.2518906
-302.3520472
-302.2626403
-324.7261434
-324.68144
-301.0556461
-295.1547855
-315.2713555
-321.8204167
-298.0828641
-286.0129221
-304.6766287
-320.300498
-303.6037449
-290.0809395
-306.2859543
-320.6134225
-307.0906171
-288.3375035
-299.9604106
-324.323812
-316.3218875
-295.110082
-302.0391228
-327.2742423
-325.374344
-303.6037449
-304.3413525
-332.0351639
-336.9078442
-313.9078991
-310.0857508
-331.8787017
-342.4510768
-320.3228498
-308.6552392
-331.6104807
-344.619196
-327.7436289
-318.7358759
-332.8398267
-345.7814867
-335.611443
-316.3442393
-326.7154487
-348.2625304
-339.54535
-320.9486986
-326.9166144
-348.4189926
-341.8475797
-316.5230532
-314.265527
-337.801914
-363.0370334
-349.0001379
-340.1711989
-363.1711439
-371.6871585
-333.510379
-291.4890994
-294.8865646
-313.1702916
-300.0274658
-283.8448028
-294.4842332
-308.5881839
-305.347181
-299.7592449
-314.5113962
-340.0594401
-339.7688675
-330.2917278
-344.3956786
-364.8475247
-359.2595886
-335.432629
-335.2314633
-362.1876672
-370.1225364
-347.7484402
-342.5628355
-365.6521875
-376.6045423
-355.4597921
-342.4510768
-364.0205102
-382.9077343
-365.003987
-346.5637978
-341.6687657
-298.5298989
-221.6622498
-190.5486215
-187.0170459
-165.7828886
-200.5845547
-212.3862758
-173.3824817
-247.8361425
-329.6435272
-310.2645648
-291.9137826
-335.0750011
-327.2518906
-290.304457
-231.2734999
-222.1316364
-232.7710668
-238.8283895
-245.8021338
-276.1781545
-291.8690791
-276.8934103
-257.6709101
-271.5066399
-287.7563581
-271.9089713
-253.1111542
-265.2257997
-285.6999976
-271.149012
-241.3764884
-241.0859157
-264.1752677
-254.9439973
-225.4843981
-212.2074619
-230.0665057
-223.8080172
-190.9286011
-178.7692522
-190.1686418
-185.5418307
-156.1716385
-131.1823882
-136.6585656
-134.7810191
-108.4730158
-81.22623935
-80.46628004
-86.56830628
-67.18934383
-40.00962257
-44.345861
-61.02026236
-55.90171288
-36.27688125
-42.04363132
-68.59750373
-78.07464338
-65.55766649
-74.69952997
-114.1280072
-139.2290162
-131.2717952
-146.1804087
-185.6982929
-215.9625549
-213.5709183
-218.3318398
-250.1383722
-275.0605673
-270.5455149
-262.5882939
-285.6999976
-314.6902102
-309.3481433
-292.2714105
-304.4084077
-331.4763703
-326.514283
-307.9176316
-311.5162625
-335.0079459
-334.3597453
-311.7621317
-306.1965473
-327.6989255
-334.1138761
-309.9963439
-301.7932536
-321.1275126
-330.6493557
-310.0857508
-296.4735385
-314.444341
-330.3364313
-313.6173265
-295.8253379
-309.8175299
-328.9282714
-319.0711521
-296.7417594
-305.0789601
-330.1129139
-322.8262452
-301.4356257
-306.6882857
-331.8339982
-334.739725
-314.8913759
-314.265527
