Detector 2,,,,,,,,Detector 4,,,,,,,,Detector 6,,,,,,,,Detector 8,,,,,,,,Detector 10,,,,,,,,Detector 12,,,,,,,,Detector 14,,,,,,,,Detector 16,,,,,,,
"RED1,2,3,4","IR1,2,3,4 ","RED5,6,7,8","IR5,6,7,8 ","RED9,10,11,12","IR9,10,11,12 ","RED13,14,15,16","IR13,14,15,16 ","RED1,2,3,4","IR1,2,3,4 ","RED5,6,7,8","IR5,6,7,8 ","RED9,10,11,12","IR9,10,11,12 ","RED13,14,15,16","IR13,14,15,16 ","RED1,2,3,4","IR1,2,3,4 ","RED5,6,7,8","IR5,6,7,8 ","RED9,10,11,12","IR9,10,11,12 ","RED13,14,15,16","IR13,14,15,16 ","RED1,2,3,4","IR1,2,3,4 ","RED5,6,7,8","IR5,6,7,8 ","RED9,10,11,12","IR9,10,11,12 ","RED13,14,15,16","IR13,14,15,16 ","RED1,2,3,4","IR1,2,3,4 ","RED5,6,7,8","IR5,6,7,8 ","RED9,10,11,12","IR9,10,11,12 ","RED13,14,15,16","IR13,14,15,16 ","RED1,2,3,4","IR1,2,3,4 ","RED5,6,7,8","IR5,6,7,8 ","RED9,10,11,12","IR9,10,11,12 ","RED13,14,15,16","IR13,14,15,16 ","RED1,2,3,4","IR1,2,3,4 ","RED5,6,7,8","IR5,6,7,8 ","RED9,10,11,12","IR9,10,11,12 ","RED13,14,15,16","IR13,14,15,16 ","RED1,2,3,4","IR1,2,3,4 ","RED5,6,7,8","IR5,6,7,8 ","RED9,10,11,12","IR9,10,11,12 ","RED13,14,15,16","IR13,14,15,16 "
4149,25006,497,164,156,156,154,154,262,166,155,157,159,154,152,157,820,6388,209,169,159,156,155,159,157,160,158,161,158,165,158,163,161,187,35774,38735,34023,37944,629,187,156,156,23741,35895,13292,35583,555,184,427,3228,27551,45377,22779,32897,28666,25697,158,155,17244,31487,10505,31086,18649,24221
4078,24773,491,165,161,155,158,156,250,167,157,158,158,150,155,151,807,6343,210,170,158,155,155,155,156,158,163,165,162,163,156,159,169,190,35530,38297,33877,37678,625,188,166,161,23653,35637,13193,35128,553,181,751,3187,27536,45204,22717,32727,28635,25659,410,169,17247,31434,10432,30727,18634,24202
4073,24744,497,163,157,156,155,154,250,164,160,153,158,153,158,154,807,6337,212,167,158,157,151,155,156,159,159,163,157,162,162,159,174,191,35486,38237,33845,37629,626,189,164,165,23630,35605,13172,35049,553,181,747,3183,27524,45175,22707,32701,28622,25641,410,169,17244,31429,10412,30654,18623,24184
4073,24734,493,160,159,157,156,156,251,165,159,155,157,157,154,149,807,6339,209,167,161,158,151,153,161,157,159,163,155,163,162,160,175,190,35485,38229,33842,37628,629,189,165,163,23624,35606,13167,35061,550,182,751,3184,27529,45173,22702,32690,28609,25637,410,169,17244,31425,10407,30647,18619,24182
4073,24755,495,164,157,157,155,158,253,169,156,156,155,158,156,153,805,6346,215,168,156,156,157,157,159,157,163,163,159,161,161,164,170,191,35513,38287,33861,37663,630,188,162,162,23635,35649,13178,35099,553,183,752,3190,27527,45195,22699,32693,28612,25633,410,167,17246,31441,10417,30672,18612,24181
4076,24737,493,162,156,159,155,156,252,165,152,159,151,153,155,155,808,6345,209,166,157,155,153,150,157,158,159,166,167,163,162,160,170,190,35506,38254,33845,37634,627,189,168,161,23631,35639,13174,35067,550,183,753,3186,27531,45190,22679,32654,28597,25620,413,169,17252,31442,10407,30638,18601,24171
4075,24729,496,163,159,157,157,153,248,169,156,154,158,159,153,149,809,6347,210,166,162,164,158,159,155,156,160,163,156,162,158,163,175,191,35510,38282,33846,37663,628,191,164,162,23625,35669,13183,35113,553,181,752,3185,27531,45204,22677,32669,28591,25626,411,168,17255,31460,10412,30667,18598,24171
4076,24774,493,163,158,157,157,157,251,166,152,155,154,155,157,153,809,6361,210,167,158,156,158,149,158,155,159,164,158,161,159,161,172,191,35573,38395,33889,37746,627,189,169,162,23651,35749,13203,35235,555,182,753,3197,27537,45251,22694,32721,28595,25639,413,170,17262,31494,10429,30746,18601,24180
4077,24834,497,165,156,157,154,154,249,165,157,155,159,151,152,154,810,6376,210,169,155,158,157,153,158,158,161,162,157,162,162,159,171,190,35647,38521,33930,37835,632,189,165,161,23675,35839,13230,35359,556,182,755,3208,27548,45310,22714,32776,28603,25655,411,170,17275,31541,10442,30839,18603,24185
4084,24899,494,163,157,156,156,158,250,167,156,160,155,153,153,157,811,6385,210,168,162,155,156,155,157,162,160,166,158,160,159,157,171,194,35728,38653,33966,37917,630,189,165,160,23703,35927,13256,35483,556,183,755,3218,27558,45375,22735,32840,28614,25675,410,183,17289,31583,10455,30930,18601,24199
4092,24968,502,162,158,158,159,155,251,165,156,155,155,159,153,152,812,6403,211,167,157,157,157,158,158,159,157,168,162,161,154,160,171,192,35793,38781,34003,38001,632,193,167,164,23744,36033,13282,35611,558,182,754,3230,27573,45447,22761,32914,28628,25705,411,173,17291,31631,10473,31013,18603,24216
4100,25037,496,162,159,158,157,154,249,166,156,151,157,155,158,154,812,6421,211,168,155,156,154,155,157,159,160,162,161,162,153,159,173,191,35871,38907,34040,38086,634,190,166,162,23790,36134,13308,35723,561,182,758,3239,27592,45514,22796,32993,28642,25722,414,164,17303,31674,10484,31090,18611,24222
4104,24951,499,162,158,156,155,154,250,168,153,155,152,158,150,156,814,6414,211,167,158,158,158,155,157,159,159,163,158,144,157,160,170,190,35731,38622,33997,37847,632,188,166,160,23770,35959,13257,35273,556,182,757,3217,27605,45471,22696,32721,28630,25639,413,169,17317,31657,10439,30747,18605,24186
4083,24734,491,160,161,155,155,154,252,165,156,159,158,155,153,156,811,6369,210,170,158,157,155,157,156,157,160,164,161,161,163,159,171,191,35466,38163,33847,37595,626,189,169,163,23678,35714,13159,34805,549,183,754,3168,27580,45311,22623,32554,28592,25588,413,172,17314,31615,10349,30359,18586,24154
4075,24675,496,162,157,159,155,156,250,165,156,155,153,155,155,155,811,6365,212,168,156,155,154,154,155,160,158,166,155,165,158,159,174,190,35405,38077,33828,37541,625,190,163,165,23641,35650,13127,34695,549,181,751,3163,27553,45262,22605,32513,28578,25564,412,167,17311,31602,10326,30260,18573,24131
4065,24594,488,166,159,159,156,158,250,167,157,157,157,157,159,154,813,6367,213,166,155,154,156,155,157,162,160,165,161,178,158,157,170,191,35369,38023,33813,37522,625,188,166,161,23619,35621,13113,34643,548,183,753,3159,27542,45242,22584,32482,28567,25548,412,170,17305,31591,10317,30227,18555,24116
4060,24585,493,163,159,160,155,158,251,166,155,155,156,155,158,152,815,6371,211,169,161,156,155,158,158,159,163,161,153,159,163,159,173,189,35390,38068,33826,37551,627,189,164,165,23619,35653,13124,34674,550,181,751,3165,27534,45245,22583,32489,28559,25541,411,167,17299,31607,10317,30235,18552,24109
4059,24577,489,165,158,159,157,155,249,165,156,156,155,157,158,154,812,6367,210,171,159,153,156,151,160,163,160,163,160,170,159,162,174,191,35382,38032,33833,37541,624,191,165,160,23611,35638,13115,34627,548,183,753,3162,27531,45245,22563,32452,28548,25529,412,173,17309,31618,10313,30206,18536,24091
4059,24568,494,165,157,157,154,155,248,166,156,157,159,153,151,158,811,6364,208,168,158,152,157,154,157,159,158,161,156,162,158,160,170,193,35390,38051,33846,37579,629,188,165,160,23601,35665,13111,34663,549,185,752,3162,27528,45255,22555,32454,28544,25533,411,169,17310,31638,10327,30248,18535,24090
4062,24603,492,163,158,158,156,158,249,165,160,155,154,159,157,155,813,6370,210,168,157,156,154,154,157,159,163,162,150,166,158,158,171,193,35449,38141,33887,37659,628,189,167,160,23617,35735,13126,34776,550,182,753,3170,27532,45295,22564,32496,28541,25543,412,169,17318,31671,10337,30329,18528,24098
4059,24626,493,163,159,157,163,155,253,170,165,155,153,152,155,158,810,6378,211,166,159,156,152,155,161,157,160,165,158,162,159,158,171,191,35519,38262,33926,37750,629,189,168,161,23639,35827,13151,34907,551,184,750,3180,27538,45353,22576,32541,28546,25553,410,169,17328,31713,10355,30421,18527,24099
4065,24692,493,161,159,157,154,155,251,169,155,152,157,155,154,157,812,6389,211,167,155,155,155,159,157,159,158,161,160,162,162,160,171,196,35601,38379,33964,37830,630,189,164,161,23670,35917,13171,35030,552,183,755,3191,27549,45402,22586,32604,28549,25576,411,173,17331,31750,10375,30513,18535,24112
4071,24752,498,163,157,159,152,157,249,166,156,154,155,155,153,154,812,6398,212,167,155,156,157,151,159,158,158,165,158,164,156,163,171,189,35671,38496,33999,37905,632,188,167,165,23697,36005,13192,35151,553,181,753,3201,27557,45458,22608,32671,28557,25592,411,169,17347,31799,10386,30607,18539,24123
4078,24813,492,163,159,157,158,157,249,166,160,156,158,154,155,155,812,6414,210,169,156,155,155,155,158,159,162,163,162,162,158,160,173,191,35743,38603,34033,37993,631,190,165,161,23720,36096,13214,35264,557,182,755,3209,27577,45521,22634,32739,28579,25621,413,170,17358,31847,10405,30701,18543,24139
4082,24858,497,162,158,159,155,156,250,166,157,155,154,156,154,154,812,6423,211,169,160,159,155,156,156,163,160,165,159,163,161,159,170,191,35814,38710,34076,38087,635,190,165,162,23753,36184,13239,35391,557,182,756,3219,27594,45593,22661,32820,28595,25645,413,174,17378,31905,10423,30795,18547,24157
4088,24934,493,165,157,157,154,149,252,167,157,154,154,151,155,153,815,6435,211,173,157,154,158,152,157,163,159,163,158,160,161,164,172,193,35903,38854,34134,38191,634,191,164,161,23802,36298,13269,35535,557,182,757,3233,27622,45675,22691,32922,28612,25682,412,175,17389,31963,10444,30907,18558,24175
4099,24939,499,164,159,156,156,154,250,168,154,159,155,159,157,158,815,6445,212,175,158,156,155,155,157,157,160,161,161,160,164,164,171,193,35852,38698,34139,38040,633,189,166,162,23811,36207,13240,35211,556,186,758,3227,27637,45679,22628,32725,28615,25610,413,168,17413,31974,10425,30675,18563,24149
4076,24681,491,163,159,156,155,149,254,163,157,153,155,155,152,154,817,6388,212,170,158,155,155,154,158,159,163,165,157,162,155,163,168,187,35550,38152,33965,37733,629,194,168,165,23715,35891,13118,34627,547,182,753,3165,27629,45506,22534,32513,28585,25561,414,165,17415,31927,10323,30229,18547,24121
4071,24643,493,162,158,157,155,155,249,165,153,153,152,153,151,157,813,6381,209,167,161,153,158,155,157,158,161,162,162,165,158,163,171,189,35481,38050,33938,37681,631,187,165,165,23674,35813,13082,34495,548,186,753,3156,27621,45472,22522,32477,28571,25539,415,170,17418,31922,10306,30141,18543,24098
4071,24625,490,166,156,157,157,154,251,166,160,155,155,155,153,157,814,6381,210,167,158,154,154,157,158,159,161,164,157,160,163,159,170,190,35449,37980,33934,37653,629,189,166,162,23654,35771,13062,34411,544,182,752,3149,27616,45446,22503,32434,28558,25524,411,169,17421,31929,10299,30082,18532,24089
4069,24634,493,163,159,157,155,158,249,166,156,159,155,159,153,153,814,6381,210,170,155,156,157,157,155,163,161,165,156,162,159,159,173,192,35459,38019,33954,37692,631,190,164,160,23655,35791,13067,34443,546,182,752,3153,27610,45446,22509,32453,28553,25517,414,169,17428,31955,10303,30109,18527,24091
4070,24631,489,163,158,154,157,156,249,166,159,156,155,154,155,157,812,6383,210,172,158,157,155,155,157,176,164,169,159,161,159,158,171,190,35447,37993,33973,37703,627,188,166,165,23664,35799,13062,34410,545,184,755,3154,27619,45455,22498,32437,28553,25507,412,169,17442,31981,10299,30085,18528,24077
4073,24631,493,163,158,155,154,155,250,164,158,156,153,153,152,157,813,6388,211,164,155,155,157,154,160,160,159,165,158,164,158,163,171,188,35447,38007,33971,37715,629,188,173,162,23666,35803,13063,34414,546,185,751,3152,27611,45436,22489,32423,28544,25510,411,170,17448,31999,10299,30091,18519,24075
4075,24673,490,162,160,158,157,155,251,166,157,152,158,158,155,151,814,6395,212,167,156,159,155,155,158,159,161,159,162,163,160,160,171,189,35475,38082,33994,37771,628,189,165,161,23677,35859,13076,34499,546,180,755,3159,27613,45470,22500,32462,28549,25522,411,169,17451,32030,10309,30151,18522,24079
4079,24730,495,164,159,156,154,155,250,167,155,155,153,152,153,157,813,6403,210,169,157,156,158,153,165,159,164,167,158,160,157,163,173,189,35529,38190,34026,37847,631,189,166,165,23702,35943,13096,34623,548,186,752,3170,27616,45497,22515,32517,28556,25535,411,170,17461,32068,10330,30242,18521,24092
4083,24779,493,166,157,159,153,154,254,166,155,158,156,157,158,152,815,6418,210,166,159,153,159,151,157,159,166,165,159,164,160,163,171,191,35593,38307,34064,37929,631,190,163,162,23727,36031,13120,34741,549,182,755,3179,27621,45539,22526,32576,28563,25553,413,170,17469,32101,10346,30323,18525,24102
4091,24831,499,163,158,158,161,154,250,168,157,155,154,158,154,159,814,6429,213,168,161,160,153,154,158,158,159,166,158,161,159,163,170,191,35640,38421,34093,38007,633,188,164,163,23751,36107,13145,34852,551,184,756,3190,27626,45591,22548,32630,28574,25575,413,167,17480,32138,10357,30404,18531,24117
4096,24891,494,165,158,157,155,162,250,164,156,156,156,154,150,155,815,6440,212,166,159,156,155,155,158,159,160,165,158,162,160,158,170,190,35704,38527,34141,38087,633,188,165,165,23779,36190,13163,34967,553,182,755,3197,27649,45641,22564,32694,28584,25597,413,169,17490,32175,10373,30492,18537,24133
4099,24950,499,162,161,161,154,154,254,167,156,158,155,155,159,155,815,6455,212,171,159,154,155,153,159,159,165,161,158,165,163,159,168,190,35766,38639,34178,38168,635,189,166,160,23796,36265,13186,35075,555,183,755,3208,27653,45697,22588,32760,28597,25621,412,169,17499,32215,10394,30575,18549,24147
4109,25015,496,162,160,157,156,156,251,164,156,155,157,156,154,156,817,6466,212,168,161,157,153,155,155,162,157,164,157,162,162,158,170,191,35827,38756,34225,38259,637,189,165,161,23830,36353,13212,35205,554,183,756,3217,27670,45761,22626,32837,28617,25646,417,170,17511,32261,10409,30667,18559,24172
4116,25086,501,161,158,154,155,158,253,165,152,154,155,159,156,154,817,6480,211,165,160,159,155,153,158,159,163,165,158,162,161,160,172,192,35901,38917,34282,38375,639,189,165,165,23877,36475,13243,35364,557,183,757,3229,27681,45829,22663,32943,28641,25692,412,171,17520,32304,10430,30780,18567,24194
4123,25159,499,165,157,157,157,158,249,164,157,152,151,154,157,153,818,6500,212,168,159,155,157,155,160,162,159,161,158,163,159,164,174,191,35934,38929,34340,38373,635,192,166,162,23916,36498,13246,35253,552,182,759,3238,27703,45875,22650,32885,28659,25653,414,170,17536,32338,10433,30720,18583,24191
4111,24913,498,165,160,157,155,153,246,167,156,157,154,153,157,155,818,6454,212,168,156,152,159,153,157,151,162,161,158,163,157,159,170,190,35617,38375,34171,38010,634,187,166,162,23821,36146,13126,34588,549,181,755,3179,27698,45713,22540,32619,28633,25598,413,168,17542,32275,10334,30213,18577,24164
4103,24855,495,164,159,157,155,155,252,166,159,155,155,153,156,151,817,6442,210,167,155,153,158,153,157,160,162,163,159,162,159,160,171,189,35515,38229,34111,37938,631,191,165,160,23779,36046,13085,34466,545,181,755,3164,27681,45653,22536,32601,28631,25595,414,169,17541,32263,10318,30133,18575,24160
4108,24873,499,163,164,156,155,155,251,169,158,160,155,159,163,149,818,6449,213,169,158,160,155,156,161,158,159,163,158,162,162,160,171,190,35495,38203,34119,37931,631,195,177,162,23767,36027,13079,34418,549,182,754,3167,27671,45628,22541,32598,28631,25587,412,167,17532,32251,10317,30113,18574,24157
4106,24887,495,164,155,155,153,154,251,172,155,155,151,155,151,154,818,6452,211,168,157,156,153,153,157,160,158,163,158,162,159,164,171,193,35505,38245,34125,37959,632,193,167,162,23772,36049,13081,34466,546,182,757,3167,27659,45623,22558,32622,28631,25597,414,173,17535,32255,10326,30148,18580,24159
4113,24901,498,163,156,159,159,147,251,165,157,154,157,157,155,156,821,6455,211,166,162,155,155,156,155,155,160,163,158,160,160,163,173,190,35487,38218,34145,37962,632,189,171,163,23771,36027,13080,34419,547,185,753,3168,27654,45607,22554,32605,28638,25587,415,169,17543,32253,10322,30110,18579,24157
4111,24893,494,163,156,163,159,155,250,163,155,155,152,159,159,149,819,6456,211,168,157,154,155,151,156,161,157,162,159,165,157,160,171,190,35468,38197,34155,37974,631,189,165,162,23766,36011,13072,34423,549,182,757,3168,27654,45589,22558,32613,28633,25593,412,172,17533,32239,10323,30121,18577,24159
4114,24924,500,162,158,159,153,161,249,166,157,153,178,156,157,158,819,6461,212,166,161,156,155,154,154,159,158,163,158,160,159,164,174,189,35495,38273,34175,38035,632,189,164,160,23765,36054,13094,34523,550,188,754,3175,27640,45601,22583,32660,28642,25607,415,170,17523,32242,10337,30191,18579,24167
4116,24973,496,173,158,155,159,157,251,164,156,158,155,158,156,153,821,6470,211,167,157,160,155,155,158,161,156,165,159,161,157,157,171,189,35557,38388,34221,38117,633,188,166,165,23783,36114,13125,34664,550,183,760,3185,27641,45630,22606,32721,28650,25631,413,168,17530,32255,10358,30294,18587,24182
4122,25026,500,163,156,157,157,154,256,166,154,152,153,157,154,154,818,6484,212,167,158,160,151,154,159,159,160,160,157,162,159,160,171,190,35617,38503,34261,38195,635,189,169,162,23795,36182,13150,34798,551,178,755,3195,27640,45659,22638,32784,28663,25655,411,169,17529,32272,10381,30390,18591,24196
4129,25081,499,167,157,157,155,156,251,169,160,159,155,143,151,158,819,6496,211,169,160,156,155,157,154,159,161,166,158,162,159,160,169,193,35679,38621,34301,38281,635,190,165,161,23815,36250,13176,34925,552,179,757,3204,27651,45705,22669,32858,28679,25682,414,173,17532,32294,10398,30488,18602,24214
4131,25133,504,167,157,156,156,154,253,166,156,152,156,155,155,158,821,6506,212,166,160,156,154,155,161,159,161,163,158,165,159,161,169,190,35730,38733,34343,38360,635,189,170,164,23829,36319,13202,35043,555,183,758,3213,27655,45750,22702,32933,28698,25707,412,170,17530,32309,10414,30585,18611,24229
4139,25194,498,166,158,159,153,155,253,169,158,159,155,158,156,152,823,6518,212,167,157,153,159,151,156,159,163,165,158,164,160,162,172,188,35787,38839,34386,38436,638,190,168,162,23858,36396,13225,35159,554,182,759,3225,27666,45799,22736,33007,28721,25737,415,170,17533,32327,10437,30673,18620,24250
4145,25253,506,168,157,156,154,155,252,165,157,156,152,153,156,157,821,6529,213,169,156,157,154,155,158,160,157,162,158,162,159,163,169,191,35853,38957,34430,38532,639,190,166,165,23894,36484,13252,35291,556,185,761,3234,27680,45853,22777,33098,28739,25773,414,170,17533,32347,10455,30772,18632,24273
4151,25326,500,163,157,154,157,155,261,163,157,156,152,154,156,152,824,6539,213,172,156,156,155,151,158,161,160,162,159,160,158,160,173,191,35930,39116,34489,38650,639,190,169,165,23931,36580,13286,35449,557,182,759,3247,27695,45932,22820,33206,28762,25812,417,168,17537,32365,10476,30881,18647,24294
4163,25345,506,165,160,158,158,155,251,163,159,160,155,156,157,155,825,6562,214,171,157,156,155,154,157,159,160,161,161,160,160,162,170,191,35871,38971,34485,38503,638,190,165,159,23924,36466,13263,35133,554,182,761,3245,27707,45919,22768,33035,28781,25762,416,169,17548,32359,10461,30651,18663,24286
4143,25104,496,163,157,156,156,156,245,165,159,153,156,151,151,155,825,6511,211,170,162,156,153,155,157,159,163,177,157,161,158,160,171,191,35563,38415,34317,38173,634,189,165,162,23809,36119,13144,34551,548,183,757,3185,27682,45711,22693,32826,28772,25726,415,169,17534,32259,10359,30216,18659,24274
4140,25067,501,165,159,159,158,158,252,167,156,156,155,156,154,154,823,6497,212,167,158,156,155,157,158,159,159,161,160,159,160,160,171,192,35466,38282,34276,38113,634,190,165,161,23764,36008,13110,34448,547,183,757,3178,27664,45640,22694,32811,28770,25728,414,168,17515,32208,10348,30159,18655,24270
4139,25066,497,164,157,157,156,154,253,166,152,159,155,154,159,155,825,6499,211,167,150,156,158,157,158,157,159,167,158,163,159,159,171,190,35438,38216,34263,38087,631,189,165,166,23739,35947,13100,34385,547,182,760,3178,27648,45587,22700,32789,28775,25731,414,167,17504,32172,10344,30126,18657,24266
4138,25060,501,163,159,159,157,155,251,165,160,152,157,155,153,157,825,6497,215,169,162,156,157,137,157,161,159,163,158,160,158,163,173,191,35443,38238,34266,38102,634,189,165,162,23717,35932,13108,34427,546,186,757,3177,27631,45561,22719,32815,28781,25738,411,174,17488,32140,10356,30166,18659,24272
4137,25050,495,162,158,157,156,155,251,168,154,156,153,155,155,164,824,6495,212,167,145,158,152,156,158,160,160,160,158,161,160,159,171,193,35431,38198,34269,38085,636,189,165,162,23711,35882,13100,34389,546,185,759,3178,27625,45524,22713,32797,28787,25741,414,173,17484,32103,10357,30146,18663,24271
4137,25035,500,163,159,155,155,154,254,162,152,159,155,153,154,155,824,6488,211,171,157,153,157,149,160,160,159,163,161,162,160,161,170,191,35410,38179,34263,38081,636,190,169,161,23679,35839,13099,34408,546,179,757,3176,27611,45501,22724,32805,28790,25752,412,171,17464,32058,10363,30171,18661,24272
4139,25076,498,166,157,159,158,157,251,168,160,159,156,165,154,150,821,6492,211,167,161,155,155,155,157,158,160,166,159,165,157,157,171,193,35436,38259,34281,38136,633,188,163,161,23679,35881,13139,34553,549,180,759,3184,27608,45504,22754,32869,28803,25775,414,173,17449,32043,10375,30248,18668,24284
4147,25125,502,163,157,156,154,155,254,165,153,152,168,152,158,153,823,6500,211,169,160,159,156,157,160,159,159,163,158,162,159,157,170,190,35504,38375,34325,38222,634,190,168,165,23681,35908,13165,34677,553,182,757,3195,27595,45512,22762,32905,28807,25787,413,171,17443,32035,10396,30339,18674,24300
4149,25178,498,163,157,157,156,154,250,166,156,155,151,153,153,156,826,6522,214,169,157,157,153,157,158,151,159,163,158,161,159,160,170,190,35573,38491,34348,38282,638,188,166,161,23684,35961,13189,34811,549,184,761,3207,27594,45543,22783,32949,28812,25803,414,170,17429,32023,10417,30439,18683,24303
4148,25198,502,163,157,156,155,154,251,166,155,155,158,155,151,152,827,6521,211,169,160,156,154,159,158,163,162,165,157,164,157,158,174,193,35638,38594,34335,38311,639,190,165,161,23674,35986,13211,34962,553,182,757,3213,27588,45561,22812,33031,28835,25836,415,171,17395,31973,10434,30551,18683,24319
4157,25251,500,164,157,155,153,155,252,166,156,156,151,153,155,151,826,6539,217,171,155,161,158,152,157,166,160,163,159,162,159,160,170,192,35657,38670,34379,38393,637,191,166,159,23681,36047,13251,35122,552,182,764,3221,27623,45625,22860,33120,28856,25867,413,169,17371,31963,10457,30658,18687,24331
4166,25326,505,163,158,155,158,155,251,166,153,152,155,155,155,155,828,6562,211,169,162,153,155,154,158,162,162,163,158,162,159,159,171,194,35746,38794,34433,38483,639,189,167,160,23695,36125,13295,35237,554,182,763,3232,27635,45675,22899,33185,28880,25893,415,171,17377,31980,10462,30704,18694,24349
4174,25387,502,163,159,157,153,155,251,169,154,156,154,155,155,158,831,6583,211,169,158,153,169,158,155,160,158,163,157,162,159,161,170,195,35795,38887,34490,38575,639,189,166,161,23735,36202,13322,35351,554,183,765,3237,27650,45730,22913,33225,28903,25918,417,172,17382,32002,10478,30778,18703,24362
4179,25431,507,163,157,156,154,158,251,167,157,156,155,152,157,154,830,6590,212,168,157,157,155,154,157,162,159,164,160,161,159,160,169,193,35859,39025,34567,38694,642,189,165,160,23776,36296,13359,35492,559,182,763,3249,27654,45779,22951,33305,28935,25955,415,172,17388,32033,10497,30885,18718,24391
4189,25524,505,163,160,159,155,153,251,167,154,153,158,158,156,154,833,6623,213,169,160,155,154,154,155,163,160,163,157,165,159,162,171,191,35926,39079,34623,38737,639,191,168,162,23816,36329,13375,35443,557,183,763,3260,27656,45792,22958,33283,28991,25975,415,173,17404,32062,10503,30879,18734,24394
4171,25239,505,161,158,156,155,154,250,167,160,157,156,159,151,155,829,6537,216,171,170,161,158,154,157,160,159,163,158,161,159,159,169,194,35484,38323,34596,38447,638,189,166,163,23731,35983,13275,34758,549,181,763,3206,27707,45701,22870,32993,29014,25947,414,168,17475,32087,10457,30440,18736,24383
4155,25122,498,166,160,157,154,155,254,166,159,160,158,155,155,153,830,6510,211,169,157,156,157,155,157,160,164,165,162,162,159,160,171,190,35271,38019,34542,38313,635,189,167,159,23675,35807,13229,34513,547,182,762,3179,27662,45542,22821,32886,29007,25927,416,169,17498,32053,10418,30253,18730,24369
4148,25065,501,164,158,159,156,154,252,165,156,159,154,155,157,151,825,6491,211,169,156,156,155,157,160,159,158,164,159,162,161,157,170,186,35255,37957,34531,38249,638,190,167,164,23645,35694,13195,34391,544,182,759,3175,27629,45457,22783,32806,28994,25902,414,170,17498,32011,10409,30167,18734,24361
4143,25043,497,163,157,156,158,157,251,165,156,153,154,153,155,154,826,6498,215,168,158,155,156,155,156,159,159,161,158,166,159,160,169,188,35263,37943,34485,38216,632,187,165,165,23609,35613,13172,34347,544,182,759,3175,27591,45380,22759,32775,28996,25912,425,167,17477,31954,10401,30149,18733,24361
4144,25049,501,163,158,158,159,154,252,165,155,155,154,157,153,157,826,6492,212,167,161,155,158,151,159,163,160,165,157,160,158,162,172,186,35238,37914,34482,38206,633,188,165,159,23578,35566,13166,34317,544,183,758,3178,27580,45357,22765,32765,29015,25926,414,173,17458,31906,10414,30167,18730,24358
4143,25035,496,165,157,157,158,154,251,167,157,159,153,154,155,157,825,6482,214,169,157,156,154,159,157,158,163,165,155,162,160,160,169,191,35143,37812,34443,38160,631,187,164,161,23547,35521,13191,34349,545,182,760,3175,27599,45355,22766,32758,29029,25940,412,171,17427,31836,10407,30140,18725,24355
4148,25059,503,163,157,157,155,154,249,169,161,159,155,153,152,156,825,6491,215,168,156,156,168,155,157,159,161,162,159,162,156,161,169,189,35130,37846,34416,38167,634,189,165,162,23514,35475,13201,34420,546,182,761,3182,27575,45329,22767,32785,29027,25937,415,168,17377,31744,10409,30161,18717,24349
4143,25072,497,166,158,155,155,155,248,167,159,158,154,154,153,150,825,6495,211,166,156,156,153,154,157,162,165,166,159,164,162,160,171,190,35230,37995,34417,38226,635,190,163,162,23497,35485,13226,34559,547,181,763,3189,27552,45314,22779,32848,29027,25959,415,171,17343,31703,10419,30252,18717,24353
4146,25108,501,163,159,156,157,155,250,166,155,156,156,155,154,158,823,6493,211,169,157,155,152,156,157,160,159,166,157,163,159,159,168,190,35267,38103,34462,38323,636,189,164,163,23492,35549,13265,34739,549,184,762,3201,27574,45387,22807,32929,29055,25998,414,172,17329,31704,10458,30400,18716,24365
4147,25160,499,162,158,157,158,154,253,170,160,155,157,154,154,157,824,6494,210,169,161,153,155,153,158,159,159,163,159,162,157,160,170,195,35302,38203,34509,38411,634,189,166,162,23487,35603,13301,34903,552,184,763,3215,27593,45445,22839,33006,29061,26018,415,172,17330,31708,10482,30527,18725,24377
4148,25199,504,166,156,157,158,152,251,164,160,155,159,156,154,155,826,6511,216,168,159,160,151,154,158,159,160,164,157,162,159,159,172,190,35402,38358,34508,38460,637,190,165,161,23479,35644,13321,35019,551,182,761,3227,27589,45473,22863,33067,29063,26031,414,170,17307,31683,10493,30597,18728,24379
4149,25197,498,163,156,156,153,154,254,169,157,155,152,155,155,151,828,6526,211,169,156,157,157,162,158,159,161,162,161,162,163,161,172,194,35485,38499,34532,38540,639,191,167,163,23483,35693,13334,35141,552,181,763,3239,27603,45531,22896,33152,29075,26061,415,172,17295,31681,10511,30702,18729,24396
4150,25245,503,166,161,157,153,156,250,168,155,156,156,153,155,153,823,6525,213,170,157,152,154,158,157,161,163,163,159,162,156,160,170,196,35553,38639,34591,38647,640,191,165,162,23506,35792,13374,35325,559,182,764,3255,27620,45607,22938,33259,29076,26081,415,169,17293,31703,10546,30841,18734,24412
4145,25264,501,163,156,156,157,156,250,165,155,155,151,155,153,158,823,6529,212,170,154,159,149,157,159,157,159,164,159,161,160,160,172,192,35646,38744,34620,38686,639,190,165,164,23506,35801,13362,35308,555,186,767,3272,27634,45661,22952,33269,29084,26071,415,169,17288,31703,10565,30905,18753,24410
4120,24971,499,164,156,159,155,155,251,165,153,154,159,158,156,158,822,6475,212,169,160,155,155,154,161,161,159,168,157,162,159,161,172,190,35404,38270,34441,38293,636,189,169,161,23391,35452,13269,34786,551,183,763,3219,27645,45526,22839,32983,29059,26007,415,173,17269,31590,10498,30509,18741,24385
4105,24837,493,163,158,157,155,155,250,170,156,156,154,155,155,151,819,6448,213,169,157,157,157,155,160,145,159,162,157,162,153,156,175,193,35263,38045,34340,38162,635,190,165,163,23315,35290,13207,34594,546,183,761,3195,27636,45446,22831,32934,29038,25991,415,166,17239,31509,10470,30399,18732,24378
4094,24782,495,163,157,157,155,155,250,169,155,155,155,154,155,154,819,6429,211,169,160,156,156,152,155,156,162,167,162,161,161,159,175,188,35323,38102,34330,38155,637,191,164,162,23285,35250,13185,34563,547,183,760,3203,27623,45435,22833,32926,29021,25992,414,167,17228,31490,10483,30425,18730,24368
4087,24755,492,163,158,156,155,157,251,170,157,155,153,154,154,154,815,6410,214,165,155,160,155,154,157,159,161,164,160,162,157,160,170,196,35355,38143,34301,38151,634,190,165,162,23260,35243,13183,34628,547,182,763,3205,27639,45465,22864,32987,29014,25992,415,174,17214,31457,10509,30511,18725,24367
4086,24752,496,166,160,154,153,155,250,167,154,157,155,157,154,154,812,6406,209,163,158,159,155,152,157,161,163,161,156,161,159,159,171,196,35399,38188,34290,38131,634,189,170,160,23241,35239,13179,34609,550,182,762,3212,27653,45489,22879,32996,28992,25983,416,169,17197,31425,10514,30523,18720,24366
4082,24727,491,163,156,157,155,157,251,166,159,153,151,154,155,154,815,6398,211,163,155,153,154,155,157,156,169,162,159,162,163,160,171,188,35429,38197,34277,38106,634,190,165,165,23231,35223,13180,34619,547,181,764,3207,27671,45502,22873,32983,28977,25969,412,169,17195,31416,10516,30526,18716,24361
4087,24765,495,163,157,156,155,154,251,167,153,158,155,155,158,151,816,6413,209,168,157,156,155,157,157,174,161,161,154,165,160,159,173,194,35535,38342,34263,38138,635,193,166,162,23234,35259,13204,34717,548,183,760,3213,27659,45506,22883,33006,28956,25977,418,169,17183,31404,10513,30556,18720,24364
4084,24803,491,163,161,157,155,156,253,165,156,156,158,152,154,157,816,6423,211,168,161,154,155,155,157,156,162,164,159,164,162,159,171,191,35610,38469,34275,38198,635,189,169,165,23266,35335,13223,34847,550,181,762,3226,27659,45541,22908,33064,28958,25989,416,167,17175,31399,10529,30653,18714,24367
4079,24823,497,163,158,159,155,154,252,165,155,159,151,157,151,153,815,6429,211,168,160,157,158,156,157,161,160,162,159,160,158,160,174,195,35667,38577,34289,38255,637,192,165,160,23275,35402,13253,35014,552,183,767,3241,27663,45589,22942,33151,28962,26014,414,171,17153,31379,10550,30774,18710,24374
4088,24900,494,161,156,159,156,152,250,166,155,152,151,159,151,156,814,6447,212,169,157,155,153,157,159,160,160,163,158,165,159,161,173,194,35719,38721,34279,38308,636,189,165,161,23306,35499,13295,35209,553,183,764,3252,27680,45654,22982,33260,28969,26044,415,175,17126,31361,10561,30887,18709,24375
4098,24977,502,163,158,156,154,155,250,163,156,153,155,157,153,155,815,6476,212,168,157,160,156,154,157,159,158,163,160,162,160,162,171,191,35745,38834,34370,38475,642,191,166,167,23359,35651,13375,35422,556,184,766,3271,27731,45803,23079,33423,29035,26116,415,172,17096,31359,10579,31026,18709,24388
4107,24945,496,164,158,155,155,156,251,167,155,156,153,154,155,158,820,6480,211,166,158,156,155,157,157,159,160,164,159,162,159,160,171,191,35614,38587,34393,38324,635,190,165,163,23368,35519,13390,35119,552,186,770,3255,27807,45842,22999,33167,29030,26039,414,171,17135,31383,10565,30794,18716,24369
4091,24733,495,163,157,157,154,154,250,161,157,156,153,151,152,153,819,6441,212,169,160,157,159,157,157,161,159,166,158,162,160,160,171,193,35430,38191,34330,38115,635,190,165,161,23329,35312,13299,34587,547,183,764,3204,27795,45716,22908,32946,29007,25988,413,171,17181,31397,10477,30377,18703,24349
4083,24694,492,163,158,157,154,155,253,161,156,155,155,154,154,152,819,6427,211,168,157,157,158,155,157,159,158,163,157,162,160,157,172,186,35440,38157,34309,38071,632,189,168,161,23347,35285,13258,34473,545,181,761,3193,27796,45713,22874,32886,29007,25979,416,171,17220,31438,10473,30321,18691,24340
4085,24704,497,165,157,156,153,155,250,165,160,155,153,155,150,154,818,6438,213,167,154,155,159,156,157,162,167,163,158,161,154,160,170,192,35435,38149,34278,38049,634,189,165,159,23354,35299,13265,34505,546,183,761,3195,27779,45681,22853,32855,29007,25981,413,171,17225,31434,10464,30313,18687,24336
4089,24759,491,162,158,158,156,162,249,168,153,156,154,159,153,155,818,6446,211,172,158,157,153,155,159,147,159,164,156,166,165,169,172,191,35401,38153,34283,38078,635,188,165,162,23375,35359,13294,34577,546,182,763,3203,27778,45710,22863,32871,29035,26006,415,170,17222,31447,10471,30335,18686,24339
4094,24774,497,163,159,162,156,156,249,165,155,156,152,155,155,155,818,6448,212,168,160,156,155,152,157,163,159,167,159,161,161,160,170,190,35287,38055,34287,38081,634,189,166,161,23383,35364,13329,34596,548,181,763,3206,27778,45727,22877,32879,29071,26029,413,173,17207,31425,10458,30299,18681,24329
4098,24787,494,163,159,155,156,153,248,166,168,155,155,155,154,155,816,6443,210,169,154,156,155,156,157,158,158,163,161,162,169,163,170,191,35234,38050,34305,38122,635,189,163,159,23383,35393,13368,34704,548,181,765,3208,27782,45751,22895,32934,29078,26037,415,169,17195,31422,10461,30344,18679,24334
4102,24850,497,163,157,155,155,156,250,166,154,159,156,155,154,158,819,6455,212,169,161,154,155,154,157,162,160,163,158,163,158,163,171,189,35286,38173,34367,38252,635,187,165,160,23397,35487,13429,34901,550,184,762,3221,27781,45817,22927,33021,29102,26066,413,172,17197,31455,10486,30482,18680,24340
4106,24913,495,162,155,160,154,154,251,167,157,155,155,158,155,157,821,6472,211,169,157,156,155,158,158,163,159,163,157,164,156,161,170,190,35365,38317,34438,38357,637,189,166,161,23437,35592,13472,35069,554,183,765,3230,27796,45878,22935,33065,29104,26079,415,171,17224,31517,10513,30598,18687,24350
4112,24983,501,160,153,156,156,153,249,167,156,158,153,150,157,157,824,6493,213,172,155,155,154,155,157,158,157,163,150,162,162,162,175,194,35455,38480,34489,38468,641,193,164,161,23468,35696,13517,35260,556,186,764,3245,27801,45939,22956,33127,29118,26106,414,169,17237,31569,10533,30711,18690,24365
4119,25063,497,165,157,158,147,156,250,163,155,159,158,151,151,157,823,6510,211,168,159,155,155,158,157,160,159,167,159,160,159,161,171,190,35541,38621,34550,38571,635,187,165,165,23509,35817,13555,35394,555,184,768,3255,27829,46036,22991,33200,29145,26122,414,167,17257,31625,10555,30814,18695,24369
4123,24983,499,163,157,155,156,148,251,167,156,158,155,156,153,156,826,6503,211,170,155,159,158,155,158,161,160,163,160,162,157,163,173,192,35381,38279,34541,38364,638,189,164,163,23499,35646,13503,34894,550,182,765,3226,27843,46004,22899,32952,29149,26055,415,172,17276,31618,10491,30399,18688,24340
4103,24779,492,162,158,152,156,158,248,166,155,158,151,156,150,154,822,6455,211,171,154,159,155,155,158,156,159,164,159,161,159,159,171,189,35173,37924,34461,38184,631,186,170,160,23420,35427,13412,34538,547,181,764,3182,27839,45910,22844,32807,29127,26011,414,170,17287,31601,10451,30191,18672,24317
4097,24742,497,163,158,155,155,155,251,165,160,159,153,154,153,157,820,6445,215,171,158,157,155,155,155,162,160,163,157,161,159,161,171,192,35169,37895,34434,38163,636,187,166,161,23391,35372,13389,34462,546,183,760,3181,27823,45881,22829,32771,29109,25992,411,172,17293,31605,10457,30185,18669,24304
4092,24698,493,161,157,157,154,153,250,169,156,154,154,155,153,155,819,6428,211,168,157,156,153,156,156,159,157,161,156,162,161,160,171,190,35186,37894,34450,38183,635,188,165,162,23371,35338,13363,34453,545,182,761,3177,27810,45849,22809,32749,29085,25972,415,170,17308,31629,10473,30249,18665,24300
4082,24685,493,163,156,157,155,153,251,169,155,159,159,150,155,157,816,6418,210,170,159,154,156,155,160,157,160,163,156,161,160,158,171,189,35247,37968,34431,38181,638,189,168,162,23351,35341,13370,34545,547,181,760,3186,27790,45840,22797,32755,29055,25952,411,167,17302,31623,10499,30335,18663,24293
4077,24665,491,162,157,158,155,156,250,168,158,152,155,158,157,155,815,6415,210,168,157,158,159,155,157,160,159,160,159,162,159,163,171,192,35233,37959,34351,38107,631,190,164,161,23321,35290,13355,34567,547,181,763,3189,27750,45767,22767,32724,29010,25917,414,174,17250,31542,10487,30325,18657,24285
4072,24639,496,162,158,151,150,158,253,166,159,159,151,153,153,153,815,6408,215,171,157,157,156,156,159,159,157,163,158,162,160,160,171,189,35290,38062,34275,38087,636,189,166,166,23283,35286,13354,34679,548,181,759,3197,27707,45731,22767,32766,28969,25905,413,166,17206,31489,10490,30375,18654,24283
4066,24659,490,166,157,156,155,150,248,166,157,157,155,155,153,153,812,6401,213,167,155,156,157,157,157,159,160,166,159,162,159,160,171,189,35383,38237,34269,38161,633,189,163,161,23277,35350,13367,34854,549,182,762,3215,27694,45762,22807,32885,28956,25927,414,169,17177,31475,10520,30526,18648,24285
4063,24701,495,164,159,157,158,157,250,165,157,152,154,153,154,154,809,6399,211,168,154,152,155,153,157,158,160,162,157,164,159,160,171,191,35501,38454,34285,38252,637,190,165,160,23294,35473,13399,35070,552,182,761,3235,27705,45838,22858,33015,28944,25947,417,170,17163,31501,10545,30683,18651,24300
4069,24776,493,163,161,156,157,155,250,165,159,156,159,155,157,155,811,6420,210,170,160,157,155,155,161,158,160,163,158,161,156,161,176,191,35646,38673,34318,38360,637,191,166,160,23328,35595,13436,35265,560,182,764,3254,27730,45933,22920,33137,28938,25963,414,169,17163,31536,10566,30816,18652,24313
4078,24871,498,163,162,157,153,155,251,167,155,155,157,160,159,154,813,6448,212,168,161,157,159,155,161,160,160,167,157,161,159,163,172,194,35760,38865,34380,38489,641,195,169,161,23386,35759,13486,35456,557,184,765,3272,27758,46047,22981,33271,28954,26001,413,174,17191,31609,10586,30944,18659,24327
4091,24978,495,158,154,157,158,155,250,166,155,155,156,152,154,152,816,6471,211,171,162,155,154,152,155,159,160,163,157,160,162,163,171,192,35865,39056,34446,38610,643,193,165,161,23471,35924,13531,35613,558,183,766,3286,27809,46165,23039,33390,28959,26015,417,170,17215,31683,10608,31075,18670,24343
4093,24889,498,165,155,156,157,154,253,165,155,155,158,155,153,154,819,6470,212,168,158,155,153,154,161,162,162,164,156,165,159,159,172,193,35777,38834,34397,38397,638,187,169,162,23469,35764,13488,35215,555,183,764,3267,27834,46145,22946,33127,28943,25931,414,177,17238,31683,10575,30762,18669,24315
4070,24643,489,165,156,155,155,156,248,162,160,159,151,152,155,155,816,6425,211,168,156,156,155,154,157,160,163,166,159,159,157,162,173,190,35484,38343,34261,38145,634,191,165,164,23387,35503,13381,34706,551,183,764,3210,27837,46027,22887,32963,28904,25879,414,169,17245,31657,10487,30383,18656,24290
4066,24625,494,161,161,159,156,145,249,168,154,158,155,157,152,158,815,6431,211,165,158,156,157,155,161,157,162,163,162,160,160,163,171,190,35495,38367,34246,38138,635,189,169,162,23382,35488,13359,34638,547,185,760,3213,27831,46038,22891,32972,28883,25867,412,169,17259,31678,10473,30341,18647,24282
4069,24630,489,163,160,157,155,158,250,165,156,155,157,156,157,159,816,6433,212,169,155,158,158,154,157,164,162,163,162,162,159,157,171,191,35513,38404,34256,38173,636,182,169,161,23403,35519,13349,34642,549,183,763,3217,27841,46056,22892,32983,28879,25864,412,173,17267,31709,10479,30367,18646,24283
4067,24663,496,164,158,155,157,152,248,165,160,157,153,157,154,154,819,6441,213,168,159,154,151,151,155,159,160,161,159,166,158,160,175,191,35562,38503,34289,38232,636,189,163,162,23425,35596,13367,34716,550,182,762,3228,27839,46097,22913,33023,28874,25869,413,171,17273,31743,10491,30435,18643,24278
4069,24658,491,163,159,159,153,155,255,170,160,154,156,154,155,152,818,6445,207,167,161,155,158,153,157,159,158,163,158,165,159,161,171,193,35565,38522,34285,38233,635,190,168,162,23451,35629,13378,34735,549,181,765,3229,27862,46132,22920,33035,28866,25862,413,170,17287,31767,10489,30432,18640,24278
4070,24682,495,163,160,155,159,156,248,166,159,155,151,158,155,153,820,6455,211,169,159,159,154,158,156,159,159,163,161,162,159,158,175,194,35600,38593,34300,38294,637,193,165,162,23467,35688,13396,34833,551,180,762,3236,27879,46182,22937,33089,28868,25879,414,169,17290,31798,10501,30498,18636,24283
4079,24763,492,163,157,160,159,153,253,169,156,156,155,161,157,153,820,6473,211,172,154,153,155,154,158,159,160,163,160,165,157,163,173,195,35681,38754,34356,38416,636,191,169,161,23518,35818,13449,35037,552,185,764,3250,27908,46268,22983,33194,28880,25910,414,173,17302,31844,10523,30622,18641,24295
4090,24860,497,163,157,159,154,155,251,166,153,157,157,154,151,157,822,6497,211,172,154,156,157,155,161,162,162,163,158,160,158,164,171,192,35758,38930,34429,38553,643,191,169,162,23564,35956,13507,35250,554,187,765,3267,27934,46360,23031,33304,28899,25942,414,174,17307,31891,10543,30759,18646,24308
4095,24932,495,163,161,155,157,154,247,167,160,156,159,151,153,154,822,6517,210,168,161,155,154,157,160,163,159,162,157,159,160,160,174,191,35871,39111,34519,38698,643,189,165,161,23622,36104,13552,35439,561,183,767,3281,27963,46449,23067,33399,28914,25970,415,172,17335,31966,10574,30899,18653,24324
4103,25006,500,163,159,156,158,155,249,166,156,152,155,152,155,156,825,6542,213,167,157,156,158,155,160,159,160,164,158,162,157,163,173,191,35981,39285,34591,38827,644,192,168,164,23690,36258,13587,35598,559,186,766,3295,27987,46535,23100,33487,28937,26000,413,170,17364,32043,10603,31023,18663,24340
4110,25082,497,163,159,158,154,157,252,169,156,153,155,158,154,156,825,6563,217,169,157,158,154,155,155,159,159,161,159,164,161,159,171,192,36073,39438,34665,38951,646,190,165,163,23758,36395,13620,35747,561,183,768,3308,28013,46624,23133,33573,28959,26031,418,170,17396,32113,10620,31133,18673,24364
4117,25157,502,162,161,157,155,154,250,170,156,155,155,152,154,156,827,6582,212,170,157,152,155,155,158,155,162,163,160,163,162,163,173,193,36159,39595,34726,39076,647,191,163,162,23812,36526,13652,35892,563,185,768,3321,28031,46705,23164,33675,28983,26073,414,180,17414,32179,10643,31245,18678,24379
4126,25230,500,161,157,158,155,154,251,167,159,154,155,156,154,155,828,6597,211,168,159,157,154,159,156,160,160,164,159,161,160,161,172,193,36240,39763,34808,39223,649,191,166,161,23870,36667,13691,36073,565,186,771,3337,28063,46811,23216,33793,29007,26115,417,169,17437,32247,10665,31384,18691,24405
4131,25318,505,163,159,155,155,156,252,165,152,156,156,156,152,154,828,6608,213,169,157,159,159,152,158,159,160,165,158,162,157,161,171,193,36350,39970,34884,39360,652,190,170,159,23911,36815,13729,36249,567,184,771,3352,28096,46921,23259,33924,29031,26140,415,169,17460,32323,10700,31531,18706,24422
4133,25227,500,161,160,157,155,155,249,166,159,156,156,156,153,153,833,6619,211,167,155,160,152,152,155,158,161,165,161,161,160,161,171,193,36244,39698,34845,39135,649,191,165,165,23904,36621,13669,35787,561,183,774,3332,28115,46894,23143,33611,28998,26020,416,168,17491,32320,10663,31201,18711,24388
4111,24959,497,162,157,156,159,156,251,166,152,155,157,153,154,153,830,6569,212,169,159,157,154,152,158,159,162,167,157,161,159,157,171,192,35934,39169,34699,38869,643,192,168,166,23802,36330,13538,35179,555,183,767,3266,28103,46750,23063,33434,28973,25984,418,170,17505,32311,10566,30758,18696,24379
4109,24964,495,163,161,156,158,156,251,163,154,156,158,155,155,153,831,6570,211,169,156,159,155,154,157,160,160,164,159,162,159,161,171,191,35915,39169,34687,38877,643,193,166,163,23792,36315,13504,35111,555,184,771,3268,28113,46773,23082,33469,28963,25988,414,167,17528,32351,10559,30751,18702,24375
4114,24999,499,166,158,156,155,154,251,170,156,151,153,158,154,153,831,6584,213,169,160,158,158,152,157,158,162,162,158,162,157,159,172,193,35945,39225,34719,38929,646,190,167,163,23804,36345,13505,35131,555,187,768,3276,28109,46802,23099,33502,28969,25996,415,168,17543,32391,10573,30794,18698,24379
4115,25043,497,162,156,158,155,156,251,165,157,156,150,153,154,159,832,6595,213,169,156,153,152,155,160,163,160,162,159,164,159,159,175,191,36006,39331,34743,38983,648,192,165,161,23816,36399,13517,35191,554,185,769,3283,28120,46846,23114,33543,28974,25998,422,173,17556,32426,10589,30849,18705,24382
4114,25028,500,162,158,158,158,156,253,166,152,159,151,159,154,155,833,6597,212,172,158,158,154,154,161,159,161,163,157,161,159,160,172,192,35994,39321,34750,38975,646,191,166,166,23825,36395,13509,35145,555,182,767,3281,28122,46851,23106,33532,28968,25993,415,170,17562,32437,10584,30815,18698,24376
4114,25021,496,162,159,158,158,157,249,165,154,156,158,157,155,156,831,6600,212,173,157,154,156,156,158,159,160,163,160,161,158,158,173,191,36013,39363,34759,39014,645,189,165,159,23828,36416,13510,35213,555,185,769,3286,28126,46881,23119,33575,28969,26003,416,170,17566,32448,10591,30885,18699,24385
4116,25077,501,162,160,157,158,156,254,165,160,152,151,151,153,152,831,6607,212,162,157,156,153,152,159,159,160,164,162,162,159,160,172,192,36090,39519,34807,39119,648,191,167,161,23839,36503,13552,35412,556,183,767,3299,28127,46934,23153,33671,28966,26022,415,171,17571,32484,10623,31023,18707,24397
4122,25150,499,165,157,158,157,153,249,163,155,159,152,158,149,154,831,6623,212,168,155,158,155,151,159,162,158,175,159,165,158,160,175,194,36193,39705,34858,39250,648,190,167,162,23880,36623,13595,35623,563,183,771,3313,28137,47003,23192,33779,28982,26055,416,169,17575,32519,10650,31176,18714,24414
4129,25227,503,163,161,157,155,157,253,163,154,153,155,151,156,153,833,6638,212,167,156,156,155,152,162,159,170,164,161,161,161,160,172,193,36279,39877,34916,39359,653,191,170,165,23927,36755,13635,35819,563,183,769,3330,28150,47073,23233,33878,28996,26082,415,170,17584,32554,10676,31309,18722,24427
4134,25293,502,161,159,159,155,154,253,170,153,154,154,156,153,153,834,6658,213,170,158,155,161,149,157,160,158,162,157,163,162,163,173,197,36366,40031,34970,39473,652,194,166,163,23983,36883,13667,35986,564,183,773,3341,28162,47150,23274,33984,29014,26112,418,172,17595,32597,10702,31449,18726,24446
4140,25359,505,168,156,156,155,153,251,167,157,159,158,154,156,152,838,6669,214,169,161,157,154,157,157,159,159,161,158,162,162,158,176,197,36437,40181,35027,39590,654,196,165,163,24028,36998,13701,36144,567,183,771,3357,28179,47232,23314,34079,29030,26146,415,168,17612,32649,10727,31579,18737,24467
4146,25419,503,166,160,157,156,154,252,167,156,158,159,155,151,155,836,6688,213,172,159,155,162,155,157,159,161,166,161,163,159,162,172,194,36522,40335,35091,39711,657,192,169,161,24073,37113,13733,36310,567,182,774,3369,28193,47295,23353,34188,29051,26183,418,169,17627,32685,10754,31704,18747,24486
4151,25490,509,163,158,158,155,157,253,167,160,155,151,154,151,155,838,6693,218,168,159,157,158,151,156,159,160,163,158,162,157,160,173,194,36607,40515,35171,39853,659,191,165,165,24115,37250,13771,36498,570,184,779,3386,28213,47390,23402,34322,29076,26223,420,170,17636,32739,10778,31852,18759,24506
4155,25501,504,163,158,157,158,154,246,167,153,155,152,155,155,155,839,6721,213,169,157,156,155,153,158,159,158,164,157,163,160,163,174,194,36589,40419,35175,39757,656,192,166,164,24135,37181,13753,36293,567,182,778,3388,28213,47395,23344,34153,29052,26129,418,168,17655,32744,10775,31726,18775,24485
4131,25178,502,162,159,157,158,154,253,166,158,155,156,157,154,151,839,6665,213,169,161,161,159,159,156,159,159,163,160,162,157,158,173,193,36269,39857,35006,39412,652,195,166,165,24017,36815,13632,35678,560,182,774,3314,28203,47223,23233,33892,29012,26067,419,170,17658,32686,10692,31290,18759,24467
4127,25139,501,163,156,156,154,157,253,168,159,159,151,156,155,155,840,6657,213,173,160,159,154,155,157,157,162,168,159,164,162,160,172,194,36194,39751,34967,39383,651,190,165,162,23982,36755,13587,35551,559,182,772,3307,28188,47177,23239,33907,28999,26065,418,170,17663,32687,10669,31206,18759,24464
4127,25178,503,163,158,156,155,155,253,166,155,158,151,159,156,151,837,6667,214,173,158,159,155,156,156,159,163,153,158,162,159,161,173,193,36210,39790,34975,39415,651,195,165,165,23986,36775,13587,35574,563,183,771,3316,28170,47182,23260,33946,29003,26072,420,174,17666,32693,10671,31233,18757,24463
4133,25213,498,162,159,156,154,155,254,166,157,156,157,153,158,151,837,6669,214,167,163,155,158,151,157,159,160,161,158,161,158,161,172,193,36254,39881,34999,39470,651,192,170,161,23997,36826,13608,35674,561,183,772,3325,28171,47209,23286,34008,29003,26083,424,170,17666,32706,10689,31319,18760,24468
4134,25221,506,166,161,158,154,155,255,163,158,157,155,153,152,154,839,6677,215,169,157,154,158,152,162,159,160,158,161,163,159,162,169,194,36241,39869,35019,39478,653,191,169,163,24004,36827,13603,35654,561,184,771,3327,28172,47198,23281,33995,28999,26074,416,170,17675,32701,10695,31309,18759,24467
4135,25213,499,164,158,159,155,154,251,163,155,156,154,156,159,154,841,6675,214,170,158,153,157,155,153,159,159,174,165,164,159,163,171,193,36234,39876,35009,39497,652,195,168,166,23997,36824,13602,35694,561,183,772,3325,28171,47191,23285,34025,28998,26085,419,167,17677,32698,10698,31345,18763,24471
4135,25261,505,163,157,157,155,154,253,164,157,153,151,154,155,153,840,6677,215,168,157,154,150,155,158,161,159,163,158,163,161,161,175,193,36285,39996,35046,39599,655,195,165,163,24003,36888,13639,35863,563,183,774,3337,28163,47223,23319,34114,29003,26109,418,169,17669,32706,10720,31468,18764,24487
4142,25334,504,164,157,156,156,155,253,170,159,151,155,155,155,150,838,6689,212,173,159,159,156,155,155,159,162,161,154,162,157,159,171,197,36363,40165,35105,39711,655,193,167,163,24039,36994,13674,36055,567,183,773,3354,28175,47287,23357,34215,29012,26141,419,169,17671,32718,10747,31612,18770,24501
4149,25412,505,166,158,156,156,154,252,165,158,156,158,158,159,158,839,6705,214,165,158,158,155,155,158,159,160,164,157,163,162,156,174,194,36443,40327,35157,39831,657,191,165,168,24082,37123,13719,36249,567,186,772,3369,28177,47342,23393,34319,29030,26171,417,170,17672,32743,10777,31756,18778,24515
4155,25489,504,161,160,157,154,155,253,169,157,154,158,154,154,151,838,6720,214,170,155,158,155,156,160,161,163,161,160,162,160,161,175,197,36527,40483,35213,39946,660,191,166,162,24133,37229,13751,36422,568,183,776,3381,28195,47406,23427,34419,29048,26211,418,174,17677,32763,10805,31899,18788,24535
4164,25563,508,163,158,155,157,157,252,166,155,154,156,154,155,152,844,6735,215,169,162,158,152,158,158,159,164,165,158,163,155,158,175,195,36592,40619,35264,40060,661,197,164,162,24163,37335,13786,36584,572,185,775,3396,28207,47475,23464,34521,29070,26243,418,169,17681,32790,10833,32028,18793,24554
4171,25635,506,164,160,155,154,156,253,172,157,157,159,155,154,151,842,6754,214,168,158,160,155,153,146,159,161,166,159,162,160,161,173,195,36660,40756,35315,40163,660,193,166,162,24198,37427,13815,36727,571,183,779,3410,28221,47540,23499,34618,29092,26285,419,178,17685,32809,10851,32151,18803,24574
4178,25712,513,162,158,156,155,153,255,164,159,157,150,153,154,156,844,6765,218,170,162,158,154,153,157,159,160,160,159,162,158,160,175,194,36731,40908,35375,40293,663,193,166,167,24239,37538,13846,36875,575,184,777,3424,28235,47601,23545,34737,29119,26325,418,170,17686,32839,10871,32282,18809,24595
4187,25796,509,163,157,156,156,155,252,167,154,160,155,155,151,154,841,6775,215,171,157,158,152,157,157,167,158,166,158,162,157,159,174,196,36815,41068,35421,40380,665,193,165,164,24270,37640,13875,36991,575,185,782,3441,28255,47689,23587,34823,29125,26329,426,171,17697,32869,10897,32390,18831,24605
4181,25607,511,163,157,156,157,154,253,164,159,151,158,151,157,154,847,6767,216,168,159,155,155,154,158,160,160,163,157,165,160,159,173,195,36611,40650,35323,40057,661,192,168,165,24216,37339,13819,36553,573,183,778,3397,28249,47559,23438,34430,29076,26193,419,171,17699,32790,10848,32021,18825,24563
4160,25361,500,165,159,159,155,154,252,166,156,162,157,156,154,151,845,6725,214,169,153,154,154,155,158,157,157,163,162,162,163,155,173,194,36307,40136,35165,39783,658,191,165,162,24099,37027,13706,36079,565,183,776,3338,28203,47337,23363,34251,29048,26156,421,173,17682,32702,10772,31664,18813,24552
4158,25359,505,163,157,156,158,156,256,167,156,158,156,153,154,154,843,6723,213,173,161,158,151,153,160,159,163,164,151,158,159,159,172,193,36239,40063,35129,39750,656,191,170,163,24064,36967,13680,35981,564,183,773,3337,28169,47268,23368,34253,29042,26153,417,169,17668,32660,10748,31586,18811,24542
4162,25386,502,165,161,155,157,155,253,166,158,153,159,155,154,151,846,6725,215,170,157,157,155,151,157,160,160,161,159,163,160,154,172,194,36228,40059,35118,39754,656,193,165,164,24057,36953,13679,36002,564,183,777,3343,28159,47231,23377,34279,29040,26156,417,169,17662,32631,10747,31586,18807,24544
4165,25425,507,163,157,157,156,158,252,163,156,153,152,158,157,154,847,6738,213,167,156,159,155,156,159,161,158,163,157,161,161,160,173,194,36241,40107,35123,39773,657,193,165,161,24051,36963,13693,36034,566,184,775,3349,28137,47215,23384,34291,29043,26160,417,171,17648,32604,10751,31597,18806,24543
4170,25405,502,161,158,155,156,155,256,166,154,155,153,154,158,155,850,6732,211,174,157,155,156,153,155,153,159,156,157,163,159,164,174,194,36190,40036,35120,39755,655,195,170,164,24033,36914,13688,35987,565,184,774,3346,28131,47175,23365,34262,29041,26153,419,169,17637,32570,10748,31570,18806,24533
4167,25395,505,162,158,157,153,155,253,169,153,158,155,154,157,155,847,6726,213,173,161,152,155,155,157,161,160,163,159,164,159,160,172,194,36173,40035,35110,39770,657,191,167,165,24010,36901,13696,36048,568,185,775,3345,28107,47140,23373,34285,29038,26159,419,168,17627,32543,10754,31619,18798,24544
4168,25441,502,162,157,155,155,157,252,170,157,156,155,155,154,154,845,6729,213,174,159,156,152,154,160,160,162,163,171,163,161,160,174,198,36217,40145,35132,39845,658,191,166,163,24005,36948,13719,36199,567,183,775,3355,28101,47165,23395,34351,29045,26185,419,170,17613,32521,10775,31727,18802,24548
4171,25499,507,162,157,157,154,155,253,166,155,156,155,153,150,156,845,6736,214,169,157,154,159,155,158,163,164,167,160,166,156,162,172,194,36268,40279,35167,39935,660,192,166,164,24017,37021,13757,36378,569,184,777,3370,28104,47198,23417,34433,29047,26211,418,174,17594,32509,10803,31872,18807,24559
4176,25563,504,166,157,155,157,159,253,166,160,159,156,151,157,154,845,6749,213,171,158,156,159,156,158,159,162,163,157,160,159,160,175,195,36338,40415,35195,40022,658,191,166,156,24051,37114,13790,36554,571,184,777,3384,28109,47245,23448,34518,29061,26239,419,170,17582,32498,10823,31999,18809,24575
4181,25625,509,162,156,158,156,153,257,162,160,159,159,157,155,154,848,6759,215,173,160,156,156,153,153,159,159,164,157,161,160,157,177,196,36407,40551,35234,40115,662,193,165,162,24076,37193,13819,36708,574,184,775,3401,28115,47306,23479,34596,29074,26271,418,170,17581,32507,10849,32129,18813,24587
4185,25668,507,165,157,155,157,154,251,170,156,159,155,153,155,156,848,6787,217,168,158,157,155,158,158,159,161,166,159,161,159,160,173,199,36475,40682,35267,40204,661,194,164,163,24097,37273,13843,36850,575,187,779,3409,28127,47360,23499,34667,29088,26302,420,173,17583,32528,10875,32255,18823,24609
4189,25719,511,162,157,160,155,154,253,162,157,155,154,153,154,155,850,6795,215,170,157,154,153,152,157,163,159,165,157,163,159,160,173,196,36533,40820,35300,40292,664,192,167,163,24109,37343,13873,36978,575,183,778,3424,28131,47414,23529,34751,29105,26339,419,172,17576,32538,10897,32369,18830,24622
4191,25770,511,162,157,156,155,153,255,166,160,151,155,155,155,157,850,6807,213,170,158,159,153,158,161,157,160,161,159,162,163,161,176,197,36605,40953,35346,40401,667,192,167,164,24137,37423,13901,37121,576,187,780,3438,28149,47479,23559,34849,29132,26382,419,175,17571,32547,10915,32502,18836,24642
4200,25857,513,164,157,154,159,156,254,166,153,155,159,154,154,153,849,6813,214,171,159,155,152,157,158,162,164,163,157,167,163,159,172,199,36682,41123,35394,40495,667,199,166,160,24151,37509,13925,37235,578,183,783,3454,28157,47559,23592,34939,29141,26392,419,172,17566,32566,10941,32617,18854,24660
4200,25711,508,160,159,160,154,163,255,165,159,155,159,157,155,158,853,6801,213,170,158,153,159,158,156,160,160,163,162,165,158,166,169,196,36527,40785,35322,40235,662,193,166,167,24109,37262,13875,36887,573,187,780,3419,28157,47447,23455,34577,29090,26247,422,167,17570,32491,10900,32317,18849,24607
4169,25394,506,163,154,157,158,158,256,163,157,161,153,150,154,154,850,6737,214,173,162,155,155,157,157,159,160,163,152,157,159,161,173,195,36187,40212,35135,39898,660,196,167,163,23975,36899,13771,36409,570,183,775,3347,28106,47190,23347,34319,29049,26187,418,170,17538,32364,10828,31938,18829,24589
4165,25363,500,163,157,159,153,155,254,166,155,154,151,157,155,156,848,6725,214,170,155,154,156,159,158,159,160,160,161,163,161,160,169,193,36103,40094,35084,39829,656,192,168,162,23923,36810,13730,36275,567,185,775,3346,28072,47104,23336,34298,29032,26177,419,170,17522,32308,10797,31826,18820,24569
4164,25349,505,161,154,160,158,155,250,163,154,157,158,155,155,151,846,6727,215,177,158,156,153,156,158,160,163,163,155,161,159,161,172,193,36083,40073,35055,39799,659,196,166,161,23895,36775,13730,36271,568,184,773,3346,28051,47066,23332,34283,29027,26178,418,170,17503,32264,10792,31805,18814,24565
4165,25378,502,163,158,156,149,156,253,171,156,156,155,155,158,155,846,6726,218,173,158,160,159,155,160,160,160,164,157,162,159,163,175,197,36089,40100,35044,39799,654,193,166,163,23877,36758,13729,36298,568,183,774,3353,28029,47033,23324,34283,29026,26172,418,173,17481,32219,10789,31823,18810,24560
4159,25336,507,162,156,157,156,153,251,167,157,160,157,155,157,157,847,6709,214,174,161,156,155,155,160,159,159,163,158,164,163,163,172,194,36019,40007,35012,39743,657,190,171,162,23851,36689,13722,36246,568,188,772,3347,28014,46979,23298,34217,29009,26151,418,170,17455,32151,10779,31778,18799,24549
4156,25301,500,165,155,157,159,157,251,164,156,155,154,154,155,154,843,6697,216,168,158,156,156,154,157,159,160,164,155,163,157,159,174,194,36000,39987,34980,39733,655,196,165,162,23818,36651,13711,36277,567,182,775,3344,27990,46932,23279,34215,28999,26153,418,171,17431,32094,10783,31800,18798,24548
4152,25330,504,163,157,160,158,161,251,165,156,155,154,156,152,154,844,6694,215,168,156,156,157,154,158,162,159,163,159,161,158,163,179,193,36020,40068,34984,39771,658,191,166,163,23802,36682,13733,36419,569,186,772,3354,27984,46947,23293,34273,28991,26174,416,173,17400,32063,10804,31912,18794,24551
4157,25386,504,169,159,156,155,156,253,165,158,157,155,158,154,158,843,6695,213,171,157,159,153,155,162,159,157,163,159,163,163,159,176,195,36063,40179,34991,39838,658,192,164,161,23798,36739,13761,36581,569,186,776,3369,27985,46989,23319,34345,28997,26199,418,170,17379,32043,10824,32051,18794,24559
4161,25447,506,165,160,158,156,156,251,165,155,156,154,155,156,157,844,6702,215,170,157,156,155,155,155,157,163,162,162,163,163,163,176,194,36122,40311,35006,39910,659,191,165,162,23815,36819,13789,36735,573,187,774,3383,27982,47026,23346,34424,29001,26229,418,169,17358,32028,10853,32193,18798,24570
4163,25496,504,164,160,156,158,153,253,163,152,154,158,155,157,155,845,6708,213,169,159,158,154,158,159,162,161,163,161,162,157,160,174,195,36183,40447,35021,39987,658,192,167,162,23844,36899,13815,36873,573,186,776,3394,27995,47095,23370,34508,29009,26258,419,171,17355,32037,10876,32317,18798,24582
4171,25567,511,165,157,159,154,157,252,166,159,151,157,154,157,154,842,6716,217,169,157,155,155,155,159,163,159,163,156,165,159,161,180,199,36239,40559,35039,40057,661,192,166,161,23869,36983,13839,36977,579,185,779,3409,28007,47157,23394,34576,29022,26285,419,173,17351,32060,10894,32430,18801,24597
4178,25619,507,162,159,157,157,156,254,164,153,155,155,153,155,151,845,6724,214,169,155,155,156,154,156,163,160,165,162,162,159,159,171,197,36301,40682,35070,40138,661,193,166,162,23890,37050,13859,37089,573,184,778,3417,28021,47219,23419,34648,29032,26320,421,175,17355,32083,10915,32533,18811,24607
4179,25687,511,166,156,159,156,156,254,165,155,156,154,155,155,153,841,6731,214,169,155,156,151,159,158,159,164,162,159,162,159,158,175,196,36379,40819,35099,40219,663,194,165,167,23907,37123,13875,37167,577,183,778,3432,28030,47287,23449,34733,29047,26329,417,169,17353,32103,10937,32653,18817,24619
4173,25508,503,161,157,155,156,166,252,166,157,155,154,155,157,158,843,6698,215,170,160,160,158,156,158,158,159,159,157,163,159,160,174,195,36232,40517,35028,39952,658,191,166,165,23867,36891,13825,36872,574,187,778,3397,28027,47183,23302,34366,28982,26178,420,169,17363,32024,10903,32370,18809,24572
4146,25227,503,160,159,156,154,154,251,163,153,155,157,158,151,155,841,6644,213,168,162,158,158,155,155,159,161,166,157,162,160,161,176,190,35972,40055,34847,39634,657,192,165,161,23756,36589,13742,36535,569,184,771,3334,27979,46965,23205,34141,28936,26116,417,162,17328,31907,10843,32075,18793,24539
4139,25202,499,163,160,158,153,156,253,165,157,155,156,153,154,158,840,6635,217,168,162,153,155,159,158,162,159,163,159,163,163,160,172,194,35933,39998,34776,39561,653,193,166,165,23718,36527,13712,36473,567,187,775,3336,27951,46891,23195,34129,28912,26109,417,167,17303,31847,10819,32011,18780,24527
4137,25211,506,165,154,159,158,152,250,167,158,151,152,155,153,157,841,6633,213,169,154,157,157,154,157,161,160,165,159,162,159,165,175,196,35939,40031,34749,39553,655,188,166,159,23699,36524,13712,36507,569,186,770,3340,27941,46882,23193,34133,28895,26107,418,172,17283,31811,10820,32025,18772,24525
4140,25249,501,164,158,160,155,157,252,166,156,157,155,155,153,153,840,6640,213,173,156,154,156,155,161,159,159,163,155,162,159,161,177,194,35973,40082,34723,39542,657,193,167,173,23696,36529,13716,36539,569,184,773,3345,27937,46883,23185,34125,28887,26098,418,170,17263,31783,10823,32037,18765,24515
4145,25211,501,163,160,157,157,148,252,163,160,157,155,151,153,158,840,6634,216,173,157,156,156,154,158,160,161,162,160,161,158,163,173,194,35904,39990,34668,39449,654,191,165,163,23675,36462,13717,36499,569,187,771,3336,27925,46833,23154,34063,28869,26079,416,170,17240,31721,10801,31957,18757,24499
4143,25216,500,163,160,159,157,155,248,165,156,156,155,155,152,149,839,6632,213,169,155,157,151,155,158,159,162,163,162,161,158,160,174,195,35886,39988,34625,39440,653,194,169,163,23662,36462,13725,36546,569,188,775,3335,27913,46819,23157,34095,28871,26091,417,169,17215,31678,10786,31953,18751,24505
4148,25269,502,163,159,159,154,160,252,169,158,156,153,147,154,156,842,6638,214,168,159,155,156,154,159,160,160,163,158,161,162,160,175,198,35929,40096,34636,39505,651,191,167,158,23664,36515,13748,36645,573,183,770,3347,27910,46848,23177,34155,28876,26112,417,172,17198,31674,10802,32035,18753,24509
4154,25335,502,167,157,157,158,155,253,167,154,157,154,157,157,147,840,6649,214,173,155,159,155,153,158,163,158,164,159,162,159,162,173,196,35985,40223,34639,39559,655,194,179,163,23679,36593,13773,36773,573,179,773,3360,27913,46899,23201,34240,28876,26143,419,173,17183,31673,10807,32119,18747,24519
4161,25403,507,163,158,157,158,158,251,170,158,155,173,150,154,155,841,6670,216,170,159,155,157,156,157,157,161,164,159,162,159,160,172,195,36046,40362,34653,39634,657,193,166,162,23716,36684,13806,36894,575,182,776,3374,27915,46949,23231,34325,28888,26171,417,169,17177,31678,10814,32203,18748,24529
4165,25455,506,165,157,157,158,158,251,166,159,156,155,150,154,154,841,6678,213,168,158,156,156,154,157,158,177,164,159,163,158,160,173,192,36127,40500,34697,39731,656,193,166,166,23750,36779,13824,37004,575,182,776,3387,27932,47023,23259,34421,28902,26206,419,167,17183,31715,10835,32315,18752,24542
4167,25514,508,167,157,157,155,157,250,165,156,155,151,151,158,150,845,6691,214,170,157,155,154,151,155,159,174,165,159,162,162,159,177,195,36189,40585,34714,39752,657,191,165,164,23764,36806,13837,37007,576,183,774,3396,27932,47051,23257,34396,28896,26158,418,171,17181,31726,10839,32325,18758,24525
4149,25215,499,165,158,159,156,152,253,165,156,157,155,158,151,154,843,6637,216,167,157,154,155,158,156,159,160,165,158,165,162,160,173,197,35940,40092,34575,39382,653,192,169,163,23693,36472,13762,36602,569,185,773,3335,27923,46880,23095,34007,28831,26032,421,171,17175,31608,10780,31949,18735,24471
4129,25065,501,166,157,159,156,156,250,165,153,156,154,155,157,154,841,6606,210,168,154,156,155,159,170,159,159,171,159,162,163,159,176,193,35751,39795,34464,39194,652,192,165,166,23612,36289,13693,36347,567,183,773,3303,27875,46713,23043,33883,28796,25990,416,169,17153,31530,10734,31735,18714,24442
4124,25035,498,173,160,157,157,158,250,164,157,153,158,154,156,155,837,6593,213,169,156,156,155,155,159,160,167,160,162,162,157,159,176,192,35740,39756,34426,39149,649,192,167,165,23592,36241,13672,36295,568,182,769,3305,27853,46674,23023,33846,28775,25975,417,168,17153,31508,10729,31697,18699,24425
4122,25034,501,162,158,157,158,158,252,165,155,155,154,154,147,153,837,6588,213,170,161,155,155,156,159,163,161,166,158,162,159,160,173,197,35741,39795,34397,39133,648,192,166,160,23587,36259,13670,36338,567,184,767,3309,27838,46663,23014,33849,28761,25974,415,173,17141,31482,10723,31715,18693,24417
4123,25054,501,161,158,157,155,154,251,165,158,159,155,154,153,158,837,6593,215,168,158,156,152,156,157,159,160,166,158,163,159,159,171,194,35746,39797,34380,39118,652,191,165,160,23591,36259,13673,36330,567,186,769,3311,27829,46649,22998,33822,28756,25959,417,169,17134,31469,10721,31688,18682,24402
4120,25024,500,165,157,155,158,156,250,164,159,155,154,159,149,157,839,6589,215,169,156,159,156,155,156,159,159,160,160,162,159,164,175,193,35706,39743,34348,39069,649,192,165,164,23583,36234,13666,36301,566,187,768,3304,27813,46609,22971,33785,28735,25947,417,168,17135,31454,10707,31646,18675,24394
4120,25045,497,163,157,161,154,157,250,168,155,156,155,158,154,158,837,6591,212,173,150,157,154,155,158,160,159,163,156,165,161,159,174,197,35730,39801,34347,39103,649,190,167,165,23592,36269,13674,36355,567,184,771,3310,27807,46617,22976,33819,28735,25966,414,174,17136,31463,10707,31678,18669,24394
4123,25102,502,164,159,155,159,158,251,166,155,157,155,170,154,154,843,6601,213,170,158,158,155,153,157,162,159,163,157,162,159,160,173,197,35786,39916,34365,39167,650,191,165,161,23604,36331,13697,36463,568,184,768,3325,27802,46668,22993,33879,28737,25984,418,171,17135,31470,10721,31746,18664,24400
4129,25167,501,164,158,155,157,155,253,166,158,155,155,153,157,145,840,6614,212,169,149,156,155,152,157,159,160,162,161,160,156,163,172,194,35853,40048,34385,39246,649,192,169,162,23616,36406,13714,36581,569,184,769,3339,27813,46719,23013,33959,28742,26015,417,170,17133,31495,10732,31840,18663,24404
4131,25223,504,164,157,155,154,156,253,167,154,157,155,166,155,154,838,6626,214,166,155,159,155,157,161,162,163,161,158,162,159,159,173,197,35923,40179,34409,39319,652,193,169,161,23627,36474,13731,36684,573,181,770,3353,27815,46777,23043,34036,28750,26037,414,172,17125,31505,10742,31934,18665,24421
4134,25265,501,159,161,158,157,154,252,164,154,155,159,162,159,139,839,6631,213,170,161,159,157,154,167,160,160,161,158,162,159,164,173,194,35993,40300,34446,39409,652,197,165,165,23651,36549,13752,36795,573,178,772,3362,27833,46851,23068,34116,28764,26074,417,169,17131,31539,10759,32047,18663,24425
4140,25334,505,165,157,156,157,154,254,169,159,155,149,155,154,153,839,6644,214,168,154,155,153,154,158,159,159,165,158,166,159,162,173,194,36070,40444,34475,39483,654,192,167,162,23689,36654,13767,36902,574,187,771,3374,27852,46932,23101,34201,28771,26086,415,170,17140,31577,10778,32155,18667,24430
4139,25228,498,163,157,157,158,157,250,169,158,155,156,154,143,155,841,6631,213,169,157,156,155,156,159,159,165,162,159,162,155,157,174,196,35969,40204,34426,39261,649,192,166,162,23686,36495,13735,36629,569,181,773,3351,27867,46891,22993,33891,28727,25950,417,170,17145,31537,10748,31893,18657,24378
4111,24954,499,163,158,155,157,154,250,166,152,155,151,158,154,151,842,6579,211,169,162,161,153,155,158,161,160,167,158,162,158,163,175,193,35700,39715,34259,38943,646,192,165,163,23582,36191,13647,36214,566,186,766,3286,27826,46676,22887,33641,28673,25873,416,172,17127,31442,10677,31539,18624,24332
4106,24899,492,166,157,156,155,158,251,169,160,158,155,155,155,157,836,6570,211,168,157,157,157,153,165,158,160,163,158,163,159,158,175,193,35628,39609,34231,38884,645,189,166,163,23545,36119,13599,36067,563,183,766,3280,27805,46613,22865,33591,28643,25844,415,173,17121,31414,10650,31420,18609,24312
4100,24863,496,165,162,156,155,154,251,165,159,158,155,159,155,151,838,6575,214,170,158,150,155,155,161,159,160,162,161,161,161,161,172,193,35600,39571,34182,38826,647,193,168,166,23526,36099,13586,36038,562,183,765,3280,27771,46551,22844,33558,28617,25824,413,171,17096,31367,10632,31359,18590,24292
4092,24838,497,161,159,156,156,153,251,166,158,155,158,155,152,156,840,6595,213,168,157,156,151,153,170,159,163,162,161,162,158,159,176,193,35611,39609,34147,38818,644,191,165,161,23526,36105,13595,36072,565,184,767,3287,27746,46529,22843,33567,28593,25807,414,169,17070,31331,10622,31350,18579,24270
4085,24780,497,165,157,155,157,155,249,164,160,155,155,159,153,156,845,6595,216,167,151,158,153,155,156,159,159,163,159,163,159,163,173,193,35575,39567,34135,38775,643,192,166,164,23523,36082,13583,36028,565,186,765,3284,27736,46506,22819,33522,28581,25791,413,171,17065,31325,10614,31314,18566,24253
4082,24768,493,170,157,155,156,155,252,163,156,156,155,152,157,153,842,6594,212,167,159,158,158,154,158,163,159,165,159,161,160,163,172,192,35581,39585,34120,38779,644,195,167,162,23511,36096,13584,36067,566,183,771,3285,27727,46501,22812,33533,28563,25787,414,171,17055,31320,10612,31317,18553,24244
4081,24809,496,163,159,157,157,156,250,165,153,154,156,159,153,158,842,6605,214,170,157,158,158,155,157,159,159,163,160,161,157,163,174,193,35635,39691,34135,38843,647,191,164,165,23526,36168,13604,36167,565,186,767,3297,27723,46544,22833,33593,28564,25806,413,170,17051,31333,10623,31393,18549,24245
4086,24866,494,162,159,159,155,154,251,167,160,152,159,158,154,154,843,6616,212,169,154,154,153,152,160,159,163,163,157,165,162,162,176,194,35689,39809,34174,38930,647,193,167,163,23555,36263,13632,36305,566,183,769,3308,27741,46607,22863,33671,28573,25839,414,171,17062,31370,10637,31497,18543,24256
4093,24943,499,165,157,157,153,153,249,165,155,155,155,154,157,157,842,6632,213,168,156,156,156,154,158,163,163,163,158,165,159,160,172,193,35763,39950,34212,39027,649,191,166,162,23590,36370,13657,36432,571,183,769,3321,27751,46670,22892,33757,28584,25867,413,173,17069,31421,10654,31597,18541,24262
4098,24993,497,165,157,156,157,156,255,165,163,159,151,154,156,151,842,6645,213,170,150,156,154,155,157,159,159,166,159,163,158,159,173,193,35826,40067,34261,39117,648,191,168,161,23628,36466,13679,36547,570,182,769,3335,27765,46739,22921,33838,28605,25894,419,169,17088,31472,10669,31691,18553,24274
4101,25046,502,163,159,156,156,157,249,167,157,155,155,155,158,154,844,6654,213,165,158,154,156,153,158,159,159,164,160,166,161,159,174,193,35890,40190,34302,39211,650,192,167,161,23647,36546,13699,36652,572,183,774,3345,27773,46804,22943,33907,28617,25926,415,167,17102,31517,10681,31775,18553,24288
4104,25112,501,162,158,155,155,153,251,169,158,156,154,151,153,156,844,6665,212,167,158,156,153,160,159,160,159,165,155,161,162,161,174,197,35971,40325,34351,39305,653,193,166,162,23695,36655,13716,36765,571,185,771,3355,27798,46888,22977,34008,28639,25952,418,173,17119,31570,10703,31888,18558,24299
4108,25060,501,164,156,157,155,156,251,166,156,153,158,159,151,157,849,6661,214,169,157,159,159,155,157,163,157,163,155,163,158,164,173,198,35908,40157,34331,39141,651,192,165,161,23703,36554,13694,36530,570,187,769,3346,27811,46883,22893,33749,28603,25831,418,169,17135,31559,10686,31681,18551,24248
4082,24776,494,160,158,158,158,155,250,163,158,151,157,157,155,152,844,6604,217,169,161,152,155,153,158,160,157,162,157,164,157,161,173,192,35643,39679,34175,38831,644,191,166,164,23603,36259,13593,36090,567,183,766,3277,27789,46694,22788,33495,28553,25761,415,167,17122,31490,10615,31336,18525,24209
4079,24739,497,161,159,156,158,155,250,165,159,157,155,155,154,157,843,6605,217,173,158,157,153,155,158,159,160,163,157,165,158,160,173,193,35577,39595,34132,38765,646,191,166,159,23568,36203,13558,35951,562,186,763,3271,27769,46648,22773,33469,28526,25737,413,169,17119,31478,10591,31224,18511,24185
4077,24737,491,164,159,156,156,157,253,164,157,158,156,155,152,155,844,6606,213,168,161,159,156,151,157,162,160,163,164,161,157,157,171,191,35575,39585,34123,38755,643,190,166,162,23570,36214,13546,35939,562,184,767,3274,27764,46638,22770,33466,28513,25731,413,170,17120,31483,10580,31204,18499,24179
4076,24764,495,164,158,155,155,157,251,165,155,155,156,153,158,154,843,6612,213,169,161,152,156,151,158,158,163,166,159,162,161,153,173,193,35611,39646,34130,38781,645,190,166,163,23582,36255,13557,35976,565,184,763,3281,27753,46655,22772,33471,28511,25727,415,171,17121,31503,10586,31231,18494,24169
4079,24745,493,166,160,155,158,158,250,165,154,156,158,151,154,155,843,6605,211,174,158,157,159,157,154,162,160,163,159,161,157,159,172,192,35590,39596,34135,38743,644,191,167,162,23593,36239,13551,35921,564,183,766,3272,27767,46657,22743,33423,28494,25699,415,171,17134,31515,10585,31193,18484,24151
4075,24739,496,165,158,155,155,158,253,153,155,156,153,157,158,153,842,6600,213,170,158,154,155,154,160,159,163,164,158,163,158,161,173,192,35584,39601,34125,38747,645,191,167,163,23585,36251,13544,35943,563,184,763,3269,27761,46645,22735,33419,28476,25703,413,169,17138,31534,10585,31205,18473,24147
4081,24782,491,163,159,156,155,154,251,165,159,156,157,155,153,153,844,6613,213,168,162,158,150,156,156,161,163,163,159,162,162,160,172,191,35641,39700,34145,38805,646,190,166,160,23605,36324,13560,36047,563,183,765,3283,27753,46679,22743,33465,28473,25714,414,164,17152,31567,10598,31286,18472,24148
4081,24841,497,163,161,158,154,155,252,163,156,156,155,158,151,157,843,6617,212,172,157,157,157,154,157,163,157,163,163,161,182,163,173,192,35699,39811,34174,38876,648,191,166,160,23631,36416,13585,36183,566,183,764,3293,27763,46738,22763,33521,28477,25727,411,173,17157,31608,10626,31401,18475,24156
4085,24893,494,165,158,159,155,153,252,165,160,153,155,158,151,157,843,6631,214,169,158,157,153,159,158,159,160,161,158,163,157,159,173,192,35782,39931,34211,38955,646,191,169,166,23659,36505,13607,36307,567,186,765,3303,27769,46791,22782,33585,28483,25750,417,180,17169,31649,10639,31510,18477,24167
4090,24949,498,162,158,156,156,157,251,165,157,155,159,153,154,156,845,6643,213,169,154,157,153,155,156,159,159,165,157,157,159,164,174,193,35843,40051,34242,39030,648,191,164,164,23683,36593,13632,36425,569,186,764,3313,27777,46847,22806,33654,28491,25772,417,169,17180,31700,10663,31607,18477,24179
4095,25013,495,163,161,155,156,156,251,166,156,156,158,151,158,151,845,6660,215,169,160,157,156,156,160,157,160,162,157,161,158,152,173,193,35926,40189,34274,39101,647,191,166,165,23718,36689,13660,36548,570,184,769,3327,27790,46916,22831,33738,28497,25794,412,168,17191,31738,10666,31685,18483,24190
4104,25005,500,166,157,156,158,153,250,168,157,156,156,154,154,155,846,6674,216,170,161,158,158,155,159,157,159,162,158,162,158,160,172,193,35890,40084,34268,38979,650,192,165,163,23748,36650,13653,36377,567,183,768,3319,27800,46911,22777,33558,28487,25709,413,170,17200,31740,10656,31520,18481,24147
4085,24763,492,163,158,159,155,151,251,157,156,156,156,159,149,158,847,6626,212,173,155,157,151,159,157,160,160,163,162,166,159,160,171,191,35644,39629,34117,38687,644,190,167,165,23671,36373,13561,35936,563,186,763,3258,27780,46738,22682,33321,28437,25633,417,167,17203,31679,10584,31157,18455,24114
4082,24757,495,160,156,155,155,155,253,166,156,155,159,157,151,157,847,6626,214,169,161,159,160,154,156,163,162,165,153,162,156,163,174,192,35578,39546,34081,38631,644,191,165,162,23645,36329,13531,35807,562,186,761,3253,27759,46694,22667,33303,28417,25618,413,172,17205,31683,10555,31035,18452,24090
4085,24787,492,161,158,157,156,155,252,167,161,156,154,151,157,153,849,6633,213,173,155,154,157,153,154,159,163,163,158,161,159,161,172,192,35585,39574,34083,38642,642,191,166,163,23651,36352,13529,35819,563,182,763,3257,27751,46691,22666,33311,28413,25617,412,170,17207,31695,10549,31023,18437,24089
4091,24838,496,165,159,156,154,152,250,170,154,155,157,159,150,154,848,6651,213,169,158,157,159,154,157,159,163,165,157,160,156,156,171,195,35628,39653,34105,38672,645,191,167,161,23667,36405,13549,35873,563,183,761,3266,27747,46705,22672,33331,28407,25611,413,169,17204,31713,10549,31035,18433,24077
4093,24825,494,163,158,155,156,155,251,164,158,155,155,151,155,157,848,6651,212,169,159,156,155,155,157,163,157,163,167,160,160,159,173,193,35603,39609,34098,38644,643,190,166,163,23683,36401,13547,35825,562,185,762,3260,27747,46693,22655,33284,28395,25593,414,173,17212,31720,10534,30979,18423,24071
4095,24845,496,164,157,157,155,154,252,170,156,155,158,155,157,154,852,6661,214,168,160,155,154,153,159,157,163,162,158,164,161,158,172,192,35602,39624,34093,38663,643,191,167,162,23693,36435,13555,35855,563,183,761,3261,27732,46693,22660,33307,28392,25599,413,167,17214,31734,10525,30968,18415,24059
4101,24911,494,163,160,156,154,155,255,165,159,155,159,154,156,154,852,6679,213,170,157,156,160,152,158,159,164,157,156,161,159,161,173,192,35655,39736,34145,38755,643,191,168,162,23724,36521,13581,35961,564,183,763,3271,27728,46733,22681,33370,28399,25617,413,169,17224,31769,10535,31026,18411,24069
4108,24979,499,163,157,157,158,154,250,166,153,159,154,155,154,159,851,6695,214,170,156,156,157,155,157,159,158,162,159,163,156,159,171,190,35716,39851,34196,38851,646,190,166,165,23754,36623,13607,36091,564,183,763,3284,27727,46780,22702,33437,28413,25643,412,171,17233,31803,10549,31111,18414,24075
4108,25023,495,166,157,156,155,157,247,165,156,159,153,151,154,158,854,6706,213,169,154,155,155,155,157,158,159,163,160,161,163,159,172,193,35772,39964,34250,38939,646,191,167,163,23781,36711,13632,36226,566,185,765,3295,27733,46827,22721,33508,28422,25671,413,170,17245,31861,10573,31211,18420,24090
4111,25085,501,163,159,153,158,154,251,166,152,157,152,153,154,148,856,6727,214,170,160,153,155,156,158,159,152,163,159,166,162,162,174,193,35831,40091,34280,39035,648,192,167,164,23806,36803,13667,36375,568,185,764,3306,27727,46873,22755,33598,28436,25703,412,170,17247,31880,10580,31310,18425,24104
4114,25121,499,163,158,159,157,160,251,168,153,155,156,159,159,152,856,6747,213,168,161,158,157,152,160,159,159,160,158,164,153,160,175,197,35866,40132,34318,39030,647,191,166,162,23841,36839,13679,36347,569,182,766,3317,27728,46905,22749,33559,28436,25652,413,173,17242,31887,10580,31270,18426,24069
4103,24869,497,163,160,159,159,156,251,169,159,151,156,154,154,153,853,6697,217,167,157,155,157,152,157,159,156,162,160,155,158,160,171,192,35583,39613,34192,38701,645,190,166,162,23764,36517,13586,35785,561,183,764,3257,27726,46751,22618,33240,28385,25547,416,167,17243,31815,10510,30825,18399,24023
4095,24797,495,163,160,158,155,152,252,167,157,155,157,156,158,154,854,6680,213,173,157,153,159,154,157,159,158,164,162,165,157,161,171,188,35461,39419,34125,38588,641,194,168,162,23724,36404,13525,35543,559,183,759,3234,27693,46651,22589,33167,28354,25514,414,169,17247,31802,10462,30637,18382,23994
4094,24804,497,163,159,157,155,159,251,165,155,155,155,159,150,152,853,6681,213,167,157,158,158,156,158,159,160,165,154,163,158,160,172,191,35448,39393,34120,38568,642,190,167,166,23720,36395,13512,35503,559,183,757,3236,27674,46627,22573,33143,28343,25499,410,169,17258,31812,10456,30606,18373,23983
4095,24822,494,163,160,157,155,154,250,165,154,155,159,152,154,154,853,6681,215,165,158,153,155,153,161,163,159,163,159,162,162,160,174,191,35462,39435,34123,38585,642,194,166,162,23729,36425,13522,35564,558,183,760,3238,27669,46622,22577,33163,28331,25491,411,174,17259,31820,10460,30635,18365,23971
4097,24838,499,163,156,156,155,145,252,165,160,156,154,152,151,156,855,6685,218,171,155,158,159,155,157,159,160,163,159,162,157,160,174,188,35457,39419,34127,38577,641,190,166,166,23738,36432,13521,35539,559,183,759,3239,27656,46603,22569,33143,28319,25480,410,170,17263,31821,10456,30606,18361,23953
4101,24835,493,160,161,160,155,156,251,163,155,155,155,155,153,154,856,6688,214,169,158,155,151,154,158,163,160,163,158,163,161,163,173,192,35433,39388,34140,38596,648,191,169,163,23751,36443,13532,35547,559,183,759,3238,27649,46591,22564,33132,28322,25484,413,173,17267,31833,10456,30609,18348,23949
4098,24863,497,163,156,160,159,149,254,163,159,153,159,155,153,157,855,6693,214,168,157,156,157,155,159,160,159,163,156,160,159,160,173,191,35468,39483,34152,38635,643,189,168,161,23756,36488,13545,35640,560,183,759,3245,27635,46587,22567,33169,28307,25477,410,169,17275,31850,10466,30653,18347,23953
4104,24925,499,162,151,156,153,157,251,173,160,155,152,155,155,157,859,6709,213,169,156,160,158,155,157,161,161,163,161,162,159,158,172,191,35565,39620,34188,38723,640,190,171,162,23773,36545,13578,35862,563,183,762,3257,27623,46612,22578,33220,28305,25498,410,173,17282,31894,10487,30777,18344,23963
4110,24987,498,162,159,156,156,157,253,163,159,156,156,152,153,154,856,6715,215,170,158,153,151,156,161,161,159,163,159,162,159,160,172,191,35608,39721,34253,38826,645,189,168,161,23742,36566,13718,36241,565,183,759,3268,27635,46679,22598,33279,28318,25526,410,170,17441,32175,10525,30885,18343,23971
4117,25052,497,162,157,155,156,154,254,163,156,155,154,157,153,155,858,6723,213,173,155,160,155,159,157,162,160,163,161,162,159,160,172,193,35683,39852,34288,38907,647,190,164,161,23783,36677,13727,36344,566,183,763,3280,27643,46726,22626,33364,28331,25555,416,168,17465,32205,10541,30999,18353,23981
4123,25127,502,164,159,157,156,156,253,166,156,153,155,153,158,153,857,6737,213,167,157,154,154,157,169,163,162,163,161,162,162,157,173,193,35764,39987,34325,38985,647,193,165,163,23832,36794,13714,36363,569,182,762,3292,27642,46781,22656,33438,28342,25558,411,172,17413,32152,10550,31086,18359,23987
4119,24983,496,165,157,155,157,157,251,165,151,159,153,153,154,158,859,6715,214,172,157,156,155,156,159,169,159,166,161,162,161,159,173,191,35606,39627,34263,38700,644,189,166,166,23827,36580,13621,35821,562,184,761,3259,27655,46687,22537,33120,28299,25433,412,167,17388,32039,10501,30713,18348,23932
4101,24808,497,162,159,155,155,157,251,163,160,157,157,155,157,153,857,6674,216,171,159,157,154,152,159,159,154,163,157,165,158,161,173,191,35376,39227,34149,38490,640,189,168,162,23749,36355,13513,35391,559,183,756,3214,27618,46512,22481,32972,28258,25381,412,169,17359,31949,10429,30410,18321,23894
4099,24793,492,163,159,157,154,156,252,165,155,155,154,155,157,154,854,6670,215,171,157,156,158,155,160,159,160,164,155,162,159,163,175,193,35337,39165,34119,38444,639,193,166,162,23729,36306,13484,35307,557,183,757,3210,27599,46465,22475,32945,28238,25355,412,170,17346,31912,10411,30356,18303,23866
4103,24793,496,163,161,156,155,158,251,167,152,158,155,154,153,153,856,6667,214,172,157,157,158,154,157,160,151,163,161,162,158,159,173,190,35318,39138,34115,38434,643,188,165,165,23721,36300,13479,35326,556,184,755,3212,27579,46421,22469,32933,28221,25345,408,171,17334,31887,10413,30372,18295,23866
4105,24823,495,164,159,157,155,155,251,169,159,156,156,155,158,157,858,6678,212,169,156,155,157,159,157,159,160,163,162,162,159,160,170,194,35343,39183,34116,38444,638,191,165,162,23730,36312,13487,35331,557,184,757,3215,27561,46389,22463,32932,28216,25334,411,170,17321,31879,10410,30360,18291,23846
4101,24808,495,163,160,157,157,149,251,165,155,155,154,151,157,152,859,6675,215,170,157,157,150,159,172,159,161,162,162,162,159,159,174,190,35308,39129,34110,38417,640,194,167,162,23731,36297,13489,35308,557,183,756,3210,27549,46355,22454,32903,28205,25320,410,169,17315,31863,10402,30317,18283,23839
4103,24827,492,163,159,156,155,156,255,166,154,155,155,153,154,158,857,6677,210,168,158,157,155,155,161,158,159,162,158,160,162,159,175,191,35325,39172,34124,38461,639,191,166,165,23735,36319,13492,35361,556,184,757,3217,27529,46335,22462,32931,28207,25334,409,168,17319,31867,10406,30374,18279,23842
4106,24876,497,163,161,156,158,161,255,166,153,152,155,153,153,153,856,6681,214,169,157,159,153,158,159,160,164,163,160,161,159,159,171,191,35370,39268,34153,38533,638,191,165,165,23758,36399,13521,35498,559,181,754,3227,27527,46364,22490,33005,28222,25362,410,170,17314,31880,10423,30462,18281,23853
4111,24938,492,165,157,153,153,155,252,164,155,159,153,154,151,148,858,6697,214,171,156,157,156,154,158,162,160,165,160,163,159,163,173,191,35433,39391,34212,38643,639,193,163,162,23779,36485,13551,35644,559,183,759,3238,27535,46417,22521,33083,28243,25390,411,172,17316,31905,10447,30575,18287,23863
4119,24993,503,165,159,159,156,152,252,168,156,156,154,161,158,151,858,6713,214,169,159,155,155,158,157,159,158,162,159,163,160,160,172,194,35507,39519,34257,38727,641,193,168,161,23795,36557,13578,35767,563,183,757,3250,27530,46444,22540,33145,28250,25417,408,170,17321,31926,10459,30670,18292,23883
4119,25045,496,163,156,154,155,154,251,165,159,156,160,151,155,178,859,6717,214,169,161,156,154,156,161,160,164,164,159,160,161,159,176,191,35561,39613,34302,38809,644,191,167,162,23824,36646,13601,35912,562,185,758,3258,27551,46512,22577,33226,28280,25456,411,169,17324,31951,10481,30774,18304,23897
4129,25111,504,164,157,156,156,154,251,169,156,155,159,158,154,155,857,6727,215,171,156,152,151,155,157,158,159,162,159,163,159,163,172,191,35606,39731,34341,38892,646,191,165,163,23856,36733,13632,36047,566,185,759,3271,27562,46580,22615,33317,28301,25481,409,168,17315,31965,10500,30885,18318,23911
4130,25030,496,163,161,156,158,155,252,163,160,158,158,152,150,157,860,6711,213,170,157,156,155,157,160,163,165,165,161,161,157,159,173,193,35483,39442,34323,38693,643,191,168,157,23839,36547,13584,35609,562,184,760,3250,27572,46517,22526,33055,28285,25385,411,172,17323,31926,10458,30543,18308,23868
4111,24830,497,164,161,158,158,157,253,165,155,152,159,156,154,155,857,6662,214,167,157,156,154,151,160,159,164,162,162,160,159,160,172,191,35215,38989,34188,38443,641,189,168,162,23740,36271,13478,35168,555,183,753,3199,27537,46329,22460,32903,28257,25339,410,170,17312,31846,10381,30209,18292,23837
4110,24821,492,161,160,156,154,155,251,166,157,154,157,152,151,157,855,6658,213,169,159,155,155,158,158,159,159,160,160,162,162,160,171,190,35177,38927,34179,38417,641,190,165,163,23722,36215,13463,35092,554,184,756,3198,27525,46281,22471,32899,28250,25329,410,170,17310,31823,10369,30170,18285,23820
4112,24822,496,166,157,156,158,155,253,165,157,155,153,153,155,154,856,6657,216,165,154,159,151,156,162,158,159,164,158,162,160,163,169,190,35183,38925,34185,38428,640,190,167,161,23711,36188,13453,35091,555,184,754,3194,27499,46239,22469,32898,28249,25327,410,170,17304,31809,10370,30177,18280,23819
4110,24842,495,165,158,156,157,152,249,164,159,158,154,153,155,155,855,6654,213,169,157,155,155,158,157,162,159,165,157,160,158,161,173,189,35205,38962,34203,38447,638,189,164,162,23712,36201,13460,35106,557,184,757,3202,27497,46232,22473,32904,28253,25331,410,172,17304,31810,10375,30191,18281,23815
4112,24819,497,165,157,156,156,156,252,165,152,155,153,153,155,154,858,6651,214,167,155,154,155,158,158,163,161,163,158,165,162,157,174,196,35172,38903,34194,38422,640,194,165,160,23697,36153,13452,35062,558,182,754,3197,27483,46206,22476,32882,28252,25325,412,173,17297,31783,10370,30165,18279,23807
4106,24814,493,163,157,156,157,155,251,165,156,156,150,154,157,150,854,6652,213,168,156,156,155,153,158,159,160,164,158,163,158,159,173,190,35175,38930,34179,38437,638,190,166,160,23693,36156,13462,35128,556,182,753,3201,27470,46191,22491,32927,28254,25343,410,169,17274,31752,10374,30209,18279,23810
4106,24853,497,165,162,157,158,155,251,165,159,157,155,151,157,152,856,6658,214,168,156,156,155,157,159,159,159,161,162,162,159,160,172,189,35218,39031,34226,38525,640,191,165,161,23695,36215,13490,35255,556,183,755,3212,27465,46227,22525,32998,28276,25373,409,170,17263,31758,10394,30322,18281,23828
4113,24902,495,164,160,155,155,153,251,165,156,156,156,151,154,153,856,6662,215,169,157,156,152,157,156,158,161,163,162,160,161,159,171,191,35283,39145,34277,38618,643,190,167,164,23721,36288,13522,35399,556,184,758,3223,27482,46277,22557,33070,28294,25400,410,169,17277,31789,10421,30429,18291,23840
4117,24956,499,163,160,158,156,158,251,169,155,154,155,156,155,154,857,6671,214,165,158,157,159,156,156,159,163,162,161,161,157,160,175,193,35345,39255,34324,38699,644,191,165,157,23735,36359,13545,35519,560,183,756,3233,27484,46325,22590,33146,28320,25435,410,167,17279,31813,10438,30518,18302,23863
4122,25000,499,163,158,154,158,157,250,163,159,154,154,152,154,156,852,6676,212,168,164,155,155,155,157,162,159,164,157,159,160,157,171,192,35395,39363,34369,38794,643,189,165,162,23758,36443,13579,35655,559,183,758,3241,27500,46385,22624,33225,28341,25475,411,170,17281,31835,10458,30623,18314,23887
4123,25051,501,166,157,156,157,153,254,164,157,157,155,152,154,155,855,6684,213,168,154,154,162,154,161,160,162,164,158,166,159,160,170,191,35467,39489,34409,38866,645,191,168,163,23786,36514,13595,35731,561,183,757,3253,27497,46422,22651,33295,28364,25490,410,170,17278,31853,10472,30699,18331,23895
4122,24921,494,164,158,155,154,154,252,165,157,155,155,155,158,155,858,6659,215,168,157,160,158,154,154,161,160,164,157,162,159,164,170,191,35291,39119,34354,38602,641,192,167,161,23751,36262,13520,35199,556,182,758,3223,27513,46329,22551,33023,28345,25404,415,170,17290,31796,10401,30279,18329,23860
4109,24790,495,162,159,159,158,154,250,165,156,154,159,155,154,155,854,6627,212,168,161,157,154,154,158,163,161,163,157,160,159,157,169,190,35099,38793,34265,38449,639,193,166,162,23674,36047,13445,34915,551,183,755,3189,27479,46203,22522,32932,28330,25393,411,172,17271,31737,10355,30104,18319,23844
4106,24787,492,163,157,156,153,158,255,166,157,152,149,154,157,157,855,6623,215,170,157,156,159,156,158,160,159,161,158,159,159,160,172,190,35107,38788,34262,38451,639,190,169,160,23660,36018,13435,34895,553,185,755,3193,27471,46183,22537,32955,28338,25399,412,169,17271,31724,10360,30107,18317,23847
4106,24798,496,163,159,157,158,156,251,167,143,155,153,153,153,155,854,6624,214,176,157,160,151,153,161,161,162,163,159,162,158,166,171,193,35129,38835,34275,38481,641,189,169,162,23653,36022,13444,34955,553,181,753,3195,27462,46181,22555,32991,28353,25422,408,171,17263,31713,10374,30164,18319,23854
4107,24818,492,162,160,159,155,154,252,166,156,158,159,157,152,157,853,6623,215,167,156,155,152,158,159,159,160,162,159,164,159,160,175,190,35134,38839,34301,38489,642,189,166,162,23659,36017,13449,34929,551,185,755,3200,27463,46187,22561,32988,28362,25416,409,169,17268,31707,10374,30152,18329,23859
4108,24801,497,165,158,159,155,156,251,165,157,156,151,156,158,150,852,6618,214,168,157,153,154,157,157,163,161,164,158,162,162,158,171,190,35105,38803,34284,38473,639,190,166,162,23637,35977,13439,34903,554,181,755,3195,27452,46156,22562,32983,28364,25428,411,172,17257,31686,10370,30139,18330,23862
4103,24815,495,162,158,155,155,154,252,166,159,156,153,150,152,154,852,6614,213,172,157,157,154,148,160,159,159,163,155,161,159,164,175,189,35135,38868,34295,38517,639,193,166,165,23631,36002,13455,34999,552,183,756,3201,27453,46175,22583,33043,28373,25455,410,167,17243,31678,10382,30207,18337,23876
4108,24863,497,165,159,158,158,157,251,168,157,154,158,155,154,153,852,6619,213,167,158,152,157,156,159,160,160,163,157,164,159,160,172,193,35195,38997,34334,38607,641,191,166,162,23642,36055,13492,35153,557,178,755,3215,27460,46225,22619,33124,28396,25485,413,169,17230,31685,10404,30319,18347,23897
4112,24922,497,165,158,158,155,156,251,165,158,159,154,156,154,154,851,6630,211,170,157,167,153,154,158,157,160,164,157,164,161,154,172,191,35276,39133,34383,38706,644,187,165,164,23660,36140,13524,35303,555,182,758,3225,27470,46279,22657,33205,28419,25521,410,170,17234,31709,10421,30432,18361,23917
4119,24975,499,163,157,159,155,155,246,167,156,156,154,156,155,153,854,6642,215,169,157,157,155,158,165,159,159,167,159,161,159,157,172,190,35351,39271,34430,38791,643,194,166,163,23685,36229,13552,35434,559,183,757,3238,27479,46326,22691,33289,28435,25561,409,168,17238,31729,10440,30528,18372,23943
4123,25041,496,165,158,155,155,155,251,167,157,157,154,155,151,153,853,6651,214,169,159,160,155,153,159,160,163,164,156,161,160,161,174,194,35435,39427,34485,38891,644,191,166,162,23718,36327,13580,35570,557,182,760,3249,27490,46387,22727,33386,28461,25597,411,172,17238,31754,10457,30629,18387,23967
4129,25029,500,166,158,155,157,156,251,166,153,155,153,153,154,155,855,6659,215,168,157,158,153,153,158,161,160,162,159,161,158,160,171,193,35387,39279,34490,38763,643,189,166,159,23719,36214,13546,35207,555,183,760,3247,27501,46374,22675,33207,28479,25544,409,171,17255,31745,10421,30347,18409,23965
4110,24812,493,165,158,155,155,155,251,166,157,157,155,152,154,155,853,6603,215,167,151,157,155,154,160,161,160,164,157,159,162,160,173,192,35116,38786,34349,38491,640,191,166,164,23624,35902,13427,34730,549,182,756,3195,27485,46203,22601,33027,28470,25523,419,173,17246,31670,10351,30048,18404,23948
4105,24773,495,164,156,157,157,155,252,164,158,155,155,152,154,158,852,6588,215,167,156,154,152,155,157,159,161,165,159,162,159,163,172,190,35071,38718,34309,38447,639,190,165,162,23586,35817,13398,34646,550,185,754,3190,27473,46168,22617,33026,28473,25527,409,170,17232,31638,10348,30017,18405,23948
4102,24768,492,166,158,156,155,153,252,166,153,159,155,151,153,157,853,6585,213,167,156,155,155,158,158,159,156,167,158,160,162,160,171,190,35071,38708,34310,38443,638,190,165,161,23573,35781,13390,34634,549,184,758,3193,27469,46149,22622,33034,28478,25537,411,170,17228,31622,10351,30034,18408,23958
4102,24785,497,163,156,156,154,152,252,165,155,155,158,151,156,155,851,6589,217,166,161,153,148,153,162,159,160,163,157,161,158,160,172,190,35103,38774,34310,38466,639,191,169,161,23562,35796,13403,34662,549,181,755,3197,27467,46163,22645,33072,28493,25553,410,170,17217,31607,10360,30064,18418,23961
4103,24774,493,164,161,158,159,154,251,165,161,155,158,157,155,154,851,6584,213,165,161,153,155,153,159,156,162,165,159,163,159,162,173,190,35085,38741,34309,38443,637,192,165,165,23551,35755,13397,34624,547,183,757,3200,27475,46149,22642,33056,28499,25563,412,168,17216,31585,10352,30043,18425,23967
4105,24780,497,163,161,156,154,155,251,166,161,156,155,155,157,159,850,6582,213,170,157,157,151,155,157,159,159,163,159,164,159,162,171,190,35097,38778,34304,38469,639,189,165,170,23545,35763,13406,34682,552,185,753,3199,27475,46164,22660,33092,28511,25583,411,169,17202,31575,10360,30086,18427,23983
4107,24818,493,166,161,156,156,153,251,164,157,155,159,153,154,154,850,6585,215,167,161,156,157,158,156,157,161,166,157,161,160,161,171,192,35159,38908,34337,38553,640,190,165,161,23562,35825,13438,34826,551,184,756,3208,27474,46201,22689,33172,28525,25620,415,172,17196,31582,10375,30178,18435,24004
4111,24875,497,165,157,160,158,155,254,168,154,157,155,155,154,154,851,6597,212,169,154,153,152,152,162,159,163,162,158,162,159,159,171,193,35231,39047,34391,38648,640,189,169,162,23573,35906,13472,34983,552,181,756,3224,27488,46255,22722,33258,28552,25657,410,171,17195,31601,10401,30297,18446,24031
4116,24927,494,163,157,157,155,154,251,167,155,159,151,155,152,153,851,6613,213,172,156,157,166,151,157,159,159,163,163,162,159,162,172,190,35310,39195,34443,38755,643,192,165,162,23603,35993,13502,35129,554,183,759,3235,27509,46315,22749,33347,28571,25697,411,169,17202,31631,10422,30412,18462,24055
4123,24982,501,165,157,157,155,156,253,163,160,157,153,157,158,152,853,6621,219,169,155,158,154,158,158,159,160,161,159,162,163,159,172,192,35379,39329,34487,38849,645,193,164,162,23627,36092,13531,35260,557,183,760,3248,27525,46387,22790,33424,28598,25735,409,167,17205,31661,10441,30521,18477,24079
4124,25039,499,163,157,157,155,153,252,165,157,154,154,152,154,158,854,6632,213,171,158,153,152,155,161,159,157,164,157,161,159,161,171,192,35450,39466,34537,38937,647,191,165,163,23667,36186,13556,35395,556,185,763,3259,27542,46463,22822,33514,28623,25774,410,170,17212,31693,10465,30625,18491,24110
4128,25099,502,166,158,157,156,153,251,167,152,151,159,155,155,154,853,6643,212,167,158,156,153,153,159,162,160,163,158,165,155,159,172,196,35517,39593,34587,39046,645,191,168,160,23699,36286,13589,35531,559,181,762,3273,27561,46539,22866,33611,28657,25822,408,174,17221,31726,10487,30739,18508,24138
4135,25163,501,163,158,156,155,155,252,165,160,155,155,155,158,152,853,6650,212,166,160,156,157,157,159,156,161,163,158,163,159,161,175,191,35597,39751,34683,39199,647,190,166,165,23752,36424,13632,35729,562,185,763,3282,27603,46638,22919,33735,28693,25871,414,172,17244,31795,10519,30910,18535,24183
4141,25237,505,162,159,157,156,155,251,166,156,160,155,150,158,154,854,6669,214,171,158,153,155,155,155,162,158,163,161,159,159,161,176,193,35673,39825,34711,39183,649,191,164,161,23769,36451,13622,35646,560,183,763,3297,27617,46693,22907,33667,28718,25853,412,173,17254,31828,10530,30879,18563,24193
4127,24959,495,163,157,156,156,153,251,166,156,153,155,155,157,156,855,6615,213,169,158,160,156,157,157,159,161,159,158,166,158,157,172,191,35350,39188,34541,38776,643,189,167,160,23669,36047,13489,34903,552,185,762,3235,27631,46537,22783,33337,28714,25809,414,164,17276,31759,10428,30347,18565,24183
4117,24866,500,162,160,156,156,157,253,169,156,159,155,155,155,155,852,6589,214,171,156,155,154,150,155,155,159,162,162,154,162,160,171,191,35176,38944,34465,38648,641,190,169,162,23599,35878,13421,34675,552,183,758,3213,27623,46473,22776,33293,28720,25819,411,167,17268,31715,10405,30236,18565,24185
4117,24861,497,162,158,157,156,155,251,170,157,151,155,155,153,154,853,6586,213,169,158,155,152,150,161,158,159,162,159,157,157,155,175,192,35180,38917,34433,38609,640,191,166,162,23582,35814,13401,34594,548,181,762,3214,27615,46444,22777,33275,28726,25821,416,169,17263,31685,10399,30207,18570,24189
4118,24844,499,165,157,156,155,154,251,163,156,159,155,152,158,158,849,6577,213,169,157,158,155,153,158,159,159,172,159,162,161,162,171,190,35169,38928,34430,38619,641,190,163,161,23567,35807,13404,34627,551,185,759,3214,27623,46460,22796,33305,28735,25837,415,170,17257,31688,10416,30258,18577,24198
4117,24849,492,162,156,155,156,155,255,163,157,156,153,151,152,154,852,6580,213,171,157,156,153,154,157,163,160,163,158,159,159,163,172,190,35191,38943,34434,38613,642,194,167,162,23563,35793,13398,34594,547,183,761,3217,27635,46457,22793,33293,28745,25841,417,171,17263,31689,10422,30258,18585,24211
4117,24833,498,162,158,159,155,154,252,166,156,152,158,155,158,150,851,6575,213,169,157,157,155,159,158,159,159,163,157,162,160,171,170,191,35183,38935,34422,38603,640,193,165,166,23547,35769,13398,34596,549,183,761,3215,27630,46453,22791,33294,28751,25851,414,169,17262,31682,10428,30282,18587,24219
4113,24848,491,162,157,157,154,155,253,165,156,156,154,155,159,154,850,6573,212,170,155,157,157,154,160,157,159,163,175,162,159,163,175,190,35215,39019,34430,38651,640,191,165,165,23552,35814,13433,34736,551,183,761,3223,27643,46487,22813,33352,28761,25879,413,168,17268,31689,10444,30371,18596,24233
4117,24895,500,162,157,156,155,155,251,163,161,154,158,154,153,152,851,6585,216,169,160,157,155,158,154,160,159,160,158,165,160,159,171,191,35281,39162,34455,38739,645,194,165,161,23561,35884,13475,34899,551,183,761,3233,27645,46533,22843,33422,28777,25909,413,169,17260,31707,10469,30499,18605,24253
4119,24944,499,164,161,159,155,155,251,167,159,154,158,157,153,154,853,6592,212,169,161,157,154,155,159,163,163,163,157,166,162,163,171,191,35354,39302,34508,38836,645,193,166,160,23587,35985,13511,35066,553,183,767,3247,27659,46589,22875,33500,28796,25935,413,174,17274,31742,10496,30636,18621,24278
4126,24998,499,167,158,159,156,155,252,165,159,158,151,156,158,157,852,6603,213,170,159,156,155,155,157,161,159,161,158,160,162,159,171,191,35434,39444,34545,38923,646,189,165,163,23625,36093,13540,35212,557,185,762,3260,27670,46653,22902,33572,28811,25968,409,169,17282,31775,10522,30746,18636,24293
4129,25047,495,162,161,155,158,157,255,166,156,157,159,155,155,151,851,6613,213,171,161,159,155,154,157,160,162,162,159,162,159,160,172,194,35503,39575,34585,39012,645,190,167,162,23661,36199,13571,35356,556,183,765,3269,27693,46726,22929,33652,28831,26007,418,174,17298,31814,10546,30859,18646,24321
4131,25101,502,162,158,154,155,154,252,169,155,153,156,155,157,153,854,6628,213,167,158,153,155,155,155,157,158,163,159,163,162,163,174,193,35573,39713,34626,39108,647,191,165,161,23699,36299,13602,35511,561,184,763,3282,27717,46796,22967,33738,28851,26041,418,167,17300,31853,10569,30987,18657,24342
4136,25159,499,163,162,157,154,155,253,170,156,155,158,155,157,157,853,6639,213,169,159,156,158,156,155,158,160,163,158,163,159,159,171,192,35659,39874,34691,39227,648,192,166,163,23733,36407,13640,35693,561,187,765,3296,27737,46887,23005,33842,28869,26075,419,167,17314,31887,10598,31118,18675,24369
4141,25227,504,163,160,153,155,154,253,167,159,155,158,158,155,154,855,6663,215,167,158,160,156,155,160,159,159,164,156,158,166,161,172,191,35747,40045,34751,39351,653,194,168,162,23765,36531,13672,35851,563,184,766,3311,27763,46977,23044,33935,28896,26118,415,168,17324,31941,10626,31246,18687,24398
4143,25276,497,166,159,159,156,154,253,165,156,157,154,160,157,154,857,6691,215,166,159,158,159,154,157,160,160,160,159,173,160,163,172,193,35846,40215,34823,39475,651,195,167,161,23813,36654,13707,36018,565,184,768,3327,27792,47069,23085,34049,28919,26155,416,165,17345,31997,10648,31389,18699,24421
4144,25311,505,166,161,157,153,154,252,163,155,156,157,157,156,150,856,6701,214,169,157,156,156,155,157,159,159,164,157,163,159,159,171,194,35953,40407,34863,39557,654,197,165,162,23851,36771,13739,36139,567,185,769,3343,27816,47161,23131,34133,28933,26174,415,169,17360,32046,10673,31483,18723,24447
4144,25174,498,163,160,154,159,158,251,165,154,155,156,151,155,154,861,6698,214,170,161,156,155,155,158,159,160,153,157,159,169,161,171,193,35781,40009,34772,39227,648,191,163,160,23804,36477,13652,35551,558,182,771,3309,27835,47077,22985,33746,28922,26089,416,170,17375,31997,10607,31033,18737,24431
4126,24962,498,163,157,156,154,155,251,169,156,156,156,154,157,158,858,6649,214,168,158,154,155,155,158,158,164,165,150,166,159,161,171,191,35500,39519,34607,38946,646,190,166,162,23693,36187,13519,35001,555,183,767,3255,27812,46932,22919,33581,28914,26066,417,167,17377,31954,10517,30648,18727,24429
4122,24934,493,163,155,157,157,154,255,168,156,156,155,155,158,157,857,6643,213,171,159,159,156,158,157,159,159,162,158,163,159,160,171,195,35483,39493,34573,38913,646,189,169,155,23673,36138,13492,34925,553,186,765,3254,27813,46929,22926,33579,28911,26071,418,169,17379,31951,10507,30615,18732,24432
4123,24939,498,163,160,159,151,157,252,166,154,158,154,155,158,153,859,6645,212,171,158,156,156,156,159,159,162,163,156,161,161,159,173,190,35479,39484,34569,38903,646,191,167,166,23666,36127,13486,34900,553,183,764,3256,27815,46931,22930,33573,28917,26075,414,170,17383,31953,10511,30620,18737,24436
4123,24961,496,166,163,157,154,155,251,165,157,159,157,155,154,153,855,6651,213,168,160,160,153,154,162,162,165,167,158,161,161,163,175,190,35510,39534,34580,38920,651,193,167,163,23671,36147,13494,34910,552,182,765,3264,27818,46942,22937,33582,28926,26083,416,170,17393,31970,10518,30639,18739,24441
4127,24960,499,167,157,159,160,153,252,165,160,156,155,157,153,154,854,6649,217,169,162,157,155,155,158,160,160,165,157,160,159,159,171,191,35482,39495,34561,38881,645,189,166,162,23672,36127,13493,34873,552,183,767,3257,27822,46939,22923,33546,28930,26083,416,170,17397,31972,10514,30598,18743,24443
4124,24969,495,163,159,149,155,159,251,169,157,155,155,153,154,154,855,6649,213,169,161,156,154,154,161,159,160,163,158,161,162,161,174,190,35490,39533,34567,38913,647,191,166,162,23675,36150,13498,34926,551,183,766,3260,27827,46957,22936,33575,28938,26098,416,170,17399,31973,10523,30655,18743,24454
4127,25007,501,164,156,157,157,151,252,169,157,155,159,154,155,154,855,6647,214,169,157,152,153,154,158,158,158,165,156,162,160,163,172,193,35539,39639,34607,38997,646,191,164,162,23683,36217,13530,35072,553,184,767,3272,27841,47010,22951,33629,28944,26116,411,167,17414,32016,10561,30798,18748,24463
4133,25070,497,163,160,156,155,156,253,166,155,157,158,155,153,151,855,6651,214,170,160,157,155,155,157,159,160,163,159,162,163,161,173,191,35619,39775,34638,39071,648,190,167,159,23715,36316,13564,35251,555,182,767,3282,27856,47071,22975,33689,28950,26145,418,169,17418,32036,10584,30927,18756,24471
4138,25134,501,165,157,157,157,155,253,167,155,156,158,155,154,157,857,6658,214,170,159,160,153,155,158,158,163,168,155,163,160,163,175,193,35676,39899,34663,39144,649,190,166,163,23749,36424,13598,35408,558,185,767,3295,27875,47133,22992,33754,28961,26161,417,167,17421,32058,10610,31045,18762,24490
4143,25188,498,164,157,157,159,158,254,169,159,155,155,155,155,156,855,6667,214,169,157,154,155,159,164,159,165,163,157,162,157,161,170,196,35747,40028,34694,39219,648,191,165,160,23785,36520,13626,35550,558,186,769,3303,27886,47186,23014,33821,28970,26185,419,170,17432,32085,10629,31153,18769,24501
4149,25241,505,162,157,155,155,153,257,163,157,157,153,151,157,155,854,6677,214,174,159,155,155,155,159,160,159,157,158,163,161,161,167,192,35812,40143,34730,39303,650,187,166,163,23815,36611,13648,35671,561,185,768,3311,27902,47254,23043,33881,28982,26207,416,170,17437,32131,10649,31245,18779,24514
4155,25299,501,164,157,156,158,154,255,163,155,155,155,156,153,156,857,6684,214,169,158,158,155,158,157,160,162,164,158,162,158,160,173,194,35885,40279,34770,39393,650,192,169,163,23850,36714,13682,35828,561,186,769,3323,27919,47318,23074,33964,28983,26227,419,168,17458,32171,10667,31359,18787,24535
4161,25380,506,165,152,156,158,158,253,167,155,156,159,154,151,154,855,6695,215,168,158,159,157,156,157,162,160,163,157,162,158,159,173,195,35973,40448,34810,39486,655,193,164,161,23882,36825,13717,35984,564,183,771,3340,27927,47384,23113,34059,28993,26247,415,174,17462,32212,10695,31482,18798,24551
4164,25305,499,166,160,156,158,158,253,169,156,158,158,155,156,155,862,6691,215,167,157,156,156,155,154,158,160,167,160,162,158,158,172,193,35868,40202,34784,39283,649,190,165,163,23865,36639,13672,35588,561,183,774,3319,27953,47349,23006,33775,28987,26173,417,171,17478,32196,10658,31185,18799,24533
4148,25085,502,165,165,155,156,158,252,164,156,156,155,156,153,154,856,6649,213,170,158,160,155,159,157,160,159,164,161,162,162,157,171,191,35616,39765,34643,39030,646,191,166,161,23775,36383,13566,35129,556,181,769,3267,27931,47213,22937,33611,28965,26143,417,177,17477,32140,10581,30845,18794,24520
4141,25076,498,162,157,161,157,158,254,166,156,155,158,157,150,152,853,6643,213,170,160,154,155,155,160,159,160,163,158,165,158,161,175,191,35609,39749,34615,39001,650,194,165,161,23757,36362,13542,35084,555,183,767,3269,27923,47200,22942,33601,28951,26135,416,170,17484,32141,10575,30835,18791,24514
4143,25084,501,162,161,160,158,154,253,167,153,152,155,153,154,158,857,6649,213,167,157,155,154,154,157,156,159,162,162,162,159,162,172,196,35615,39778,34602,39009,646,189,163,162,23755,36377,13549,35153,555,185,767,3274,27913,47193,22938,33620,28947,26137,415,172,17482,32139,10582,30882,18790,24516
4142,25110,498,164,153,153,157,154,255,165,159,155,154,155,157,155,857,6659,212,170,157,157,154,157,157,157,160,164,156,162,159,161,172,192,35650,39851,34619,39035,648,193,169,165,23764,36410,13567,35198,558,186,768,3283,27905,47203,22942,33628,28945,26135,421,167,17476,32140,10594,30919,18790,24517
4142,25095,502,165,159,155,151,161,253,166,157,155,156,155,157,155,855,6659,213,169,157,155,154,154,158,159,158,165,159,165,162,160,172,192,35627,39813,34603,39007,647,189,165,165,23764,36393,13565,35160,557,184,767,3276,27909,47191,22931,33588,28932,26125,422,170,17473,32140,10587,30878,18785,24509
4142,25106,499,164,157,154,159,157,253,164,158,154,157,155,159,156,855,6658,212,167,155,155,156,155,161,163,163,165,160,162,160,158,175,192,35647,39855,34606,39035,647,191,166,161,23766,36427,13571,35235,555,183,767,3279,27902,47208,22929,33613,28925,26126,415,174,17483,32153,10596,30935,18785,24516
4145,25158,501,165,160,155,154,157,252,166,155,156,155,154,151,155,854,6665,214,168,158,155,159,151,157,157,160,164,161,164,158,161,170,191,35711,39988,34635,39111,650,191,166,165,23793,36519,13604,35393,557,183,771,3291,27901,47241,22948,33676,28925,26147,421,170,17491,32179,10618,31044,18787,24523
4149,25225,499,162,157,158,154,154,252,163,154,155,153,169,151,153,855,6674,213,177,159,152,155,153,158,163,160,163,158,163,163,163,172,192,35793,40129,34672,39198,651,194,165,162,23839,36641,13642,35569,557,186,776,3304,27916,47298,22972,33742,28924,26164,418,173,17498,32213,10639,31163,18786,24530
4158,25288,504,163,162,157,159,157,251,165,160,155,155,151,153,155,858,6690,215,169,158,155,157,158,157,159,159,166,162,163,157,159,174,192,35869,40272,34704,39286,652,193,166,162,23879,36754,13677,35735,562,183,763,3318,27918,47354,23000,33817,28928,26180,416,169,17505,32244,10661,31280,18791,24543
4163,25350,502,163,157,157,155,155,258,169,155,155,156,146,154,153,856,6701,214,173,159,156,154,152,157,160,159,163,158,162,162,163,172,197,35938,40398,34744,39371,655,194,169,162,23916,36856,13703,35882,562,179,767,3328,27932,47406,23026,33885,28932,26193,420,170,17514,32279,10679,31382,18795,24549
4169,25403,506,163,158,160,157,155,253,169,159,155,155,155,155,157,859,6715,216,169,157,155,152,154,148,158,161,165,159,162,159,160,174,193,36001,40529,34786,39449,654,191,165,162,23947,36947,13734,36027,568,183,770,3341,27942,47467,23053,33967,28937,26215,421,168,17518,32315,10701,31485,18801,24559
4173,25475,505,165,159,156,159,155,251,165,157,161,156,157,155,152,857,6726,212,170,158,160,154,155,161,159,159,173,157,162,159,160,175,193,36091,40671,34825,39545,653,191,166,163,23977,37037,13764,36173,565,183,770,3353,27950,47531,23090,34053,28940,26235,417,171,17521,32339,10716,31599,18807,24572
4175,25383,506,163,159,157,159,157,253,165,155,157,157,151,150,153,860,6713,213,172,157,154,155,154,161,158,162,163,158,162,159,160,172,194,35957,40406,34787,39331,652,191,169,163,23951,36849,13719,35772,562,183,772,3328,27962,47481,22984,33763,28927,26145,418,170,17533,32310,10688,31300,18802,24542
4154,25160,499,166,161,159,155,155,253,165,159,159,157,158,154,151,858,6667,212,169,161,156,153,152,157,160,161,167,158,166,161,159,171,192,35701,39935,34647,39059,648,191,169,165,23862,36572,13612,35286,555,184,767,3273,27938,47318,22911,33578,28891,26098,419,167,17531,32258,10598,30919,18789,24516
4149,25129,501,162,156,157,155,156,255,169,155,153,153,155,150,155,855,6663,210,167,157,157,151,155,161,159,163,167,158,159,159,161,172,193,35665,39885,34619,39023,649,191,170,162,23837,36534,13583,35205,556,183,766,3274,27919,47283,22916,33570,28871,26081,415,163,17532,32252,10585,30863,18781,24507
4149,25135,497,165,160,156,155,155,254,165,157,158,157,154,152,157,856,6664,213,167,157,155,155,151,159,163,163,165,160,162,159,160,174,194,35655,39885,34611,39024,647,191,165,161,23841,36538,13580,35216,555,182,769,3273,27913,47273,22906,33563,28867,26076,417,173,17535,32249,10583,30871,18771,24503
4150,25171,502,166,161,156,155,156,254,167,156,156,155,156,158,154,856,6671,214,169,159,155,155,151,161,157,161,163,161,166,159,160,172,185,35679,39942,34625,39055,649,191,169,162,23845,36567,13590,35256,559,182,765,3282,27900,47275,22912,33569,28853,26068,413,172,17534,32265,10592,30902,18766,24497
4151,25147,498,163,158,159,155,155,253,163,155,154,156,158,155,141,858,6668,215,169,159,158,154,152,158,163,160,162,157,165,163,159,172,191,35668,39909,34615,39018,647,191,165,162,23851,36551,13592,35228,556,183,769,3279,27896,47249,22893,33531,28841,26053,415,175,17542,32258,10582,30856,18764,24485
4151,25152,504,164,158,155,156,157,253,169,160,151,151,156,152,154,859,6665,217,169,161,156,152,157,158,161,161,162,159,166,157,158,174,194,35664,39929,34613,39039,649,191,167,161,23849,36569,13599,35279,557,179,762,3281,27885,47252,22894,33555,28829,26053,417,171,17539,32263,10591,30899,18756,24485
4155,25205,499,162,159,159,156,153,255,166,156,154,154,159,159,157,858,6675,217,169,157,156,155,158,157,159,160,163,155,165,157,161,173,193,35726,40045,34637,39111,648,191,169,162,23865,36642,13620,35418,561,186,767,3290,27875,47276,22911,33615,28827,26064,417,171,17537,32269,10604,30985,18754,24485
4159,25260,502,164,159,156,155,155,253,165,155,154,154,155,156,153,857,6683,211,169,161,155,149,155,157,158,163,162,157,166,163,160,170,191,35794,40179,34675,39203,650,193,165,162,23899,36753,13659,35593,558,183,764,3305,27876,47317,22937,33692,28819,26077,415,169,17533,32291,10627,31114,18754,24492
4164,25314,499,162,157,157,154,155,256,166,159,158,145,150,159,152,859,6689,213,170,157,156,155,152,157,162,163,162,159,163,162,160,165,196,35875,40318,34727,39309,652,191,169,162,23945,36869,13691,35767,560,179,769,3318,27883,47364,22964,33770,28821,26099,417,173,17541,32333,10654,31235,18755,24499
4167,25379,505,162,157,160,156,155,253,165,155,158,159,155,158,153,857,6700,214,171,157,160,155,155,161,162,160,162,155,161,159,164,173,193,35941,40442,34785,39415,653,191,169,163,23974,36971,13725,35916,566,185,767,3330,27893,47427,22991,33841,28827,26121,415,171,17556,32374,10676,31350,18756,24508
4174,25431,503,165,158,156,156,155,255,165,160,159,155,150,151,150,859,6710,214,173,158,159,154,149,155,163,161,164,159,163,159,160,170,194,36003,40559,34831,39501,653,191,167,162,24013,37057,13748,36055,565,181,774,3339,27907,47483,23009,33911,28831,26142,421,174,17564,32405,10688,31447,18759,24520
4176,25491,508,162,161,157,155,159,253,166,154,157,154,157,152,143,857,6723,213,173,159,155,159,155,160,162,165,163,162,161,157,161,172,197,36075,40694,34881,39597,656,192,167,160,24041,37158,13781,36215,567,183,770,3354,27919,47553,23045,34011,28841,26178,416,172,17568,32444,10711,31553,18762,24534
4184,25559,503,163,158,157,155,153,251,163,157,153,155,155,154,153,858,6739,217,166,158,151,151,157,159,162,161,164,158,162,161,163,171,194,36125,40749,34927,39611,655,193,165,162,24078,37197,13787,36163,565,183,769,3362,27923,47589,23036,33959,28850,26127,419,172,17581,32468,10719,31540,18768,24522
4167,25255,506,163,158,156,157,154,252,163,156,159,157,154,154,151,862,6687,214,171,157,156,157,151,159,160,159,162,158,165,156,160,173,195,35825,40181,34761,39223,651,192,167,161,23975,36805,13677,35507,559,185,768,3295,27923,47431,22903,33620,28803,26026,423,170,17582,32386,10629,31015,18753,24479
4158,25164,496,162,156,158,156,155,252,165,156,156,155,155,153,153,857,6668,219,172,158,157,154,149,156,157,159,164,158,162,163,159,171,193,35674,39937,34693,39101,649,192,165,165,23919,36661,13597,35228,555,183,767,3276,27904,47344,22879,33559,28777,26004,418,169,17581,32358,10574,30819,18735,24462
4155,25165,503,162,159,159,157,154,251,165,154,156,158,155,154,157,858,6671,214,171,158,155,152,159,156,159,160,162,157,160,159,162,176,192,35665,39910,34679,39080,648,190,166,163,23905,36635,13587,35187,556,183,765,3276,27886,47311,22872,33541,28761,25986,416,169,17578,32348,10573,30783,18725,24446
4156,25167,502,164,155,159,159,153,253,163,162,155,151,158,155,155,857,6667,215,169,156,159,155,158,169,163,163,159,159,164,159,161,171,192,35667,39930,34677,39087,648,191,166,164,23905,36640,13585,35222,556,185,767,3277,27879,47301,22866,33551,28753,25981,416,169,17575,32348,10577,30819,18719,24441
4160,25182,504,162,157,160,154,156,252,166,159,157,157,155,157,157,857,6669,217,173,161,156,155,156,158,158,160,163,157,162,162,160,172,192,35670,39929,34678,39081,648,191,165,165,23903,36629,13594,35212,557,183,766,3281,27869,47295,22859,33529,28741,25961,415,169,17575,32339,10575,30790,18705,24423
4159,25167,499,164,160,157,156,154,253,169,157,153,159,155,153,154,858,6669,214,169,160,156,155,154,157,159,161,163,158,161,160,162,173,196,35652,39904,34675,39074,648,193,165,162,23898,36610,13588,35197,555,183,766,3277,27861,47267,22844,33517,28723,25957,413,171,17574,32328,10565,30773,18698,24413
4157,25185,502,166,160,157,156,155,251,163,156,156,155,154,158,155,859,6671,212,169,157,158,155,151,157,160,161,166,159,162,162,159,175,192,35679,39971,34682,39127,650,190,164,164,23900,36650,13599,35300,559,183,765,3284,27848,47282,22855,33564,28721,25967,413,169,17565,32330,10582,30848,18691,24413
4160,25244,499,162,158,155,154,155,253,167,156,153,155,155,154,152,857,6682,213,169,157,157,151,150,158,159,166,162,164,162,158,160,173,190,35744,40102,34723,39207,650,190,165,159,23925,36735,13622,35457,558,182,769,3299,27850,47322,22876,33633,28721,25987,417,169,17565,32347,10600,30958,18684,24418
4168,25308,506,163,157,159,153,158,252,165,156,155,153,155,154,154,858,6696,214,169,156,157,153,157,161,159,159,163,159,162,159,159,171,192,35811,40245,34752,39295,651,191,170,159,23964,36841,13661,35621,561,183,766,3311,27844,47367,22899,33701,28725,25997,414,169,17563,32369,10615,31059,18689,24430
4174,25371,503,164,157,156,153,155,251,165,157,155,152,151,154,158,858,6708,213,169,155,156,158,158,158,159,164,163,159,160,159,160,171,191,35881,40363,34802,39391,651,191,164,156,24003,36951,13692,35757,561,186,769,3324,27855,47417,22926,33782,28737,26023,416,169,17570,32404,10635,31166,18684,24433
4178,25425,506,166,159,157,156,157,255,167,159,156,154,156,155,153,860,6719,214,169,157,155,152,158,162,163,161,164,158,162,159,166,171,193,35943,40483,34851,39487,654,191,169,161,24040,37037,13716,35897,564,182,767,3332,27855,47463,22949,33862,28743,26047,415,174,17578,32436,10658,31264,18687,24441
4181,25479,502,163,156,155,155,155,253,167,155,156,151,151,157,151,861,6730,213,173,156,156,159,160,157,161,158,163,160,160,158,159,172,197,36004,40601,34893,39574,654,190,164,161,24069,37125,13746,36035,565,184,772,3343,27871,47519,22974,33935,28756,26069,415,174,17581,32464,10672,31361,18693,24455
4188,25541,509,163,159,159,156,159,256,166,154,157,155,158,152,153,861,6746,213,169,162,156,158,158,160,162,163,163,159,160,151,159,171,197,36068,40729,34945,39681,658,191,166,155,24093,37217,13781,36195,567,182,770,3357,27875,47589,23007,34036,28780,26111,416,171,17587,32490,10692,31466,18699,24470
4192,25610,507,163,158,158,157,153,256,163,158,155,157,158,157,154,865,6761,218,170,155,156,153,154,157,162,160,163,162,163,156,164,171,192,36147,40857,35001,39778,657,194,169,162,24129,37306,13806,36281,570,183,771,3370,27893,47659,23036,34103,28790,26105,418,170,17590,32517,10710,31557,18708,24471
4183,25393,507,162,157,157,156,155,252,165,161,155,157,151,152,154,867,6734,218,169,157,157,159,151,157,163,160,165,157,163,157,160,175,193,35906,40393,34914,39447,655,191,166,166,24059,36967,13719,35671,561,184,769,3320,27904,47538,22896,33747,28755,25998,417,169,17598,32458,10636,31056,18695,24430
4164,25201,499,167,157,159,158,154,253,163,157,159,155,155,154,154,863,6706,215,169,157,157,150,152,158,162,161,166,157,159,160,155,173,191,35697,40033,34817,39271,650,193,164,161,23977,36754,13617,35293,556,183,767,3282,27876,47421,22851,33649,28734,25968,417,173,17599,32416,10571,30797,18675,24403
4153,25157,502,164,160,158,158,157,252,166,157,156,156,154,154,153,861,6703,211,170,153,156,154,155,157,162,164,166,159,157,159,160,174,196,35685,40015,34804,39257,649,191,164,160,23955,36714,13599,35251,556,183,766,3289,27859,47395,22850,33645,28725,25957,411,172,17593,32403,10567,30779,18667,24394
4149,25122,499,163,155,159,153,158,252,166,157,155,151,159,157,155,861,6693,213,169,156,158,159,154,157,158,158,163,160,159,159,157,171,192,35675,40011,34811,39271,650,190,165,166,23951,36712,13599,35291,558,182,769,3288,27857,47390,22853,33659,28725,25958,416,167,17593,32391,10579,30809,18661,24387
4153,25156,503,167,157,158,155,154,253,163,156,156,159,158,158,154,859,6700,214,174,158,156,156,151,157,159,157,162,157,155,159,159,171,192,35677,40025,34829,39289,650,190,166,164,23957,36713,13611,35291,559,183,767,3295,27848,47395,22847,33658,28715,25946,417,169,17591,32390,10582,30806,18653,24375
4149,25112,497,162,158,157,155,152,254,163,156,155,154,153,155,155,861,6689,215,170,157,155,157,158,167,158,160,163,158,158,154,160,172,193,35661,39975,34828,39274,649,190,167,161,23945,36667,13597,35246,556,183,767,3286,27844,47364,22827,33623,28711,25931,419,173,17593,32377,10578,30778,18645,24360
4147,25123,502,163,161,158,158,154,253,163,156,159,154,158,154,155,860,6690,213,171,157,155,155,155,158,160,160,162,159,161,159,160,171,191,35661,40003,34836,39295,650,191,165,168,23929,36673,13605,35315,557,183,767,3289,27839,47365,22833,33652,28705,25939,414,169,17586,32367,10586,30823,18638,24357
4146,25151,500,163,157,156,155,157,251,164,157,157,155,156,153,157,859,6692,213,172,157,160,154,155,160,163,159,163,158,163,162,157,175,193,35707,40111,34851,39362,651,189,166,162,23949,36735,13626,35454,559,183,768,3300,27828,47387,22847,33708,28705,25949,417,173,17573,32358,10601,30927,18634,24363
4151,25185,503,167,157,155,157,158,253,168,155,156,154,154,153,154,859,6700,215,169,155,155,157,158,157,159,163,165,151,164,158,159,173,191,35759,40227,34890,39446,652,191,165,163,23973,36817,13665,35626,560,183,767,3315,27822,47412,22871,33774,28701,25967,415,168,17557,32356,10625,31050,18632,24363
