 ECG Channel 
2328.89531
2338.394801
2364.881619
2395.257639
2482.474146
2601.474834
2723.828283
2798.013723
2734.780638
2628.319279
2600.312543
2683.326922
2676.531992
2401.404369
2104.684961
2133.652822
2300.352132
2416.603555
2438.709431
2423.510244
2405.025352
2391.435491
2405.740607
2432.29448
2459.518905
2467.476126
2471.477088
2487.123309
2478.853164
2475.589809
2479.680178
2489.269076
2502.076626
2516.113522
2546.221321
2557.017214
2562.828668
2566.896685
2583.906363
2597.809148
2598.09972
2584.085176
2597.809148
2637.774067
2668.105384
2677.873096
2695.128643
2722.64364
2752.572626
2775.907847
2796.69497
2836.056392
2885.766671
2934.381716
2961.561437
3003.873289
3053.360051
3082.774947
3108.702971
3147.930282
3198.065245
3215.052571
3211.409236
3220.260527
3203.206146
3168.449184
3121.242299
3058.188028
2978.749928
2891.019331
2806.6862
2725.772885
2648.860532
2583.526383
2545.68488
2513.051333
2482.965885
2458.1778
2446.040803
2438.418858
2418.749323
2408.869852
2397.738683
2399.102139
2399.549174
2419.665744
2422.347954
2401.426721
2393.022465
2392.798947
2409.495701
2412.692
2405.740607
2403.416026
2396.79991
2392.150747
2398.319828
2405.047703
2389.490889
2389.401482
2405.405331
2413.161387
2420.649221
2418.168177
2422.102084
2411.440302
2424.180797
2430.796913
2428.360573
2420.492759
2414.74836
2430.394582
2435.043744
2421.766808
2427.4218
2430.796913
2429.969898
2434.976689
2455.22737
2462.223466
2447.918349
2460.390623
2453.036899
0
2542.823856
2564.348586
2580.374787
2582.162926
2583.168755
2593.562316
2599.843156
2598.032665
2603.86647
2617.813959
2629.213349
2638.668136
2642.311471
2646.804171
2662.718613
2669.558247
2671.145221
2679.393015
2694.525146
2705.611611
2722.241309
2737.37344
2754.494876
2772.711548
2792.671656
2809.77074
2832.994203
2863.683148
2891.555773
2913.371076
2941.914253
2977.788803
3019.877138
3050.051993
3088.720511
3117.911889
3149.114925
3185.503565
3213.309135
3248.334318
3271.490725
3285.594676
3285.035883
3275.536391
3258.772583
3221.333411
3167.3763
3108.099473
3036.104505
2956.442887
2883.5762
2808.563746
2738.759248
2681.89641
2640.523331
2611.466063
2583.884011
2557.017214
2536.788885
2522.394362
2522.170844
2518.639269
2512.201966
2505.116463
2499.95321
2496.958077
2499.215603
2496.846318
2491.146623
2486.765681
2488.173841
2487.413882
2488.240896
2489.380835
2487.212716
2490.677236
2495.773434
2498.679161
2492.688893
2484.776376
2483.971713
2487.793861
2490.364312
2495.706379
2504.669428
2507.284583
2500.422597
2502.993048
2505.384684
2506.882251
2505.764664
2507.239879
2505.831719
2503.6636
2507.798673
2512.716056
2510.078551
2508.178652
2508.670391
2505.339981
2497.628629
2499.595582
2502.590716
2503.194213
2502.098978
2503.261269
2507.575155
2510.436178
2509.586812
2501.204908
2494.387626
2495.639324
2490.118443
2487.749158
2489.917277
2493.426501
2488.889097
2481.043635
2485.804556
2483.949361
2479.948399
2481.982408
2481.378911
2482.541201
2485.513983
2484.508155
2481.311855
2488.352655
2492.1301
2493.091225
2487.346826
2479.903696
2476.059196
2472.415861
2469.353672
2474.136946
2470.538315
2473.17582
2473.667559
2477.355597
2476.081547
2472.706434
2472.773489
2473.779318
2474.606332
2476.595637
2478.450832
2483.92701
2484.038768
2476.617989
2472.929951
2468.012568
2475.880382
2474.494573
2473.756966
2475.299236
2473.376986
2476.953265
2474.181649
2468.884286
2472.259399
2474.271056
2473.645207
2478.137908
2486.340998
2481.982408
2474.427518
2480.5966
2485.402225
2488.866745
2481.2448
2474.226352
2492.7783
2517.029943
2517.745199
2505.295277
2504.334152
2514.414789
2520.516815
2513.476016
2499.796748
2487.056254
2471.655902
2462.469335
2459.362442
2455.406184
2458.960111
2453.685099
2446.241968
2454.690928
2458.736594
2451.38287
2444.520884
2451.964015
2457.551951
2454.109782
2452.634567
2453.349823
2454.355652
2450.824076
2450.935835
2466.179724
2493.918239
2517.566385
2589.248429
2704.941059
2797.901964
2860.933883
2798.818385
2680.957637
2636.142389
2715.33462
2748.549312
2567.947217
2281.129632
2263.427051
2411.66382
2535.581891
2571.635255
2553.083307
2535.246615
2533.614937
2549.372917
2573.691615
2583.682845
2582.34174
2582.833479
2597.183299
2608.537985
2609.320296
2611.667229
2620.13854
2627.224043
2634.577767
2644.948977
2649.262863
2663.255055
2671.90518
2678.767166
2689.630114
2705.477501
2718.910899
2735.182969
2745.196551
2758.585245
2772.778603
2792.33638
2816.453912
2852.954311
2883.240924
2907.671381
2937.935643
2968.490478
2998.084187
3033.645813
3074.527153
3109.373523
3144.644576
3174.975893
3196.813547
3227.949527
3262.058289
3272.161278
3268.85322
3260.158391
3239.930062
3199.853384
3134.742753
3068.089851
2992.384492
2908.207823
2825.484017
2756.797106
2698.660219
2645.328956
2602.190089
2575.591514
2552.9939
2528.00465
2505.96583
2492.666542
2487.324475
2478.607294
2477.512059
2476.819155
2472.862896
2468.68312
2457.708413
2454.087431
2459.921236
2458.200152
2457.753117
2457.14962
2457.28373
2461.552913
2457.596655
2451.069945
2450.913483
2454.914445
2466.000911
2467.453774
2460.167105
2467.587884
2461.418803
2456.814344
2459.451849
2467.185553
2473.712262
2465.978559
2460.23416
2468.057271
2472.080585
2474.695739
2471.074757
2474.271056
2479.054329
2469.510134
2461.798783
2464.726861
2472.304102
2475.768623
2473.019358
2466.917332
2455.495591
2455.607349
2455.87557
2461.195285
2458.624835
2460.927065
2454.199189
2454.355652
2457.261378
2448.365384
2450.019413
2454.802687
2451.338166
2443.291538
2438.307099
2437.725954
2438.172989
2437.03305
2437.010698
2437.636547
2441.458695
2443.202131
2432.585053
2430.528692
2432.115666
2429.679326
2430.37223
2429.09818
2430.282823
2438.083582
2437.502436
2425.097218
2420.492759
2423.867872
2428.025297
2425.767771
2427.824131
2428.494683
2428.204111
2427.868834
2428.762904
2428.651146
2428.315869
2422.392657
2415.150692
2421.230366
2427.891186
2418.190529
2414.278974
2417.005887
2426.795951
2427.153579
2421.677401
2420.582166
2423.778465
2426.885358
2420.135131
2416.827073
2422.057381
2423.130265
2424.359611
2427.712372
2428.874663
2426.550082
2420.135131
2414.055456
2415.64243
2419.956317
2420.738628
2418.637564
2426.885358
2441.704564
2440.274053
2424.001983
2422.124436
2429.142884
2432.67446
2433.590881
2438.418858
2454.869742
2474.494573
2464.056309
2449.281806
2451.00289
2458.937759
2470.270094
2463.56457
2455.003852
2445.102029
2428.785256
2414.658954
2403.259564
2401.851404
2408.422817
2410.032142
2410.702695
2409.898032
2413.094331
2406.768788
2402.589012
2406.54527
2408.646334
2404.913593
2401.29261
2402.209032
2401.67259
2407.43934
2425.208977
2455.652053
2480.5966
2543.337946
2646.692413
2718.016829
2771.884533
2710.797216
2582.408796
2519.645097
2579.056034
2657.577712
2556.525476
2297.647571
2208.821739
2318.725266
2451.137
2494.007646
2486.653922
2473.93578
2477.735576
2497.718036
2518.371048
2528.898719
2534.151379
2531.312708
2533.167903
2541.728621
2545.349603
2558.492429
2578.921924
2592.221211
2589.918982
2596.468043
2599.798453
2611.04138
2628.252224
2638.757543
2647.340613
2656.773049
2670.452317
2688.400768
2703.264678
2711.62423
2729.550329
2748.973995
2773.650321
2800.628877
2828.099171
2859.302206
2882.838593
2908.699561
2950.653786
2986.505984
3021.151188
3057.740993
3101.170433
3132.798151
3160.000224
3191.873812
3218.226518
3230.877606
3235.41501
3230.54233
3220.238175
3187.381111
3131.166474
3067.911037
3001.526356
2932.459466
2857.581122
2775.214943
2694.100463
2641.171532
2595.439863
2552.122182
2524.115446
2503.104806
2481.915353
2468.057271
2460.412974
2449.192399
2446.957224
2443.179779
2443.537407
2444.72205
2442.531579
2437.480085
2437.54714
2444.878512
2438.910596
2428.96407
2424.158445
2420.828035
2422.057381
2422.057381
2422.16914
2431.556872
2436.764829
2431.333355
2425.030163
2427.757076
2434.194378
2435.133151
2435.24491
2438.709431
2441.279881
2441.659861
2437.994175
2449.125343
2457.775469
2452.858085
2444.766753
2437.949471
2437.413029
2437.502436
2439.782314
2446.554893
2449.348861
2444.744402
2446.845466
2443.716221
2440.49757
2442.352765
2435.759
2432.115666
2435.982518
2434.417896
2434.887282
2430.975727
2426.371268
2429.567567
2426.438323
2420.962145
2425.208977
2423.890224
2423.644355
2421.722105
2419.375172
2419.576337
2419.330468
2414.524843
2410.121549
2413.094331
2413.58607
2412.624945
2415.687134
2416.603555
2411.105026
2413.58607
2416.111817
2419.151654
2417.587032
2413.407256
2412.468483
2412.535538
2416.447093
2420.559814
2422.258547
2410.38977
2405.472387
2404.421855
2403.863061
2408.825148
2410.501529
2408.33341
2407.014657
2407.864023
2405.539442
2402.790177
2400.867927
2405.852366
2405.740607
2407.43934
2408.489872
2406.92525
2405.785311
2414.636602
2411.842634
2403.907764
2406.768788
2406.433512
2404.891241
2402.05257
2404.377151
2405.584145
2401.426721
2397.470462
2399.817395
2404.578317
2407.148767
2408.758093
2407.998134
2411.887337
2411.887337
2410.054494
2405.405331
2403.103102
2410.322715
2413.697828
2419.263413
2417.229404
2408.266355
2409.674514
2408.601631
2411.105026
2410.121549
2408.869852
2419.598689
2439.536445
2446.107858
2435.513131
2428.852311
2436.831884
2447.091335
2441.90573
2433.903805
2422.124436
2402.991343
2390.250849
2379.812584
2375.141069
2378.918514
2379.76788
2377.309189
2376.035139
2381.04193
2387.903915
2384.908782
2381.108985
2384.841726
2388.708578
2385.959314
2377.644465
2377.398595
2383.500622
2401.694942
2436.295442
2462.91637
2528.339926
2633.59429
2705.432797
2757.11003
2702.281201
2582.609961
2521.053257
2577.111432
2656.750698
2548.545903
2272.434804
2186.313532
2309.583403
2451.852256
2502.724827
2489.403187
2481.513021
2488.442062
2502.613068
2512.693705
2519.533338
2526.998821
2534.263138
2540.633385
2554.178542
2565.689691
2564.080365
2569.444784
2570.29415
2569.489487
2580.084214
2588.980209
2600.334895
2617.366924
2628.252224
2639.22693
2650.693375
2668.507715
2686.836146
2698.68257
2713.457073
2730.243233
2753.712565
2780.489955
2800.204194
2831.720153
2863.973721
2886.638389
2919.540157
2960.712071
2995.625495
3036.886816
3082.55143
3124.505654
3158.502657
3180.608533
3202.043855
3225.826112
3244.780391
3255.53158
3250.971824
3233.559815
3202.647353
3154.479343
3086.753558
3013.462187
2936.326317
2851.456744
2773.359749
2701.342428
2643.741982
2595.439863
2559.162981
2529.703382
2499.617934
2483.278809
2467.878457
2449.482971
2440.005832
2434.283785
2432.182721
2431.355707
2428.114704
2430.953375
2431.556872
2434.21673
2434.797875
2432.696811
2433.121494
2424.180797
2426.080695
2428.315869
2432.763867
2432.67446
2429.299346
2425.544253
2425.320736
2433.389715
2436.943643
2434.686117
2432.94268
2428.204111
2430.975727
2433.479122
2439.782314
2447.694832
2446.085506
2444.900864
2444.766753
2443.917387
2448.812419
2447.381907
2445.191436
2446.912521
2449.751192
2446.376079
2452.813381
2456.814344
2456.680233
2447.851294
2445.057326
2450.10882
2450.064117
2450.131172
2442.397468
2443.738573
2444.565588
2438.485913
2441.749268
2446.845466
2444.185608
2442.464524
2441.212826
2439.648204
2437.837713
2440.408163
2441.39164
2438.888244
2439.625852
2442.308061
2439.000003
2440.005832
2442.241006
2440.654032
2440.162294
2445.414954
2452.858085
2452.232236
2443.157428
2439.98348
2442.844503
2451.561684
2446.890169
2440.11759
2446.711355
2452.567512
2449.237102
2448.253625
2447.67248
2447.583073
2452.142829
2456.38966
2454.892094
2452.187532
2446.26432
2448.298329
2452.880437
2447.761887
2444.85616
2448.968881
2448.343032
2448.56655
2446.621948
2442.911558
2442.7998
2446.77841
2454.176838
2459.518905
2458.758945
2458.289559
2468.549009
2467.140849
2458.669538
2452.343995
2466.649111
2483.815251
2492.532431
2491.10192
2483.770547
2487.078606
2491.705417
2495.706379
2496.689856
2487.123309
2471.141812
2459.854181
2449.393564
2442.598634
2437.189512
2432.897977
2435.155503
2438.240044
2434.462599
2432.070962
2433.769695
2442.732745
2448.119515
2442.509227
2445.705527
2446.666652
2448.521846
2449.773544
2450.287634
2456.032032
2475.701568
2496.376931
2543.069725
2654.582578
2765.000196
2855.63652
2873.026177
2774.991426
2673.223933
2692.066454
2759.479315
2663.746794
2359.159572
2198.629343
2328.7612
2488.889097
2572.283455
2572.059938
2540.163999
2532.407943
2548.009461
2570.204743
2579.547772
2588.175546
2597.809148
2606.68279
2605.520499
2609.610869
2625.033572
2637.751715
2639.942186
2642.244416
2647.094744
2655.968387
2666.026672
2676.152012
2694.145166
2709.076131
2718.642678
2727.851597
2741.866141
2761.088641
2779.461775
2798.75133
2811.089493
2829.932014
2849.445087
2874.769613
2907.470215
2945.825809
2975.531277
3010.355295
3044.151133
3085.993598
3128.17134
3163.084765
3201.820338
3238.857179
3269.054385
3285.862897
3305.219508
3322.385648
3324.106732
3303.230203
3263.73467
3213.934983
3152.13241
3073.498973
2984.896658
2902.910459
2829.37322
2762.295635
2704.739893
2656.996567
2621.323183
2588.711988
2565.443822
2546.400135
2534.4196
2523.087266
2510.100902
2501.473129
2504.200042
2505.317629
2501.093149
2494.275867
2494.655847
2496.48869
2488.844393
2480.395434
2485.379873
2484.105824
2474.919257
2469.800707
2472.14764
2477.288541
2482.429443
2482.250629
2480.797765
2482.205925
2487.436233
2482.697664
2477.333245
2482.13887
2485.893963
2483.345864
2483.591733
2487.145661
2491.817175
2489.805518
2485.826908
2488.620876
2495.438158
2496.153414
2495.326399
2494.097053
2498.075664
2500.132024
2497.047484
2494.231164
2492.800652
2491.817175
2488.2856
2486.765681
2490.096091
2488.665579
2487.190364
2487.972675
2481.535373
2478.026149
2473.913428
2470.627722
2471.275922
2474.025187
2472.549972
2468.928989
2470.270094
2474.248704
2473.511097
2475.165126
2469.465431
2466.090317
2458.714242
2452.92514
2460.435326
2468.727823
2468.861934
2474.271056
2474.516925
2470.784184
2463.94455
2459.228332
2469.979521
2491.593658
2501.026094
2487.726806
2488.084434
2491.928934
2500.981391
2500.84728
2487.950324
2478.048501
2456.300253
2439.46939
2434.86493
2434.59671
2437.323622
2441.056364
2443.068021
2438.932948
2433.926157
2435.043744
2433.70264
2435.021393
2442.710393
2441.168122
2438.083582
2434.261433
2435.289614
2441.458695
2441.39164
2442.509227
2458.781297
2482.429443
2492.800652
2567.075499
2687.953733
2777.695987
2838.604491
2777.60658
2658.225913
2591.371845
2655.968387
2707.198585
2564.058013
2277.329836
2221.673992
2363.294645
2494.968771
2544.567292
2535.514836
2508.558632
2516.806426
2540.655737
2560.817011
2568.170734
2571.098813
2580.106566
2589.494299
2592.645895
2601.072502
2613.2095
2616.964593
2617.7022
2623.826578
2635.293023
2647.474724
2654.202599
2659.455259
2673.246285
2687.618457
2698.839033
2711.400713
2725.97405
2742.156713
2757.62412
2778.299484
2801.031208
2828.456799
2855.189485
2879.038796
2906.240869
2940.84137
2979.822812
3013.149263
3051.817781
3092.117976
3132.217006
3170.438489
3208.302344
3245.942682
3272.273037
3288.902734
3301.218546
3298.357522
3288.321589
3253.922254
3192.477309
3120.571747
3047.794467
2964.333053
2878.480003
2802.573479
2734.17714
2676.822564
2627.805189
2585.202764
2552.9939
2536.073629
2517.476978
2499.752045
2492.197155
2484.776376
2480.35073
2477.042672
2472.639379
2475.500402
2471.745309
2465.218599
2462.40228
2465.084489
2469.733652
2460.61414
2454.199189
2455.652053
2456.412012
2456.076736
2452.656919
2450.175875
2452.455753
2453.752155
2459.295387
2459.496553
2459.518905
2462.692852
2463.743384
2461.418803
2464.07866
2466.045614
2465.308006
2464.436288
2466.202076
2463.698681
2463.855143
2469.241913
2475.47805
2470.448908
2458.803649
2452.969844
2457.79782
2463.162239
2464.905675
2464.212771
2460.189457
2456.076736
2454.378003
2455.897922
2455.942626
2454.646224
2452.723974
2449.348861
2448.678309
2452.075774
2450.555855
2444.990271
2444.923215
2445.61612
2444.230311
2444.699698
2442.03984
2440.899901
2438.240044
2429.746381
2431.534521
2437.413029
2438.821189
2436.764829
2433.076791
2433.143846
2435.356669
2434.619061
2431.892148
2435.982518
2444.252663
2440.855198
2430.75221
2430.238119
2433.143846
2434.283785
2432.339183
2436.720125
2443.649166
2445.727878
2434.417896
2438.329451
2444.453829
2437.725954
2428.047648
2426.01364
2442.665689
2469.621893
2477.646169
2463.877495
2458.513076
2468.705472
2476.841507
2464.726861
2451.89696
2445.593768
2438.888244
2424.694887
2411.015619
2411.261488
2408.825148
2412.759055
2421.520939
2423.756114
2416.380038
2415.553023
2415.731837
2419.553986
2422.951451
2417.922308
2414.703657
2419.598689
2422.30325
2421.386829
2423.398486
2428.226462
2454.042727
2480.127213
2524.048391
2637.796418
2738.40162
2802.104092
2767.280074
2640.299814
2533.927862
2542.48858
2643.227892
2620.362058
2376.30336
2201.669181
2287.298714
2435.893111
2513.833644
2520.136836
2503.931821
2505.474091
2527.848187
2543.89674
2548.188275
2547.249502
2554.223246
2564.482697
2569.757708
2575.502107
2584.845136
2595.439863
2597.362113
2601.474834
2611.130787
2620.362058
2631.180302
2640.188055
2651.632148
2664.350291
2676.420233
2693.072282
2708.718504
2720.453169
2737.038164
2759.859295
2785.899077
2811.201252
2832.971851
2853.378994
2887.80068
2925.97746
2953.492457
2987.86944
3019.810083
3056.466944
3096.945953
3142.811733
3183.201335
3207.341219
3238.410144
3268.652054
3278.97856
3288.545106
3287.852202
3265.343996
3221.825149
3171.801945
3103.718532
3019.988897
2927.564434
2845.019441
2776.019606
2709.076131
2645.351308
2598.61381
2564.795621
2537.124161
2510.413827
2490.520774
2482.921181
2475.209829
2468.839582
2466.559704
2461.552913
2456.210846
2451.785201
2447.337204
2446.532541
2452.813381
2448.723012
2443.470352
2440.162294
2441.637509
2443.649166
2447.828942
2446.085506
2447.583073
2455.093259
2450.645262
2436.988346
2442.397468
2446.934873
2448.275977
2449.102992
2449.862951
2449.550027
2449.371213
2442.911558
2441.235178
2448.432439
2446.331375
2446.13021
2449.907655
2455.272073
2457.551951
2456.724937
2451.829905
2449.438268
2451.829905
2451.89696
2450.10882
2452.746326
2452.902788
2442.7998
2439.894073
2443.157428
2446.711355
2441.168122
2436.27309
2433.635585
2438.083582
2438.620024
2436.451904
2434.127323
2431.065134
2424.806645
2425.656012
2427.108875
2429.120532
2434.060268
2426.930061
2422.996154
2422.459712
2424.203148
2422.839692
2424.560776
2429.433457
2429.053477
2424.650183
2423.219672
2425.901881
2429.947547
2422.973802
2415.597727
2414.077808
2417.654087
2419.419875
2425.477198
2428.427628
2430.014602
2433.568529
2425.611308
2418.123474
2419.889262
2419.822206
2423.689058
2428.829959
2437.278919
2441.458695
2436.943643
2435.356669
2438.508265
2441.302233
2429.09818
2424.314907
2433.009736
2456.546123
2476.7521
2466.269131
2455.383832
2462.134059
2478.607294
2476.327416
2455.026204
2447.761887
2437.569492
2422.526768
2413.653125
2419.419875
2422.146788
2418.101122
2420.917442
2422.571471
2415.843596
2407.327581
2403.527785
2409.048666
2413.809587
2412.803759
2412.289669
2416.335334
2426.483026
2421.945622
2414.077808
2416.044762
2433.367364
2458.647187
2484.4411
2572.59638
2691.574716
2780.154679
2837.039868
2766.318949
2655.811924
2610.39318
2690.166556
2732.947795
2541.639214
2245.165675
2235.286204
2382.293628
2507.485748
2540.365164
2528.474036
2515.06299
2517.231109
2536.788885
2553.776211
2565.063842
2572.641083
2578.36313
2577.402005
2583.436976
2591.729473
2606.012238
2616.986944
2619.266822
2628.833369
2638.623433
2642.17736
2650.156933
2661.109288
2675.414404
2694.480442
2706.393922
2716.720428
2734.981803
2753.26553
2768.978807
2793.342208
2819.158473
2847.992223
2872.489735
2894.416796
2928.838483
2962.008472
3000.453472
3038.317327
3074.99654
3109.060598
3142.789381
3179.066262
3221.020486
3259.644301
3283.583019
3299.631572
3312.461473
3312.014438
3299.162185
3265.768679
3208.972896
3145.806866
3075.443575
2988.89762
2899.960029
2824.746409
2756.08185
2693.027579
2639.539854
2599.820805
2568.863639
2542.153304
2523.936632
2507.619859
2498.500347
2492.286562
2486.788033
2483.614085
2479.613123
2471.991178
2469.443079
2471.790012
2471.477088
2478.070853
2479.166088
2471.834716
2467.118498
2467.543181
2471.11946
2469.018396
2467.096146
2466.157373
2464.928027
2461.50821
2467.498477
2476.819155
2474.58398
2473.93578
2480.395434
2486.318646
2478.562591
2474.919257
2477.355597
2480.5966
2482.250629
2483.54703
2479.724882
2475.34394
2482.00476
2487.324475
2483.189402
2482.13887
2485.871611
2488.956152
2479.210791
2478.115556
2484.999893
2481.423614
2478.786108
2478.42848
2482.921181
2480.015454
2477.556762
2480.306027
2479.076681
2468.280788
2463.966902
2472.214695
2474.852201
2475.522754
2471.678254
2466.962036
2469.130155
2474.82985
2473.242876
2471.588847
2467.029091
2466.24678
2471.074757
2469.130155
2468.325492
2469.152506
2478.584943
2479.948399
2477.936742
2482.876478
2478.920219
2481.893001
2481.557725
2478.607294
2471.11946
2465.598579
2479.568419
2502.188385
2514.68301
2503.417731
2501.137853
2508.580984
2503.417731
2504.848242
2499.506175
2492.308914
2473.488745
2462.648149
2451.941663
2453.528637
2460.189457
2463.721033
2457.775469
2455.205018
2455.160314
2461.217637
2460.569437
2455.517942
2458.401317
2463.788088
2459.138925
2456.702585
2459.518905
2458.848352
2458.669538
2461.083527
2471.097108
2492.532431
2512.827815
2541.527455
2637.997584
2764.642568
2864.934846
2902.865756
2813.503482
2699.330771
2689.853631
2757.221789
2680.644713
2376.973912
2173.841259
2290.159737
2482.988236
2595.2834
2591.036569
2570.092984
2570.025929
2571.367034
2570.070633
2582.677017
2587.035607
2592.511784
2619.669154
2644.6137
2648.435849
2653.308529
2634.398953
2615.511729
2622.753694
2630.956785
2642.736154
2665.467878
2685.249172
2708.852614
2725.504664
2725.616422
2726.264623
2737.261681
2759.814591
2778.388891
2799.533641
2817.549147
2834.692935
2865.180715
2896.607267
2919.540157
2949.692661
2989.612876
3023.028734
3062.881894
3109.038247
3152.378279
3188.118719
3218.181815
3244.288652
3274.798784
3307.6782
3321.066895
3324.777284
3317.66943
3287.092243
3242.500513
3183.424852
3096.14129
3010.757626
2927.072695
2847.791058
2784.356807
2728.477446
2671.234628
2628.20752
2592.556488
2564.795621
2542.265063
2525.009516
2521.075609
2520.181539
2514.772417
2505.58585
2493.046521
2493.359446
2502.12133
2499.662638
2494.342922
2489.134966
2492.018341
2491.23603
2496.600449
2494.029998
2484.776376
2475.612161
2480.663655
2483.055292
2486.430405
2489.671408
2487.078606
2491.660713
2498.053312
2503.328324
2502.546013
2493.292391
2494.655847
2501.517832
2509.229184
2510.659696
2514.504196
2511.464359
2501.473129
2494.588792
2493.605315
2503.060103
2504.825891
2501.182556
2502.322495
2503.708303
2506.189347
2505.161167
2515.219452
2516.828777
2505.652905
2495.259344
2492.308914
2494.365274
2497.89685
2493.67237
2481.155393
2481.691835
2485.98337
2486.542164
2482.228277
2480.864821
2482.13887
2478.540239
2478.406129
2483.658789
2486.720978
2494.901716
2497.00278
2484.262286
2480.194268
2484.821079
2477.333245
2469.353672
2481.647132
2502.970696
2504.669428
2498.299181
2507.441045
2513.543071
2516.135873
2531.938557
2531.871501
2499.752045
2464.190419
2441.257529
2443.023317
2453.998024
2453.528637
2449.572378
2454.266245
2462.692852
2465.263303
2451.89696
2445.325547
2446.063154
2440.36346
2444.476181
2449.281806
2438.664727
2444.498532
2443.515056
2449.237102
2458.110745
2457.306082
2462.089355
2484.128175
2512.76076
2583.571086
2690.054797
2787.530755
2866.566523
2814.151682
2687.216125
2621.524348
2690.434777
2753.556103
2599.977267
2296.686446
2248.607844
2385.154651
2515.442969
2559.162981
2546.84717
2533.480827
2538.666432
2561.934598
2578.720758
2569.891819
2570.048281
2572.529325
2586.990903
2599.016142
2607.912136
2609.521462
2612.024857
2624.117151
2632.454351
2633.996622
2643.026727
2660.796363
2686.165593
2700.336599
2691.462957
2700.649524
2725.906995
2732.701925
2743.609577
2768.554123
2784.043882
2800.606525
2829.529682
2865.963026
2897.948372
2923.965803
2947.904521
2977.989969
3019.675972
3060.26674
3102.310372
3143.951672
3175.244114
3202.692056
3234.431533
3263.689967
3279.62676
3289.215659
3276.251647
3254.548103
3221.06519
3159.620244
3084.898363
3013.551594
2941.534274
2859.257502
2774.052653
2702.169442
2641.283291
2594.903421
2564.661511
2538.465266
2514.839472
2504.915298
2494.655847
2475.813326
2462.826963
2471.454736
2472.102937
2467.006739
2462.804611
2460.368271
2458.669538
2456.859047
2450.377041
2460.457678
2453.416878
2443.068021
2444.185608
2440.944605
2434.976689
2436.451904
2446.152561
2459.384794
2456.814344
2443.023317
2442.464524
2452.321643
2458.446021
2455.607349
2454.71328
2449.326509
2452.03107
2463.139887
2469.688948
2469.443079
2458.714242
2449.550027
2451.114649
2459.809477
2458.1778
2462.134059
2457.864876
2449.21475
2441.615157
2442.062192
2446.465486
2444.386774
2445.839637
2455.607349
2457.216675
2452.03107
2451.047593
2446.152561
2443.157428
2443.023317
2438.19534
2440.721088
2446.443134
2448.655957
2446.733707
2446.174913
2441.838675
2436.943643
2434.484951
2441.637509
2450.041765
2443.515056
2438.821189
2446.376079
2450.846428
2452.656919
2435.826056
2430.349878
2442.688041
2459.943588
2467.990216
2467.878457
2469.174858
2472.080585
2473.667559
2466.135021
2458.781297
2450.175875
2433.412067
2419.732799
2418.905785
2414.681305
2402.991343
2402.946639
2408.176948
2415.217747
2413.340201
2406.589974
2402.678418
2405.315924
2408.601631
2416.424741
2420.313945
2417.497625
2415.374209
2407.05936
2411.015619
2418.704619
2417.832901
2434.797875
2461.038823
2475.254533
2543.38265
2664.842029
2757.780583
2814.12933
2744.03426
2616.964593
2534.352545
2580.441842
2667.948922
2553.440935
2272.188934
2209.380532
2338.037174
2471.25357
2514.772417
2501.339019
2487.995027
2495.818138
2513.811292
2527.177635
2537.191217
2549.931711
2559.878237
2562.873371
2564.326234
2571.434089
2568.103679
2575.4127
2592.221211
2601.743055
2610.862566
2618.59627
2628.632203
2637.841122
2649.620491
2660.125811
2672.933361
2689.58541
2708.740855
2727.985707
2744.749516
2760.932179
2780.713472
2800.606525
2828.009764
2854.809505
2888.113605
2928.4138
2962.455507
2995.178461
3037.087981
3075.845906
3119.141235
3155.194599
3186.151765
3220.394638
3247.082621
3262.661786
3275.089356
3276.743385
3256.068022
3213.219728
3152.087707
3072.18022
2987.578867
2907.425512
2829.552034
2755.456001
2683.416329
2626.866415
2582.565258
2539.314632
2509.855033
2486.050425
2474.181649
2455.562646
2443.559759
2443.895035
2431.690983
2430.171064
2431.176893
2426.550082
2423.018506
2424.426666
2428.695849
2429.969898
2427.399448
2432.652108
2425.320736
2418.190529
2416.581204
2412.781407
2423.554948
2431.601576
2429.99225
2422.146788
2424.627832
2418.257584
2420.448055
2433.255605
2440.408163
2437.569492
2427.824131
2426.035991
2440.341108
2442.129247
2428.96407
2423.465541
2427.578262
2426.818302
2429.411105
2433.680288
2433.680288
2443.269186
2434.484951
2424.136093
2427.757076
2429.276994
2433.009736
2438.262396
2439.961128
2434.797875
2425.365439
2422.392657
2422.705582
2425.834826
2424.627832
2420.917442
2432.629756
2431.243948
2429.120532
2429.724029
2430.528692
2415.150692
2414.904823
2420.626869
2422.280898
2424.046686
2422.236195
2418.45875
2415.530672
2422.124436
2421.27507
2421.610346
2421.073904
2419.174006
2418.011715
2416.067113
2424.940756
2431.825093
2428.114704
2431.579224
2424.761942
2421.185663
2425.164273
2417.385866
2414.256622
2428.673497
2456.121439
2455.584998
2445.817285
2444.431477
2451.964015
2461.955245
2456.657881
2433.590881
2416.827073
2405.874718
2394.520032
2389.468538
2391.569601
2395.52586
2394.788253
2392.798947
2397.202241
2401.247907
2397.381055
2394.698846
2401.29261
2408.556927
2412.289669
2405.51709
2398.163366
2396.28582
2403.192509
2406.902898
2407.081712
2418.07877
2448.655957
2465.822097
2542.443877
2662.562151
2750.493914
2822.488883
2763.368519
2642.065602
2586.856793
2652.816791
2717.033352
2566.561409
2253.838152
2195.120119
2337.500732
2473.913428
2520.896795
2510.682048
2496.399283
2505.272926
2520.136836
2530.373935
2533.100847
2539.247577
2549.261159
2558.62654
2559.453554
2565.443822
2580.397139
2591.103624
2590.902459
2592.601191
2604.62643
2616.942241
2619.155064
2629.146293
2643.741982
2661.064584
2677.046082
2689.540707
2712.048913
2731.293765
2747.722298
2764.776679
2788.424824
2814.911641
2836.838703
2868.935808
2903.804529
2933.018259
2964.42246
2999.626458
3039.680784
3081.232677
3119.565918
3152.221817
3188.878678
3224.999097
3250.927121
3273.34592
3281.951342
3281.727824
3262.930007
3222.965088
3164.336463
3089.659284
3013.395132
2933.15237
2850.093287
2776.511344
2712.853576
2646.290081
2604.782892
2573.781022
2536.118333
2501.316667
2486.273943
2474.204001
2467.207905
2465.106841
2456.277902
2446.554893
2445.817285
2446.867817
2451.025242
2443.582111
2438.597672
2440.989308
2439.268224
2438.128285
2441.90573
2444.073849
2434.931986
2438.664727
2439.692907
2440.408163
2441.503399
2448.097163
2446.420782
2440.743439
2439.938776
2441.324585
2448.678309
2448.544198
2445.571416
2436.384849
2435.155503
2442.151599
2455.205018
2457.686062
2451.740498
2445.884341
2452.746326
2446.174913
2440.341108
2450.354689
2457.954283
2450.153524
2448.633605
2446.174913
2442.822152
2437.524788
2431.512169
2431.333355
2432.406239
2431.668631
2433.166198
2439.156465
2440.452867
2436.586015
2434.149675
2430.349878
2425.968936
2425.007811
2424.09139
2422.996154
2427.377096
2433.121494
2431.512169
2426.259509
2426.371268
2428.293518
2430.796913
2431.467465
2438.530617
2439.067058
2439.379983
2442.688041
2441.034012
2447.650128
2437.435381
2439.379983
2460.748251
2475.925085
2471.63355
2467.766698
2465.151544
2462.782259
2465.196248
2457.350785
2448.991233
2442.978614
2431.892148
2424.001983
2420.470407
2414.413084
2410.188605
2414.055456
2413.876642
2412.580241
2417.698791
2430.528692
2423.599651
2419.017544
2420.716276
2420.157483
2417.274108
2416.312983
2417.922308
2415.977706
2418.481102
2419.174006
2428.517035
2453.103954
2477.109728
2493.359446
2582.274685
2715.84871
2831.586043
2880.938695
2796.270287
2672.911009
2628.185168
2692.40173
2647.921759
2373.621151
2150.059003
2240.762382
2418.950488
2523.757818
2540.812199
2519.510987
2504.132987
2507.776321
2527.155283
2541.214531
2551.384574
2562.895723
2573.199877
2577.33495
2579.2572
2588.756691
2597.45152
2603.486491
2606.347514
2616.852834
2631.292061
2638.601081
2648.18998
2662.852724
2677.493117
2681.047044
2691.306495
2709.120835
2735.004155
2749.733955
2761.289807
2781.048749
2799.913621
2826.467493
2847.455781
2874.032006
2908.520747
2948.776239
2984.807251
3020.480635
3060.847886
3098.287058
3140.576558
3176.09348
3208.905841
3236.733763
3256.448001
3267.690929
3277.749214
3274.664673
3248.960167
3191.113852
3123.924509
3050.65549
2977.498231
2892.002808
2798.684275
2726.175216
2664.46205
2614.930584
2573.848078
2542.622691
2525.881234
2507.239879
2490.565478
2476.215658
2467.498477
2463.117535
2459.384794
2465.710338
2468.213733
2464.928027
2458.043689
2460.167105
2455.249721
2436.496608
2425.186625
2427.891186
2438.552968
2442.41982
2444.967919
2445.482009
2444.319718
2445.817285
2442.956262
2444.297367
2450.757021
2454.869742
2452.656919
2446.398431
2452.343995
2464.480992
2465.889152
2464.592751
2462.53639
2456.456716
2454.109782
2449.505323
2448.298329
2452.79103
2458.535428
2462.938722
2464.391585
2454.981501
2451.069945
2448.454791
2449.348861
2453.30512
2449.08064
2449.706489
2445.392602
2445.929044
2453.260416
2450.377041
2440.385811
2437.994175
2436.317794
2437.390678
2436.496608
2437.323622
2441.190474
2438.083582
2440.274053
2437.480085
2435.781352
2436.027221
2435.021393
2430.573396
2440.274053
2443.872684
2446.867817
2449.885303
2438.06123
2442.531579
2454.378003
2463.743384
2460.301216
2459.116573
2462.40228
2464.212771
2468.101974
2466.827925
2466.537352
2452.41105
2433.099143
2419.464579
2416.782369
2410.76975
2413.742532
2422.437361
2431.78039
2428.829959
2420.448055
2421.163311
2418.794026
2417.743494
2422.102084
2424.806645
2432.138018
2428.651146
2425.432494
2426.058343
2430.863968
2433.345012
2437.16716
2448.208922
2470.515963
2500.757873
2592.243563
2703.264678
2802.685237
2847.075802
2755.098373
2638.086991
2620.630279
2711.780693
2683.908067
2420.604518
2194.181346
2276.949856
2435.602538
2526.372972
2529.591623
2518.885138
2504.892946
2511.643173
2534.509007
2544.433182
2553.664452
2561.241694
2569.757708
2581.31356
2586.789738
2587.013255
2592.891764
2596.468043
2601.340723
2605.162871
2619.646802
2636.634128
2642.624395
2649.374622
2661.13164
2671.100518
2686.724387
2700.582469
2715.602841
2735.495893
2753.77962
2776.801917
2799.354827
2820.65604
2850.361508
2876.535401
2906.866718
2942.271881
2980.18044
3018.804254
3049.76142
3086.865316
3125.35502
3162.078936
3199.182832
3228.843597
3247.261434
3264.137002
3267.981502
3250.971824
3218.11476
3167.286893
3100.544584
3025.308612
2941.377812
2853.446049
2769.984635
2698.056721
2645.239549
2606.146348
2568.975397
2540.70044
2516.582908
2508.782149
2499.372065
2481.155393
2467.252608
2465.151544
2463.117535
2452.858085
2453.081602
2459.384794
2458.222503
2446.867817
2440.832846
2442.330413
2443.515056
2438.821189
2435.021393
2444.230311
2446.331375
2443.760925
2442.151599
2440.564625
2442.397468
2444.654995
2453.394527
2458.446021
2456.657881
2450.62291
2439.424686
2443.090372
2451.181704
2453.30512
2457.619006
2451.89696
2450.466448
2457.641358
2458.222503
2458.624835
2461.150582
2464.749213
2468.079623
2465.35271
2463.408108
2461.284692
2464.168067
2455.316777
2441.77162
2449.482971
2452.366346
2452.79103
2453.30512
2448.723012
2446.085506
2437.16716
2438.865893
2444.275015
2443.291538
2441.302233
2436.586015
2435.490779
2436.51896
2439.894073
2442.397468
2438.642375
2437.949471
2432.115666
2422.906747
2416.290631
2420.448055
2422.213843
2429.656974
2443.135076
2440.072887
2433.568529
2423.5773
2420.224538
2428.114704
2429.567567
2430.37223
2435.736649
2435.133151
2425.678364
2417.899956
2415.709485
2424.136093
2430.081657
2424.851349
2416.40239
2417.698791
2423.957279
2425.320736
2422.146788
2420.559814
2428.114704
2425.521901
2420.626869
2422.012677
2428.092352
2421.766808
2417.788198
2423.689058
2428.785256
2428.96407
2426.483026
2433.903805
2432.227425
2419.464579
2411.261488
2413.876642
2425.745419
2428.248814
2425.723067
2426.706544
2432.026259
2438.105933
2438.620024
2438.731782
2430.282823
2424.493721
2427.242986
2430.774561
2437.949471
2458.222503
2474.628684
2458.378966
2451.472277
2462.759908
2467.476126
2465.643283
2448.834771
2443.738573
2439.648204
2426.840654
2409.272183
2401.694942
2405.204166
2408.288706
2413.340201
2411.082674
2402.387846
2395.794081
2400.26443
2408.244003
2411.619116
2411.619116
2409.540404
2413.07198
2414.48014
2414.904823
2413.519015
2410.434474
2421.520939
2450.578207
2476.908562
2556.905455
2658.918817
2739.653318
2786.346112
2717.346277
2605.386389
2567.008444
2617.478683
2679.728291
2555.273778
2291.880821
2243.645757
2364.523991
2484.374044
2513.163091
2497.226298
2486.720978
2507.619859
2529.524568
2530.105714
2525.881234
2531.133894
2543.092077
2552.144534
2552.256292
2559.207685
2566.740223
2572.909304
2583.079348
2591.014217
2601.765406
2615.422322
2620.00443
2633.191959
2639.696317
2652.749735
2664.015015
2676.152012
2690.278314
2712.585355
2732.925443
2747.521132
2765.268417
2790.101205
2824.657002
2845.757049
2866.544171
2898.507166
2928.167931
2961.807306
2996.228992
3039.747839
3080.204496
3111.407532
3151.864189
3189.191602
3212.48212
3228.396562
3237.292556
3249.317795
3247.84258
3219.567623
3175.266466
3119.990602
3052.95772
2972.938475
2889.320599
2812.58706
2744.16837
2684.399806
2630.040363
2579.927752
2550.490505
2527.781132
2502.702475
2477.91439
2465.196248
2458.937759
2452.634567
2445.437306
2448.231274
2455.942626
2456.948454
2448.410088
2439.737611
2436.116628
2433.345012
2431.288651
2434.59671
2447.091335
2449.08064
2440.229349
2440.855198
2438.374154
2444.565588
2446.890169
2439.044707
2434.417896
2434.753172
2438.329451
2445.414954
2449.102992
2449.639434
2444.900864
2435.915462
2435.714297
2442.553931
2444.185608
2442.531579
2436.921291
2442.352765
2450.712317
2449.505323
2438.977651
2440.274053
2445.37025
2440.899901
2440.452867
2443.202131
2442.889207
2441.749268
2438.731782
2436.094276
2439.178817
2439.335279
2441.972785
2438.128285
2433.434419
2431.243948
2422.750285
2422.30325
2424.247852
2428.226462
2434.328489
2434.574358
2433.479122
2426.594785
2422.727933
2421.744456
2425.074866
2433.412067
2427.667669
2420.313945
2422.16914
2423.174968
2415.463616
2419.911613
2429.835788
2427.265337
2423.934927
2421.40918
2426.639489
2434.663765
2432.719163
2429.791085
2434.015564
2431.288651
2428.114704
2433.635585
2430.931023
2429.388753
2425.544253
2423.510244
2430.88632
2438.105933
2434.395544
2425.700715
2423.800817
2420.179834
2421.096256
2422.616175
2418.056419
2418.615212
2423.018506
2429.634622
2429.768733
2423.5773
2426.505378
2431.802742
2430.595747
2429.634622
2432.29448
2433.926157
2429.209939
2430.863968
2424.024334
2417.385866
2417.385866
2424.538425
2426.639489
2429.835788
2425.544253
2423.644355
2423.19732
2422.146788
2418.45875
2417.028238
2423.823169
2426.304212
2422.102084
2422.616175
2426.907709
2429.232291
2429.34405
2429.656974
2433.032087
2435.736649
2416.961183
2411.060323
2420.045724
2430.685154
2441.01166
2430.88632
2426.66184
2428.472332
2427.466503
2431.847445
2446.309024
2450.980538
2443.69387
2440.922253
2451.025242
2460.748251
2469.666597
2482.027111
2481.937704
2474.382815
2469.912466
2474.941608
2486.720978
2475.589809
2471.11946
2466.850277
2455.987329
2456.032032
2451.762849
2425.141922
2409.719218
2407.037009
2415.374209
2425.521901
2425.566605
2425.186625
2428.494683
2431.579224
2432.361535
2430.126361
2430.036954
2431.758038
2431.623928
2432.026259
2432.830922
2432.696811
2454.914445
2483.03294
2525.054219
2625.927642
2711.713637
2775.438461
2777.159545
2677.426061
2589.024912
2612.069561
2713.591184
2707.958544
2478.897867
2252.944082
2299.3016
2437.301271
2524.942461
2530.798618
2516.113522
2524.67424
2546.780115
2555.832571
2551.876313
2560.772307
2571.5682
2580.933581
2584.420453
2589.471947
2598.434996
2606.794549
2611.846043
2619.378581
2631.381468
2638.891654
2642.602043
2644.054907
2655.320186
2672.620436
2692.02175
2713.948812
2732.25489
2735.96528
2741.374402
2764.821382
2793.029284
2816.118636
2840.750258
2870.589837
2893.522727
2918.959012
2954.587693
2996.698379
3029.13076
3059.529133
3093.101453
3131.524102
3172.852477
3213.622059
3249.675423
3271.669539
3286.645208
3299.944496
3305.465377
3291.763758
3262.505324
3222.518053
3165.811678
3096.431863
3012.836339
2931.677155
2854.653043
2777.98656
2713.747646
2671.726366
2631.493226
2593.182336
2562.493391
2539.292281
2526.127103
2518.885138
2506.882251
2501.495481
2503.037751
2499.416768
2489.894925
2487.100957
2494.074702
2489.336132
2479.881344
2476.595637
2480.954228
2484.977542
2484.105824
2478.897867
2483.03294
2483.16705
2476.997969
2481.803594
2487.212716
2501.137853
2498.522699
2492.823004
2492.510079
2484.821079
2479.031978
2484.396396
2492.979466
2501.584888
2509.340943
2493.650018
2487.77151
2488.062082
2486.788033
2491.10192
2490.565478
2492.398321
2488.553821
2496.443986
2506.524623
2498.612106
2491.034864
2491.526603
2487.950324
2486.944495
2487.033902
2485.424576
2490.632533
2498.075664
2495.706379
2489.358483
2487.235068
2485.916315
2477.757928
2468.504306
2470.22539
2475.321588
2476.170954
2484.4411
2488.151489
2478.026149
2473.309931
2473.824021
2469.040748
2469.085451
2472.102937
2482.742367
2480.797765
2474.271056
2472.080585
2475.142774
2471.946475
2475.209829
2476.997969
2469.33132
2471.275922
2472.974655
2475.008664
2476.483879
2473.220524
2470.180687
2469.443079
2474.941608
2478.786108
2477.132079
2479.099033
2483.792899
2489.917277
2490.85605
2479.389605
2470.314797
2472.14764
2468.906637
2470.247742
2475.142774
2481.423614
2479.613123
2476.483879
2483.636437
2482.496498
2476.930914
2482.049463
2491.481899
2500.422597
2498.455643
2494.633495
2506.144644
2514.884176
2518.572213
2525.948289
2531.670336
2526.887062
2514.951231
2523.310783
2535.045449
2531.938557
2525.098923
2521.209719
2514.414789
2498.41094
2492.398321
2477.534411
2466.671463
2468.951341
2477.824983
2481.602428
2472.125289
2466.135021
2470.918294
2474.382815
2471.611198
2463.206942
2465.509172
2470.672425
2474.293408
2472.460565
2469.934818
2475.522754
2485.692797
2505.429388
2519.354525
2569.578894
2683.908067
2796.560859
2887.4207
2893.634485
2787.418996
2693.2958
2736.836998
2800.383008
2669.401785
2343.088668
2228.267756
2386.29459
2532.027964
2592.601191
2586.18624
2565.756746
2557.508952
2565.063842
2581.760595
2595.305752
2609.834386
2621.054962
2625.368848
2628.431037
2637.885825
2646.91593
2651.743907
2653.844971
2663.120945
2672.79925
2679.057739
2697.229707
2704.091692
2707.355047
2706.840957
2716.206338
2738.535731
2759.836943
2775.997254
2795.152699
2821.840682
2838.448028
2860.37509
2880.446956
2897.210765
2928.92789
2963.081355
2999.40294
3038.406734
3076.583514
3108.926488
3144.532817
3191.180908
3231.05642
3260.27015
3287.338112
3313.176729
3331.929842
3337.383668
3333.025078
3309.756912
3265.589865
3202.468539
3125.757352
3046.006327
2960.846181
2885.543154
2807.960249
2742.313175
2695.486271
2651.185113
2619.266822
2590.142499
2564.572104
2553.083307
2537.504141
2527.132932
2524.80835
2519.131007
2513.476016
2508.357466
2506.971658
2511.821987
2507.731617
2504.602373
2503.641248
2503.685952
2505.049408
2498.857975
2504.714132
2509.787978
2506.569327
2504.423559
2499.729693
2493.985295
2498.500347
2505.20587
2504.781187
2502.814234
2511.263193
2516.404094
2511.062027
2509.005667
2507.485748
2512.738408
2516.448798
2516.292336
2518.3934
2522.997859
2525.925937
2530.709211
2537.414734
2527.021173
2514.079513
2511.643173
2515.398266
2521.142664
2522.059086
2516.895833
2514.146568
2516.426446
2520.159187
2509.340943
2510.100902
2511.598469
2511.263193
2509.56446
2511.263193
2512.939574
2513.252498
2507.821024
2501.093149
2506.09994
2509.989144
2509.899737
2506.61403
2507.955135
2504.535318
2498.589754
2494.231164
2496.175766
2507.463396
2511.084379
2507.5081
2503.216565
2497.226298
2499.30501
2499.752045
2502.143681
2510.570289
2515.934708
2506.457568
2499.930859
2499.729693
2500.735521
2500.981391
2500.422597
2500.132024
2502.233088
2501.473129
2502.590716
2503.373027
2505.71996
2512.738408
2515.57708
2507.038713
2514.146568
2515.644135
2518.035772
2527.24469
2536.118333
2553.798563
2545.237845
2535.425429
2532.050315
2544.835513
2557.687766
2549.819952
2530.932728
2517.11935
2508.625687
2502.210737
2493.471204
2486.609219
2485.98337
2482.675312
2485.156356
2488.665579
2490.766643
2486.36335
2488.352655
2493.784129
2493.225335
2484.530507
2483.412919
2486.49746
2490.252553
2489.850222
2495.59462
2492.979466
2499.461472
2517.678144
2538.062935
2587.192069
2687.171422
2783.88742
2870.63454
2877.205953
2775.661978
2679.013035
2708.092655
2793.945705
2724.43178
2443.917387
2271.652492
2372.97295
2524.651888
2603.240621
2609.588517
2589.784871
2575.233886
2583.884011
2601.340723
2614.640011
2621.770218
2630.599157
2631.359116
2638.757543
2649.553436
2656.974215
2663.165648
2664.953788
2670.117041
2678.588352
2683.30457
2693.541669
2706.505681
2722.733047
2741.888492
2753.086716
2761.178048
2775.572571
2784.043882
2797.991371
2818.420865
2845.868808
2873.987302
2896.741378
2924.725762
2951.279634
2979.80046
3011.31642
3044.978147
3081.992636
3122.896328
3159.82141
3201.172137
3241.025298
3275.111708
3303.45372
3323.95027
3341.362279
3349.610072
3344.357412
3322.452703
3287.606333
3229.581205
3152.847666
3076.583514
2990.350484
2904.788006
2831.563691
2765.402527
2710.97603
2664.439698
2630.50975
2603.464139
2580.844174
2569.534191
2559.006519
2544.679051
2538.845246
2537.906472
2534.28549
2526.887062
2524.383667
2526.574138
2529.16694
2531.826798
2527.803484
2525.32244
2523.355487
2519.958022
2519.131007
2520.114484
2519.309821
2515.733542
2516.627612
2521.142664
2520.494464
2523.310783
2519.913318
2522.8861
2522.8861
2524.271908
2522.908452
2529.524568
2531.46917
2533.838455
2530.195121
2527.445856
2529.859844
2529.591623
2526.842359
2530.888025
2531.513874
2527.959946
2530.373935
2526.685897
2526.507083
2532.251481
2532.251481
2525.568309
2521.366182
2519.958022
2518.125179
2516.672315
2521.299126
2524.048391
2527.155283
2524.29426
2511.911394
2517.275812
2523.646059
2521.880272
2521.165016
2522.483769
2519.309821
2515.666487
2519.131007
2512.447835
2500.623763
2503.842414
2504.04358
2505.988181
2516.60526
2515.375914
2514.995934
2507.530452
2501.070798
2500.84728
2501.048446
2502.344847
2509.922088
2516.024115
2514.593603
2512.581946
2507.441045
2511.754931
2520.092132
2526.618841
2508.469225
2502.411902
2505.004705
2504.982353
2510.570289
2516.158225
2514.951231
2506.591678
2498.567402
2503.440082
2507.910431
2502.680123
2499.416768
2503.417731
2514.325382
2517.901661
2513.386609
2525.389496
2525.501254
2518.683972
2516.202929
2511.844338
2524.830702
2553.820914
2558.559484
2546.891874
2540.029888
2542.913263
2546.735411
2544.500237
2537.124161
2526.998821
2515.107693
2504.736484
2500.4673
2500.132024
2495.393454
2484.239934
2486.117481
2492.420672
2494.991123
2497.293353
2501.204908
2493.828832
2479.233143
2478.80846
2486.340998
2493.493556
2494.141757
2483.54703
2476.528582
2497.092187
2535.201911
2553.396231
2595.14929
2704.046989
2789.900039
2857.759936
2832.994203
2713.881757
2615.422322
2638.355212
2735.764114
2706.438626
2465.106841
2303.369618
2382.159517
2523.109618
2597.943258
2600.670171
2591.349493
2587.147365
2599.753749
2612.96363
2623.424247
2640.076296
2642.892616
2639.137523
2637.595253
2646.424192
2662.070413
2666.049023
2672.598085
2682.812832
2690.680646
2704.292858
2712.406541
2725.057629
2737.574606
2744.525998
2755.076022
2766.453059
2782.434557
2802.97581
2814.285793
2832.033078
2848.752183
2876.110718
2903.849233
2924.435189
2956.129963
2992.09392
3019.743028
3050.275511
3092.699122
3136.150913
3177.725157
3215.186681
3249.474257
3287.539278
3322.720924
3342.077534
3347.53136
3354.818029
3350.86177
3334.522645
3295.921182
3245.339184
3183.916591
3106.490148
3014.78094
2927.38562
2852.171999
2792.492842
2742.134362
2685.204468
2646.088916
2626.531139
2594.858717
2572.283455
2561.956949
2550.781077
2539.739315
2531.692687
2531.536225
2535.470132
2533.167903
2530.038658
2532.340888
2527.557615
2512.671353
2511.196138
2515.420618
2523.109618
2521.589699
2520.516815
2523.131969
2518.974545
2522.774341
2525.367144
2523.444894
2527.803484
2528.496388
2523.489597
2526.708248
2530.686859
2527.356449
2524.093094
2519.645097
2529.770437
2533.614937
2530.06101
2528.295222
2534.039621
2530.843321
2523.713115
2526.551786
2529.479865
2535.000746
2537.6159
2533.436124
2540.208702
2549.350566
2533.436124
2525.434199
2528.563443
2528.943423
2528.362278
2532.162074
2530.820969
2527.088228
2526.507083
2522.349658
2522.036734
2528.384629
2528.116408
2518.236937
2512.134911
2510.927917
2518.639269
2521.656754
2520.516815
2526.171807
2514.057161
2509.452702
2504.580021
2498.92503
2510.637344
2513.118388
2501.22726
2504.110635
2510.033847
2508.044542
2503.216565
2500.087321
2506.502271
2514.660658
2512.157263
2509.586812
2515.957059
2522.461417
2516.09117
2509.698571
2511.039676
2510.413827
2507.664562
2511.799635
2512.358429
2515.241804
2513.453664
2507.463396
2505.272926
2508.379818
2513.878347
2512.514891
2519.42158
2519.488635
2509.899737
2503.931821
2505.71996
2513.163091
2518.125179
2510.167958
2509.497405
2511.777283
2514.146568
2515.219452
2520.852091
2519.399228
2518.259289
2524.897757
2530.843321
2527.132932
2523.646059
2518.862786
2527.781132
2544.187313
2558.023042
2543.38265
2540.141647
2560.772307
2567.120202
2553.172714
2540.767496
2524.383667
2520.740333
2505.049408
2492.040693
2487.547992
2494.544088
2497.51687
2497.628629
2496.779263
2498.343885
2492.532431
2486.072777
2485.98337
2492.510079
2505.764664
2504.69178
2492.934763
2492.912411
2499.126196
2499.327362
2507.105769
2537.280624
2566.047319
2630.062715
2732.746629
2820.879557
2896.406102
2858.497543
2742.134362
2671.39109
2734.892396
2832.524816
2733.52894
2426.483026
2305.783606
2429.008773
2566.919037
2618.551566
2602.547717
2589.494299
2596.400988
2609.722627
2628.07341
2642.892616
2648.994642
2650.738078
2658.225913
2667.457183
2671.234628
2675.034425
2679.035387
2690.054797
2698.816681
2710.059608
2721.190777
2734.914748
2750.404507
2760.708661
2768.50942
2776.220772
2787.73192
2801.768816
2819.717267
2838.023345
2860.620959
2880.357549
2899.892974
2933.487646
2961.337919
2993.479728
3031.701211
3064.35711
3099.650514
3131.300584
3169.119736
3213.867928
3247.395545
3277.726862
3307.633496
3344.916206
3381.193087
3402.069617
3394.760596
3384.881125
3362.797602
3320.843377
3263.153525
3191.069149
3117.330744
3033.019964
2943.322413
2867.371186
2799.600697
2743.967205
2701.342428
2663.746794
2635.024802
2612.628354
2603.575898
2587.572049
2566.516705
2554.737336
2547.60713
2541.862731
2539.515798
2542.689746
2539.985185
2537.682955
2535.69365
2537.012403
2536.85594
2525.098923
2525.344792
2528.13876
2522.349658
2521.589699
2526.21651
2528.451685
2532.095019
2539.359336
2539.135818
2536.632423
2542.756801
2545.416659
2540.767496
2538.442914
2535.380725
2539.359336
2540.298109
2552.725679
2561.264045
2550.669319
2533.726696
2527.691725
2535.067801
2545.908397
2549.842304
2540.141647
2537.951176
2542.980318
2544.388478
2546.623653
2541.192179
2539.404039
2539.493446
2538.711135
2542.198007
2547.562426
2547.093039
2541.303938
2540.298109
2536.811237
2535.380725
2535.492484
2537.839417
2539.02406
2536.922996
2532.251481
2531.268004
2533.704344
2540.342813
2541.97449
2536.408906
2537.347679
2530.709211
2529.837493
2524.696591
2526.283565
2530.686859
2526.127103
2526.440028
2529.41281
2535.984222
2533.90551
2518.572213
2506.792844
2514.951231
2522.215548
2526.484731
2534.151379
2531.692687
2523.847225
2513.65483
2510.480882
2510.592641
2514.079513
2519.287469
2520.807388
2525.478903
2531.647984
2536.677126
2528.295222
2518.90749
2521.902623
2529.457513
2526.797655
2521.030905
2513.543071
2528.094057
2547.495371
2560.213513
2558.693595
2559.14063
2562.60515
2565.019138
2559.565313
2553.530342
2545.774286
2526.931766
2512.000801
2505.272926
2501.383722
2496.734559
2495.035827
2493.314742
2498.03096
2500.623763
2498.701513
2492.398321
2489.336132
2497.069835
2498.723864
2503.976524
2504.960001
2502.188385
2492.174803
2493.180632
2501.070798
2514.615955
2530.038658
2548.881179
2619.11036
2735.048859
2836.346964
2922.557643
2894.97559
2787.016664
2715.513434
2777.137193
2815.246918
2643.607872
2332.203368
2280.794356
2433.121494
2566.203781
2611.376656
2595.082235
2570.763537
2575.815031
2593.048226
2608.582688
2623.960689
2637.30468
2646.893578
2652.056831
2651.565093
2656.102497
2658.985872
2657.980044
2669.446489
2684.310399
2695.441567
2697.185003
2707.310344
2726.890472
2734.9371
2733.439533
2737.842827
2759.188743
2777.628932
2791.06233
2808.720208
2825.461665
2851.166171
2874.881372
2899.557698
2925.798646
2960.846181
2993.367969
3029.220167
3066.346415
3111.496939
3151.595968
3180.697939
3216.281917
3254.771621
3292.3002
3321.357467
3350.235921
3361.925884
3362.998767
3349.207741
3322.989145
3277.659807
3209.956373
3132.127599
3048.241502
2961.427326
2888.158308
2816.588022
2747.834056
2685.986779
2640.925663
2606.883956
2585.068653
2568.75188
2552.502162
2538.398211
2535.626594
2536.118333
2530.485693
2522.528472
2517.454626
2511.017324
2509.497405
2510.592641
2511.464359
2513.65483
2515.845301
2515.152397
2515.599431
2512.045504
2504.065931
2496.175766
2492.800652
2494.231164
2498.388588
2501.607239
2500.601411
2504.289449
2503.484786
2505.339981
2508.268059
2508.960963
2509.452702
2514.750065
2512.358429
2514.861824
2512.045504
2512.559594
2512.581946
2505.652905
2502.300144
2502.814234
2508.312763
2509.855033
2507.776321
2502.322495
2494.119405
2495.818138
2499.349713
2500.087321
2501.808405
2496.287524
2494.544088
2500.132024
2503.775359
2499.640286
2493.985295
2491.481899
2494.432329
2492.219507
2485.648094
2486.273943
2490.34196
2490.364312
2482.13887
2485.379873
2490.610181
2485.111652
2476.550934
2476.126251
2482.205925
2493.337094
2492.040693
2483.994065
2477.512059
2481.445966
2483.189402
2483.323512
2485.692797
2490.85605
2485.022245
2479.724882
2488.017379
2499.059141
2498.254478
2492.666542
2482.965885
2491.347789
2499.081492
2495.885193
2488.665579
2484.597562
2497.38276
2510.749103
2519.667449
2518.348696
2511.039676
2516.269984
2527.468208
2529.569272
2521.008554
2509.720923
2490.34196
2477.154431
2469.040748
2463.609274
2461.016472
2470.068928
2475.433347
2471.097108
2466.202076
2466.693815
2473.488745
2478.249666
2470.22539
2458.55778
2451.539332
2451.025242
2457.998986
2462.134059
2468.996044
2475.813326
2482.988236
2508.40217
2527.512911
2598.010313
2710.08196
2794.39274
2865.337177
2811.760045
2689.406596
2613.254203
2654.292006
2735.942928
2631.739096
2351.425868
2267.428013
2397.537517
2530.351583
2570.048281
2567.142554
2559.408851
2557.844228
2569.154211
2577.759633
2586.007427
2598.300886
2609.141482
2617.769255
2625.704125
2634.533064
2630.777971
2637.68466
2649.73225
2663.143297
2672.642788
2673.089823
2678.94598
2698.727274
2720.676687
2732.925443
2740.480332
2750.873894
2760.485144
2777.248952
2791.643475
2814.911641
2839.811485
2858.385784
2882.525668
2917.483797
2950.340861
2983.086167
3013.573946
3050.208455
3093.526136
3129.735962
3165.744622
3208.369399
3250.860065
3279.604409
3304.884232
3332.958023
3352.538151
3352.806372
3334.857921
3301.956153
3255.084545
3187.314056
3105.171395
3019.251289
2935.476951
2857.737584
2780.914638
2719.782617
2670.74289
2621.971383
2591.841232
2564.616807
2553.686804
2542.712097
2528.719905
2515.822949
2509.117426
2504.110635
2495.102882
2491.057216
2492.711245
2503.082455
2497.449815
2486.564515
2486.452757
2487.503289
2488.79969
2487.816213
2488.397358
2483.368216
2478.942571
2484.709321
2485.670446
2480.015454
2485.156356
2484.597562
2479.613123
2478.719053
2486.765681
2489.246725
2487.168013
2483.971713
2485.379873
2486.653922
2490.118443
2497.315705
2491.973638
2485.223411
2490.587829
2494.477033
2495.125234
2493.02417
2491.191327
2486.720978
2489.626704
2488.509117
2492.510079
2494.432329
2489.69376
2484.977542
2483.770547
2476.930914
2476.528582
2488.263248
2482.13887
2475.589809
2477.936742
2478.070853
2484.418748
2484.195231
2476.170954
2472.102937
2467.431422
2467.096146
2470.113632
2474.896905
2477.892039
2475.813326
2466.269131
2461.016472
2462.692852
2465.8668
2464.995082
2463.899847
2469.241913
2468.213733
2461.910541
2472.549972
2483.904658
2476.930914
2467.498477
2468.191381
2470.583018
2471.767661
2465.285655
2471.11946
2486.162184
2500.512004
2497.136891
2487.726806
2495.661675
2506.412864
2506.636382
2494.499385
2490.409015
2478.070853
2457.976634
2449.59473
2445.414954
2445.929044
2442.866855
2434.015564
2438.843541
2442.688041
2446.376079
2445.884341
2444.923215
2445.303195
2442.173951
2439.916425
2439.290576
2438.396506
2440.274053
2438.597672
2443.649166
2457.976634
2474.136946
2498.343885
2525.054219
2612.203671
2727.158693
2808.250822
2848.148685
2758.138211
2628.922776
2566.047319
2631.225006
2702.549422
2549.1494
2277.396891
2267.763289
2412.647297
2525.165978
2549.931711
2545.416659
2532.586757
2541.59451
2562.918074
2575.904438
2585.202764
2592.355322
2602.503014
2602.435959
2603.061808
2610.728456
2613.47772
2621.904328
2630.979136
2640.724497
2651.967424
2661.913951
2665.62434
2678.94598
2695.486271
2709.277297
2718.620326
2733.305422
2748.079926
2761.71449
2779.551182
2805.501557
2833.754162
2858.430488
2886.593686
2914.242794
2936.125152
2972.536143
3012.813987
3056.265778
3099.047017
3136.463837
3166.728099
3206.625963
3249.988347
3283.940647
3308.952249
3327.101866
3334.768514
3333.606223
3315.858938
3274.329397
3217.041876
3146.924454
3057.025737
2969.451603
2886.526631
2812.542357
2742.581396
2677.247247
2630.554453
2600.044322
2577.759633
2549.194103
2521.947327
2507.619859
2504.714132
2495.728731
2487.458585
2484.95519
2486.87744
2484.530507
2480.753062
2473.242876
2470.113632
2469.823059
2470.627722
2478.920219
2482.183574
2478.29437
2472.795841
2470.359501
2474.06989
2479.590771
2480.462489
2479.166088
2477.087376
2476.930914
2477.333245
2474.472222
2477.26619
2484.195231
2479.635475
2480.507193
2488.911449
2493.985295
2485.737501
2480.753062
2484.664617
2488.866745
2489.604353
2490.543126
2489.358483
2488.553821
2491.23603
2487.190364
2482.697664
2478.450832
2483.994065
2484.932838
2484.329341
2489.894925
2492.577135
2480.641303
2477.489707
2480.35073
2483.323512
2489.69376
2489.246725
2484.776376
2483.368216
2483.68114
2480.864821
2471.857068
2467.78905
2471.857068
2467.543181
2466.224428
2476.550934
2482.205925
2474.092242
2470.404204
2471.588847
2472.371158
2473.42169
2475.455698
2473.958132
2475.768623
2475.031015
2469.174858
2472.371158
2473.198172
2469.621893
2472.304102
2470.515963
2467.945512
2472.840544
2476.617989
2476.394472
2465.173896
2457.753117
2453.975672
2452.992195
2462.245817
2476.975617
2479.724882
2470.381852
2467.163201
2466.716166
2468.928989
2473.980483
2479.456661
2481.222448
2477.646169
2468.325492
2460.301216
2468.884286
2477.132079
2480.149565
2485.84926
2485.670446
2484.150527
2474.941608
2472.66173
2494.678199
2510.883213
2506.882251
2495.169937
2498.679161
2510.704399
2517.186405
2508.960963
2500.512004
2498.433292
2484.463451
2463.318701
2448.790067
2447.940701
2449.21475
2446.309024
2443.939739
2448.141867
2449.170047
2451.964015
2455.36148
2460.122402
2454.46741
2447.270149
2448.208922
2458.758945
2463.877495
2457.373137
2457.730765
2465.978559
2490.118443
2516.493501
2545.908397
2635.315375
2728.097466
2822.846511
2872.176811
2789.453005
2695.888602
2680.555306
2769.358786
2764.217885
2505.317629
2245.769172
2295.881783
2445.280843
2556.078441
2579.033682
2560.146458
2548.970586
2561.621673
2587.303828
2600.603116
2604.984058
2607.95684
2603.21827
2608.068598
2618.350401
2626.508787
2637.595253
2638.645785
2638.71284
2650.849837
2666.3843
2670.385262
2678.342483
2695.933306
2710.730161
2720.430818
2729.975013
2739.027469
2764.709623
2795.130348
2813.324668
2824.053505
2839.185636
2864.420755
2894.32739
2926.066867
2969.652768
3005.102635
3025.330964
3054.745859
3096.633029
3133.401648
3169.790288
3208.25764
3253.788144
3293.216621
3316.127159
3328.487674
3343.597453
3343.508046
3320.485749
3288.478051
3241.941719
3175.937018
3094.643723
3008.522452
2921.194186
2842.516046
2774.477336
2707.735027
2660.550494
2628.319279
2597.116243
2573.736319
2548.523551
2537.10181
2533.324365
2523.422542
2513.855995
2514.660658
2517.007591
2506.792844
2496.421635
2498.589754
2505.943478
2506.435216
2503.127158
2506.569327
2517.521681
2511.106731
2499.975562
2497.539222
2497.829795
2499.461472
2496.980428
2497.829795
2501.964867
2503.194213
2505.898774
2511.911394
2510.257365
2503.596545
2501.249612
2507.329286
2520.136836
2520.628574
2517.342868
2515.085341
2519.980373
2518.66162
2520.427408
2515.778245
2510.100902
2508.625687
2510.346772
2511.397304
2514.034809
2515.398266
2517.49933
2508.715094
2502.143681
2501.853109
2507.12812
2500.422597
2495.169937
2498.947382
2505.272926
2510.83851
2506.166995
2500.914335
2501.182556
2491.146623
2489.112614
2487.726806
2490.699588
2502.76953
2504.803539
2496.175766
2486.564515
2486.720978
2477.936742
2478.719053
2488.352655
2486.832736
2483.435271
2486.609219
2495.125234
2499.640286
2493.582963
2485.826908
2487.547992
2495.102882
2500.489652
2500.444949
2499.416768
2489.291428
2484.195231
2489.894925
2498.27683
2503.529489
2512.939574
2503.484786
2497.38276
2507.575155
2503.775359
2500.310838
2501.584888
2515.465321
2532.832626
2540.231054
2531.268004
2529.301051
2532.653812
2537.191217
2544.589644
2537.548845
2522.997859
2494.789957
2479.344902
2479.344902
2484.642265
2479.948399
2460.301216
2460.860009
2469.532486
2469.800707
2469.688948
2474.360463
2486.49746
2489.112614
2480.395434
2474.516925
2482.407091
2491.683065
2493.761777
2493.270039
2493.068873
2496.175766
2504.803539
2518.795731
2538.800542
2626.464084
2749.28692
2863.280816
2935.946338
2886.928962
2764.66492
2693.787538
2758.585245
2756.886513
2524.897757
2242.975204
2272.278341
2453.282768
2579.637179
2619.378581
2596.110415
2585.068653
2578.541944
2579.994807
2596.870374
2614.640011
2625.033572
2621.233776
2624.005392
2635.583596
2644.725459
2652.079183
2666.943093
2676.442585
2684.288047
2687.976085
2693.653428
2711.199547
2726.979879
2733.864216
2734.847693
2750.382155
2779.01474
2797.633743
2808.027304
2815.001048
2829.194406
2850.540322
2874.814317
2901.301134
2931.587748
2972.759661
3007.360161
3033.377592
3062.837191
3105.730189
3148.936111
3183.760128
3216.661896
3252.245873
3285.907601
3311.053313
3331.013421
3357.433183
3350.973529
3315.478959
3261.253626
3210.55987
3149.249035
3073.834249
2993.233859
2921.909442
2851.367337
2781.942818
2723.962393
2682.499907
2652.16859
2623.223081
2598.814976
2585.091005
2573.311636
2547.003632
2536.498313
2541.169827
2538.934653
2536.364202
2536.565368
2523.310783
2519.198062
2518.505158
2524.987164
2525.344792
2515.375914
2513.252498
2515.778245
2517.856958
2518.706324
2521.656754
2520.986202
2510.078551
2514.325382
2517.946365
2508.379818
2508.223356
2516.940536
2522.439065
2517.275812
2519.131007
2517.208757
2521.813216
2529.904548
2533.078496
2530.686859
2530.820969
2533.681993
2541.192179
2543.829685
2544.433182
2540.968661
2537.571196
2535.268967
2541.326289
2546.310728
2540.722792
2536.364202
2542.779153
2545.461362
2541.169827
2528.563443
2520.717981
2530.172769
2531.379763
2530.798618
2531.33506
2535.961871
2537.302975
2528.921071
2531.60328
2540.745144
2536.408906
2525.545958
2526.797655
2534.509007
2541.326289
2543.784981
2549.28351
2569.087156
2567.410775
2551.96572
2555.29613
2555.29613
2559.386499
2561.621673
2555.385537
2549.819952
2545.036679
2531.513874
2510.614992
2506.435216
2515.822949
2512.693705
2504.155338
2505.228222
2511.039676
2508.893908
2500.623763
2503.060103
2510.369123
2520.181539
2509.698571
2497.114539
2497.785091
2506.971658
2504.311801
2495.996952
2492.554783
2505.049408
2527.177635
2540.499275
2567.187258
2651.162762
2770.074042
2866.879447
2922.356477
2876.825974
2758.473487
2708.271469
2790.816461
2767.235371
2502.031923
2259.180219
2318.25588
2475.969789
2581.69354
2610.39318
2593.74113
2574.943313
2571.434089
2594.702255
2614.058866
2621.390238
2629.190997
2638.891654
2645.910102
2653.286177
2660.326977
2662.405689
2665.713747
2676.487288
2683.013997
2693.072282
2709.18789
2719.201472
2727.203396
2738.669841
2747.968167
2764.083775
2784.379159
2797.432577
2808.139063
2815.157511
2842.069011
2867.639407
2886.347817
2908.94543
2934.269957
2959.415669
2994.709074
3031.321231
3070.839115
3115.632011
3158.122678
3195.204222
3230.832902
3274.552914
3309.645153
3330.544034
3344.06684
3343.843322
3335.059087
3297.083473
3243.6181
3185.771785
3110.468758
3020.055952
2930.112532
2865.895971
2812.899984
2743.52017
2680.421195
2643.876093
2617.232814
2594.366979
2575.92679
2569.869467
2566.628464
2557.710118
2542.86856
2533.659641
2535.157208
2539.02406
2541.996842
2537.973528
2528.943423
2533.503179
2533.7714
2528.921071
2523.869577
2528.071705
2533.078496
2527.62467
2523.020211
2525.32244
2526.797655
2527.535263
2521.612051
2529.323403
2533.302013
2533.547882
2528.675202
2530.128065
2531.647984
2534.151379
2539.918129
2545.170789
2549.127048
2551.20576
2545.215493
2543.829685
2545.617824
2543.583816
2540.298109
2543.494409
2554.200894
2557.486601
2552.770382
2547.294205
2549.574083
2549.730545
2549.082345
2543.203836
2540.633385
2534.374897
2529.278699
2526.551786
2531.156246
2534.844283
2536.230092
2542.533284
2546.601301
2543.717926
2540.275757
2529.524568
2530.105714
2533.614937
2528.988126
2530.619804
2532.005612
2526.417676
2527.468208
2527.356449
2540.253406
2534.665469
2517.611088
2527.848187
2553.843266
2561.644025
2554.044432
2553.038603
2552.077478
2557.330138
2563.454516
2557.531304
2545.282548
2525.724772
2513.14074
2505.496443
2507.262231
2514.884176
2509.385647
2503.060103
2504.267097
2507.262231
2509.318591
2515.1971
2518.616917
2515.286507
2510.167958
2503.484786
2495.907545
2498.723864
2512.403132
2521.656754
2514.16892
2503.082455
2517.611088
2542.689746
2555.743165
2618.797436
2735.83117
2831.027249
2913.818111
2898.887145
2796.918487
2730.33264
2782.322798
2839.275043
2706.349219
2395.302343
2314.210214
2446.823114
2572.931656
2627.425209
2621.770218
2594.881069
2583.593438
2611.80134
2628.565148
2625.190035
2621.569052
2630.107418
2643.294948
2653.219122
2655.63311
2663.411518
2676.12966
2684.623323
2689.786576
2697.27441
2702.348256
2711.780693
2719.022658
2730.71262
2743.2743
2757.221789
2769.627007
2781.048749
2803.735769
2827.272156
2842.940729
2855.658872
2882.257448
2909.280707
2922.736457
2950.117344
2979.688702
3017.664315
3060.020871
3090.151023
3127.299622
3169.678529
3203.25085
3236.845522
3277.816269
3305.063046
3320.61986
3328.085342
3324.397305
3298.312819
3267.020377
3209.844614
3140.196579
3066.03349
2980.515716
2893.56743
2818.912604
2763.435574
2713.814701
2667.859515
2632.968442
2618.417456
2597.026837
2575.233886
2560.772307
2548.747068
2540.320461
2542.220359
2538.085286
2539.582853
2532.787923
2532.340888
2529.837493
2524.428371
2529.03283
2537.079458
2532.542054
2529.748086
2526.015344
2524.338964
2522.796693
2523.40019
2529.189292
2529.725734
2534.531359
2529.323403
2535.090153
2539.180522
2534.307842
2526.574138
2538.733487
2539.962833
2525.009516
2524.16015
2535.268967
2546.355432
2541.192179
2542.35447
2543.38265
2542.198007
2537.839417
2533.056144
2538.957004
2539.068763
2539.560502
2530.016307
2521.209719
2525.456551
2528.675202
2532.005612
2535.850112
2546.891874
2543.159132
2531.625632
2518.482807
2522.461417
2531.268004
2526.842359
2514.437141
2518.52751
2518.90749
2520.092132
2525.076571
2524.003687
2520.628574
2517.208757
2508.893908
2506.815196
2515.644135
2516.515853
2511.039676
2513.498367
2519.153359
2523.847225
2520.58387
2511.464359
2519.131007
2514.638306
2501.070798
2502.925992
2506.47992
2513.587774
2513.051333
2510.704399
2512.112559
2515.599431
2515.644135
2513.923051
2513.610126
2516.918184
2511.978449
2507.64221
2502.590716
2506.345809
2508.871556
2512.067856
2514.615955
2506.904603
2507.552803
2507.016362
2503.484786
2503.909469
2505.764664
2508.737446
2503.618896
2505.07176
2507.731617
2509.698571
2514.392437
2517.588737
2524.942461
2520.472112
2511.419655
2519.958022
2520.539167
2511.531414
2509.340943
2517.611088
2526.864711
2534.531359
2539.784019
2528.384629
2529.859844
2537.012403
2545.193141
2542.466228
2531.156246
2524.987164
2511.933745
2492.420672
2488.173841
2488.844393
2482.071815
2483.234105
2487.458585
2486.966847
2489.000856
2492.107748
2494.94642
2489.246725
2491.37014
2493.895888
2487.570344
2490.453719
2489.939629
2484.128175
2485.782204
2495.281696
2509.072722
2532.944385
2553.50799
2633.236663
2735.205321
2807.535566
2866.834744
2816.342153
2711.11014
2686.702035
2758.741708
2806.082702
2636.701183
2366.736813
2349.883598
2468.504306
2574.742147
2594.568145
2577.402005
2568.908342
2578.452537
2590.254258
2602.212441
2614.640011
2621.5467
2621.837273
2613.947107
2623.759523
2636.41061
2649.173456
2652.056831
2648.994642
2659.187038
2680.622361
2686.545573
2688.221954
2699.017846
2711.020733
2721.10137
2732.478408
2746.537655
2769.761118
2790.794109
2801.858223
2811.804749
2834.849398
2849.936825
2872.959122
2898.641276
2936.549835
2974.436042
2991.803347
3019.631269
3068.134554
3105.283154
3138.743715
3172.584256
3211.744513
3245.517998
3263.287635
3284.857069
3301.866746
3305.465377
3297.374046
3275.536391
3238.141923
3181.033216
3099.538755
3017.194929
2939.813189
2864.241941
2799.421883
2736.300556
2682.92459
2643.987852
2615.802302
2595.618677
2576.195011
2556.45842
2547.137743
2537.437086
2532.162074
2534.352545
2531.715039
2526.350621
2522.573176
2513.945402
2518.616917
2522.081437
2517.789902
2516.113522
2520.203891
2523.668411
2519.488635
2511.062027
2519.265118
2518.236937
2513.610126
2508.089245
2509.05037
2515.510024
2519.198062
2510.212661
2511.844338
2515.778245
2518.549862
2521.589699
2525.769475
2533.033792
2528.094057
2516.895833
2519.533338
2524.651888
2525.255385
2524.271908
2519.667449
2518.169882
2515.666487
2512.470187
2519.086304
2523.489597
2522.975507
2517.342868
2506.815196
2509.631516
2515.286507
2513.207795
2514.81712
2512.425484
2504.155338
2499.014437
2498.232126
2504.311801
2508.044542
2506.211699
2492.085396
2488.464414
2494.029998
2490.140795
2484.105824
2489.917277
2489.403187
2491.347789
2494.789957
2496.220469
2495.169937
2493.202984
2488.464414
2479.635475
2481.580076
2489.246725
2493.806481
2488.956152
2489.961981
2492.063045
2485.379873
2485.044597
2485.961018
2486.653922
2485.402225
2486.631571
2484.508155
2486.944495
2485.312818
2477.91439
2483.591733
2491.839527
2490.096091
2487.860917
2476.215658
2480.641303
2486.340998
2479.344902
2471.387681
2474.248704
2471.521791
2475.47805
2473.891076
2474.651036
2474.472222
2472.192344
2474.896905
2477.154431
2483.256457
2486.095129
2481.021283
2481.021283
2482.116518
2481.043635
2471.812364
2470.471259
2470.694777
2469.376024
2466.89498
2474.874553
2487.078606
2482.317684
2468.414899
2464.413937
2467.319663
2469.130155
2473.533448
2480.931876
2487.704454
2485.513983
2476.014492
2471.745309
2471.678254
2471.477088
2472.840544
2471.052405
2476.819155
2479.613123
2483.524678
2478.339073
2482.809422
2489.716111
2485.558687
2475.053367
2471.879419
2474.494573
2478.607294
2479.635475
2480.574248
2479.970751
2477.579114
2479.099033
2490.297257
2506.211699
2496.823966
2482.295332
2480.976579
2477.512059
2482.742367
2481.401262
2493.53826
2517.007591
2534.710173
2527.62467
2517.298164
2516.873481
2527.468208
2515.845301
2497.740388
2490.163146
2487.883268
2477.445004
2462.983425
2455.093259
2455.473239
2465.889152
2471.857068
2473.980483
2470.113632
2458.915408
2454.087431
2457.14962
2461.016472
2469.353672
2463.855143
2449.438268
2450.86878
2460.122402
2461.239989
2461.999948
2479.858992
2503.462434
2553.597397
2655.811924
2727.851597
2792.269324
2794.839775
2681.89641
2591.215383
2619.222119
2713.367666
2697.967314
2480.708358
2296.507632
2357.840819
2484.977542
2545.751935
2540.253406
2532.966737
2532.542054
2544.388478
2560.6829
2571.054109
2574.295112
2580.374787
2589.449595
2597.809148
2609.588517
2612.874223
2617.232814
2627.805189
2635.807113
2638.936357
2654.917855
2673.55921
2676.152012
2685.204468
2692.602896
2699.375474
2710.528995
2719.961431
2731.919614
2751.320928
2770.208153
2791.129385
2812.989391
2833.351831
2856.307072
2884.671436
2913.818111
2946.786934
2983.332036
3017.127874
3048.129743
3087.9382
3122.851625
3157.921512
3185.794137
3209.688152
3248.110801
3272.921237
3278.151545
3274.23999
3262.32651
3239.483027
3202.557946
3150.120753
3081.165621
3006.130815
2927.229157
2846.584063
2777.539525
2715.871062
2667.166611
2622.44077
2591.707121
2568.349548
2544.589644
2524.67424
2522.148493
2515.979411
2505.541146
2495.281696
2486.005722
2485.312818
2489.269076
2494.409978
2488.41971
2488.106786
2482.13887
2475.47805
2476.327416
2479.456661
2482.317684
2481.736539
2477.735576
2476.081547
2473.891076
2472.974655
2477.310893
2486.832736
2492.957114
2493.091225
2487.90562
2476.036844
2477.065024
2480.820117
2483.725844
2482.675312
2486.832736
2486.206888
2484.821079
2495.59462
2498.366236
2490.453719
2483.994065
2478.316722
2475.098071
2479.948399
2481.75889
2484.485803
2487.257419
2488.79969
2486.720978
2481.803594
2470.337149
2460.636492
2465.665634
2464.033957
2464.32453
2470.448908
2482.183574
2480.887172
2479.613123
2477.735576
2478.383777
2471.655902
2468.057271
2474.382815
2472.594675
2465.933855
2460.345919
2463.139887
2469.823059
2471.678254
2469.644245
2471.454736
2474.427518
2470.381852
2460.636492
2456.836695
2459.228332
2463.743384
2463.206942
2463.519867
2463.341053
2463.631626
2462.849315
2461.262341
2466.962036
2477.936742
2475.47805
2464.07866
2463.139887
2465.285655
2468.101974
2462.201114
2466.827925
2468.660768
2466.716166
2467.833754
2465.039786
2469.666597
2471.432384
2463.81044
2461.150582
2467.878457
2469.107803
2473.309931
2472.684082
2472.371158
2475.545105
2464.905675
2461.50821
2467.498477
2466.89498
2467.207905
2465.330358
2460.502381
2466.850277
2463.698681
2456.546123
2457.775469
2462.938722
2466.984387
2467.029091
2467.923161
2469.308969
2470.627722
2464.860972
2459.787126
2464.659806
2469.241913
2467.230256
2468.973693
2474.986312
2472.52762
2471.186515
2472.281751
2468.861934
2471.298274
2465.777393
2459.250684
2471.924123
2486.564515
2480.507193
2474.651036
2483.859954
2493.292391
2489.112614
2494.588792
2512.179615
2508.446873
2498.321533
2500.064969
2512.38078
2521.924975
2522.729638
2512.716056
2492.621838
2477.735576
2466.984387
2452.209884
2440.586977
2448.298329
2452.54516
2452.858085
2453.506285
2458.066041
2460.077698
2453.796858
2448.991233
2451.852256
2454.042727
2448.097163
2445.459657
2445.303195
2451.360518
2459.027166
2479.657826
2505.272926
2542.443877
2637.30468
2717.972126
2790.078853
2812.095322
2722.151902
2609.521462
2591.148328
2674.810907
2704.784597
2517.834606
2291.076158
2315.886595
2455.450887
2548.680013
2549.819952
2530.977432
2531.46917
2553.150362
2566.717871
2576.239714
2588.667284
2589.315485
2588.913153
2595.909249
2606.794549
2613.745941
2609.588517
2619.691505
2632.744924
2644.814866
2657.600064
2670.027634
2682.566963
2687.618457
2695.888602
2702.594126
2712.361838
2733.774809
2755.031318
2771.750423
2784.379159
2800.092435
2823.60647
2846.360546
2868.868753
2898.708331
2928.391448
2955.70528
2991.356312
3031.05301
3066.972264
3103.226793
3145.069259
3185.503565
3221.467521
3255.53158
3280.677292
3306.560613
3326.990107
3330.901662
3314.718999
3285.684083
3242.232292
3188.833974
3123.030439
3043.011194
2963.371928
2879.843459
2803.4899
2736.34526
2686.098538
2645.194846
2606.928659
2573.423394
2552.032775
2540.253406
2525.389496
2516.001763
2507.083417
2502.166033
2502.814234
2500.243783
2496.756911
2495.035827
2489.291428
2478.272018
2478.719053
2479.791937
2481.490669
2484.329341
2488.822042
2490.744292
2484.262286
2479.523716
2479.881344
2485.044597
2488.665579
2485.782204
2485.759853
2490.051388
2492.532431
2491.817175
2488.464414
2483.748196
2491.414844
2496.891021
2490.565478
2492.26421
2499.081492
2493.605315
2490.185498
2487.056254
2489.403187
2489.023207
2482.585905
2481.177745
2487.436233
2493.135928
2490.073739
2487.100957
2493.873536
2499.372065
2496.935725
2485.513983
2480.909524
2484.038768
2476.707396
2477.623818
2485.98337
2496.399283
2488.889097
2473.645207
2470.515963
2471.924123
2470.001873
2467.252608
2469.666597
2473.891076
2477.824983
2479.747233
2478.070853
2483.189402
2483.144699
2475.589809
2471.275922
2472.594675
2469.733652
2465.218599
2463.43046
2467.051443
2470.404204
2472.080585
2470.560666
2472.326454
2467.498477
2461.552913
2465.285655
2464.883323
2466.76087
2465.576227
2460.971768
2465.218599
2470.761832
2471.097108
2469.465431
2466.76087
2465.889152
2468.839582
2478.495536
2471.946475
2467.78905
2464.391585
2467.833754
2469.845411
2462.692852
2457.775469
2458.334262
2462.737556
2464.369233
2464.570399
2465.308006
2463.005777
2465.844448
2469.241913
2470.515963
2468.616065
2468.392547
2474.852201
2465.620931
2458.647187
2462.804611
2468.370195
2466.671463
2466.872629
2471.521791
2474.762794
2472.751137
2470.068928
2474.494573
2489.17967
2497.494518
2504.155338
2518.415751
2515.264155
2507.843376
2508.066894
2514.660658
2515.666487
2507.463396
2506.055237
2498.768568
2480.08251
2460.167105
2445.213788
2433.613233
2438.150637
2455.763812
2463.273998
2455.763812
2450.779373
2449.393564
2452.075774
2453.528637
2456.300253
2464.860972
2472.438213
2462.625797
2456.501419
2456.657881
2467.766698
2487.235068
2495.169937
2525.925937
2620.362058
2723.716524
2815.291621
2850.965005
2761.312158
2656.974215
2645.217198
2751.656205
2787.463699
2561.375804
2290.271496
2298.184013
2437.793009
2544.299071
2566.628464
2560.504086
2556.883103
2561.934598
2575.971493
2583.325217
2590.008389
2601.027799
2611.644877
2617.590441
2625.704125
2638.042288
2645.88775
2647.094744
2654.895503
2671.301683
2683.30457
2689.428948
2696.000361
2702.661181
2717.234518
2730.869082
2737.686364
2746.738821
2769.314083
2792.738711
2808.22847
2822.690049
2846.360546
2874.568447
2905.167986
2934.448771
2961.47203
2993.211507
3034.495179
3080.651531
3123.544529
3159.128506
3187.939905
3229.089466
3270.328435
3310.203947
3340.535264
3358.818991
3368.854924
3366.865619
3357.254369
3333.203892
3288.433348
3223.345068
3150.299567
3060.333796
2977.833507
2900.183547
2826.020458
2758.406431
2702.862347
2659.812887
2621.859625
2588.264953
2570.316502
2564.460345
2550.378746
2531.916205
2522.975507
2520.06978
2526.194158
2520.516815
2517.834606
2520.06978
2512.492539
2507.061065
2504.311801
2510.816158
2519.533338
2513.431312
2507.038713
2503.373027
2501.428425
2505.764664
2510.033847
2510.816158
2510.525585
2509.720923
2507.5081
2512.581946
2519.913318
2520.31565
2517.789902
2517.588737
2518.52751
2518.281641
2519.913318
2522.975507
2531.424467
2527.803484
2523.534301
2518.90749
2525.031868
2531.98326
2526.261214
2522.774341
2518.639269
2522.595527
2519.913318
2519.175711
2520.539167
2522.103789
2521.634402
2520.06978
2519.063952
2518.058123
2519.086304
2520.58387
2517.231109
2514.057161
2514.437141
2514.146568
2511.821987
2507.061065
2509.56446
2509.184481
2506.47992
2509.519757
2513.945402
2521.85792
2517.968716
2518.236937
2510.883213
2504.021228
2504.244745
2506.010533
2512.76076
2508.133949
2510.97262
2505.407036
2503.976524
2506.502271
2508.938612
2504.55767
2506.99401
2513.923051
2507.910431
2506.457568
2507.441045
2513.185443
2507.552803
2502.054274
2502.925992
2516.381743
2518.572213
2515.442969
2516.940536
2519.510987
2533.167903
2530.709211
2524.093094
2518.348696
2511.576117
2518.125179
2539.381688
2550.646967
2543.203836
2540.856903
2547.070688
2561.107583
2556.994862
2542.443877
2539.091115
2519.734504
2499.640286
2493.359446
2485.201059
2488.442062
2499.43912
2503.484786
2497.338056
2493.940591
2495.46051
2491.347789
2488.106786
2490.006684
2497.00278
2489.582001
2483.614085
2490.185498
2495.259344
2502.501309
2503.775359
2522.528472
2549.551731
2596.848023
2696.648562
2803.668714
2895.914363
2919.696619
2819.359639
2701.297724
2706.058646
2772.040996
2686.277352
2396.822261
2243.243425
2382.003055
2537.705307
2610.840215
2617.255165
2607.688619
2596.021008
2595.01518
2610.437883
2625.793532
2642.602043
2642.892616
2643.160837
2649.374622
2656.348366
2666.205486
2673.31334
2675.816736
2683.125756
2686.836146
2690.568887
2710.394884
2730.645565
2737.328736
2743.743687
2752.75144
2767.056557
2783.23922
2789.073025
2805.836833
2823.785284
2846.628767
2868.175849
2889.432357
2921.954146
2956.778164
2985.343693
3013.953926
3047.235673
3080.048034
3114.782645
3149.673718
3190.398597
3236.018507
3276.363406
3313.914336
3350.325328
3361.076517
3350.325328
3341.854017
3323.257366
3290.355598
3236.532597
3156.289835
3072.470793
2991.646885
2909.236003
2840.057354
2777.338359
2724.141207
2668.44066
2630.554453
2604.000581
2580.441842
2565.577932
2558.067746
2545.170789
2537.370031
2531.268004
2525.903586
2518.482807
2508.335115
2509.787978
2515.06299
2509.586812
2510.235013
2516.672315
2519.55569
2511.643173
2506.792844
2516.962888
2514.101865
2499.260306
2500.690818
2501.517832
2503.931821
2508.513928
2506.658734
2508.223356
2522.170844
2515.688838
2492.241859
2502.009571
2516.024115
2509.117426
2507.843376
2514.437141
2522.081437
2513.900699
2513.855995
2521.544995
2530.865673
2524.540129
2520.203891
2520.427408
2521.075609
2528.362278
2529.301051
2518.52751
2508.893908
2509.273888
2511.285545
2510.503234
2512.067856
2513.051333
2514.101865
2513.27485
2504.311801
2503.507138
2509.095074
2519.332173
2510.905565
2513.923051
2517.946365
2513.364257
2520.852091
2516.828777
2516.60526
2529.233996
2540.70044
2533.123199
2522.416714
2522.662583
2520.31565
2539.381688
2537.6159
2516.60526
2504.758835
2491.683065
2486.050425
2477.065024
2470.515963
2474.807498
2479.121385
2485.268114
2482.630608
2481.535373
2480.171917
2480.440137
2478.897867
2482.340036
2483.077643
2477.199134
2476.439175
2477.377948
2477.042672
2476.595637
2474.002835
2483.010588
2506.234051
2527.445856
2548.098868
2636.678831
2763.301464
2865.851267
2912.678172
2838.671546
2722.263661
2703.577602
2784.312103
2736.591129
2463.609274
2238.370745
2326.615432
2492.26421
2590.120147
2612.002505
2589.941334
2569.444784
2571.501144
2593.249392
2607.308639
2606.749845
2616.875186
2627.648726
2633.59429
2633.706049
2635.918872
2647.877055
2656.415422
2667.881866
2682.008169
2695.754492
2703.532899
2706.393922
2707.064474
2716.005172
2732.25489
2742.894321
2755.880684
2775.706682
2790.101205
2813.503482
2838.895063
2854.854209
2876.021311
2902.351666
2931.632451
2964.914199
3010.243536
3045.894569
3080.964456
3115.877881
3154.188771
3187.559925
3224.708524
3269.903752
3307.968772
3325.134912
3332.958023
3338.210683
3331.840435
3301.129139
3247.97669
3182.709596
3104.277325
3021.039429
2936.773352
2856.038851
2775.840792
2722.531882
2681.963465
2639.919834
2600.53606
2573.088118
2555.05026
2546.824818
2537.817065
2530.016307
2526.685897
2523.444894
2520.986202
2515.107693
2512.939574
2513.967754
2509.698571
2505.58585
2500.444949
2499.684989
2500.154376
2503.775359
2500.243783
2500.668466
2502.25544
2498.120367
2501.093149
2502.031923
2499.506175
2495.281696
2497.069835
2500.534356
2501.316667
2496.131062
2496.645152
2501.651943
2501.674295
2500.132024
2504.892946
2510.212661
2505.652905
2503.373027
2505.787016
2513.252498
2513.900699
2510.793806
2505.854071
2508.357466
2514.347734
2506.904603
2499.43912
2500.869632
2502.791882
2505.317629
2506.189347
2503.730655
2508.91626
2505.407036
2501.562536
2502.747178
2494.074702
2491.794824
2493.314742
2499.796748
2509.855033
2506.010533
2504.55767
2511.464359
2514.079513
2512.693705
2505.161167
2507.776321
2522.349658
2536.498313
2520.852091
2506.681085
2515.331211
2520.941498
2529.479865
2525.076571
2515.174748
2496.48869
2479.769585
2469.0631
2470.113632
2472.52762
2472.594675
2468.236085
2467.900809
2469.465431
2468.057271
2468.616065
2466.336187
2465.889152
2463.698681
2466.582056
2464.592751
2468.951341
2471.477088
2471.924123
2477.668521
2487.995027
2484.821079
2497.89685
2513.878347
2545.148438
2640.344517
2750.404507
2840.482037
2894.282686
2834.11179
2727.158693
2695.59803
2776.153717
2759.591074
2512.157263
2270.914885
2334.66206
2493.135928
2592.578839
2596.93743
2573.043415
2561.19699
2571.992883
2589.918982
2599.597287
2605.27463
2611.622526
2621.524348
2622.619584
2631.53793
2636.522369
2637.349384
2647.050041
2660.125811
2673.916837
2683.952771
2690.904163
2703.376437
2709.143187
2721.682515
2730.824379
2739.273338
2760.865123
2776.06431
2792.269324
2813.61524
2824.657002
2849.310976
2882.682131
2904.58684
2926.469198
2963.975425
2997.637152
3030.807141
3073.320159
3117.464854
3154.836971
3187.716387
3221.780446
3257.856161
3291.651999
3314.920165
3330.275813
3335.841398
3325.35843
3294.043636
3247.060269
3179.334483
3107.473625
3021.754685
2930.626623
2850.875598
2784.446214
2728.812722
2679.191849
2641.819732
2609.990848
2586.588572
2566.136726
2548.054164
2542.734449
2535.31367
2526.440028
2523.26608
2525.456551
2520.650926
2515.107693
2508.446873
2500.19908
2500.087321
2500.422597
2503.350676
2499.752045
2502.12133
2494.208812
2493.180632
2501.115501
2507.999838
2507.463396
2500.064969
2496.891021
2496.198117
2496.935725
2500.489652
2503.976524
2511.576117
2510.704399
2511.911394
2509.452702
2508.245708
2512.358429
2510.190309
2508.290411
2516.73937
2526.328269
2523.26608
2518.52751
2517.186405
2515.018286
2513.990106
2509.162129
2510.816158
2516.337039
2520.181539
2518.460455
2514.772417
2507.016362
2506.524623
2500.422597
2500.512004
2512.917222
2515.666487
2507.016362
2499.081492
2497.963905
2502.300144
2501.316667
2497.606277
2494.588792
2494.275867
2491.839527
2493.426501
2496.153414
2499.841452
2495.996952
2496.041655
2497.405111
2494.454681
2479.300198
2478.16026
2484.977542
2489.246725
2488.129138
2485.491632
2483.077643
2484.463451
2486.050425
2479.590771
2478.383777
2485.201059
2485.692797
2480.507193
2481.915353
2483.435271
2488.79969
2493.650018
2487.01155
2492.487728
2500.109673
2497.539222
2487.592696
2489.023207
2505.787016
2521.299126
2532.542054
2519.55569
2508.335115
2509.81033
2521.187368
2523.489597
2516.60526
2507.12812
2490.990161
2482.876478
2473.756966
2471.879419
2465.084489
2461.575265
2460.748251
2461.955245
2465.844448
2460.748251
2456.926102
2459.116573
2460.010643
2462.91637
2468.213733
2462.290521
2455.763812
2454.378003
2456.702585
2466.716166
2467.900809
2487.235068
2511.419655
2531.692687
2613.231851
2727.225748
2816.29745
2869.561657
2806.95442
2697.229707
2660.774012
2736.121742
2771.079871
2588.242601
2301.112092
2297.021722
2435.62489
2549.730545
2578.072557
2570.048281
2555.385537
2557.978339
2561.666377
2578.407833
2590.477775
2604.358209
2607.912136
2612.941279
2617.210462
2618.886843
2619.602098
2629.2357
2637.885825
2644.904273
2651.341576
2666.361948
2673.469803
2679.437718
2690.501832
2701.074207
2719.894376
2738.803952
2746.515303
2759.233446
2778.523001
2800.226545
2816.029229
2831.608395
2866.186543
2903.69277
2928.234986
2951.592559
2984.226106
3017.485501
3058.85858
3095.068406
3133.647517
3179.312131
3211.230422
3240.444152
3272.094223
3295.295333
3309.511043
3306.650019
3287.069891
3255.509228
3207.117701
3143.750506
3064.982958
2980.672178
2902.53048
2831.898967
2761.938007
2700.805986
2655.320186
2609.208537
2576.686749
2555.586702
2542.332118
2532.87733
2520.06978
2505.563498
2501.249612
2500.71317
2502.546013
2502.188385
2492.040693
2482.429443
2479.009626
2484.306989
2492.353617
2496.511042
2485.268114
2476.103899
2476.997969
2491.23603
2490.029036
2477.713225
2484.932838
2484.262286
2479.791937
2477.288541
2478.67435
2479.054329
2486.765681
2496.846318
2498.679161
2495.505213
2491.258382
2493.270039
2492.353617
2494.655847
2494.94642
2490.699588
2487.995027
2489.112614
2499.684989
2501.160205
2499.528527
2492.152452
2495.549917
2504.110635
2494.655847
2488.620876
2493.314742
2494.70055
2492.733597
2486.340998
2482.13887
2481.62478
2480.306027
2478.897867
2484.150527
2484.351693
2477.042672
2471.007701
2474.919257
2477.735576
2476.573286
2482.496498
2487.145661
2490.140795
2485.826908
2482.65296
2489.023207
2490.565478
2483.591733
2478.562591
2479.791937
2481.088338
2470.918294
2459.943588
2467.207905
2481.915353
2480.104861
2472.371158
2470.22539
2469.912466
2472.438213
2472.572323
2474.002835
2475.612161
2481.870649
2481.177745
2479.411957
2479.18844
2478.607294
2479.858992
2475.925085
2475.634512
2474.58398
2468.459602
2461.798783
2461.463506
2463.408108
2467.498477
2469.666597
2472.728786
2481.378911
2484.374044
2475.723919
2470.359501
2473.354634
2479.054329
2479.814289
2468.481954
2463.273998
2461.731727
2465.553876
2463.318701
2465.933855
2470.940646
2473.265227
2474.204001
2473.354634
2472.102937
2466.805573
2463.206942
2467.073794
2472.438213
2473.980483
2473.712262
2475.612161
2468.660768
2468.012568
2473.980483
2467.297312
2462.290521
2466.783222
2461.798783
2463.698681
2468.459602
2471.007701
2466.403242
2465.039786
2473.533448
2476.081547
2471.968826
2468.750175
2466.067966
2469.554838
2473.801669
2469.800707
2467.207905
2470.113632
2475.880382
2480.440137
2481.62478
2477.512059
2477.824983
2472.773489
2473.756966
2478.964922
2482.988236
2481.177745
2475.500402
2481.580076
2484.105824
2480.104861
2471.879419
2470.024225
2472.840544
2473.734614
2470.448908
2468.057271
2473.756966
2473.220524
2474.002835
2475.969789
2478.67435
2483.994065
2490.029036
2488.397358
2485.871611
2494.409978
2499.573231
2499.506175
2520.427408
2527.334097
2513.65483
2500.355542
2498.343885
2503.708303
2510.056199
2508.111597
2514.258327
2506.122292
2493.225335
2484.306989
2473.868725
2460.010643
2449.21475
2454.646224
2455.607349
2462.91637
2471.901771
2464.928027
2465.375062
2465.330358
2458.915408
2456.76964
2456.702585
2459.898884
2463.743384
2462.782259
2461.619969
2479.277847
2512.24667
2544.500237
2625.614718
2707.735027
2770.968112
2810.485996
2733.126609
2633.706049
2635.583596
2719.201472
2741.754382
2561.956949
2335.019688
2345.010918
2460.48003
2544.656699
2565.108545
2548.210627
2539.046411
2557.643063
2577.357301
2579.748938
2584.487508
2588.197897
2591.058921
2601.094854
2602.301848
2600.580764
2606.481624
2620.674982
2627.805189
2629.481569
2640.590386
2655.141372
2666.227837
2675.48146
2684.466861
2693.251096
2700.515413
2716.452207
2732.63487
2743.207245
2760.373385
2783.999179
2803.668714
2823.338249
2842.516046
2869.60636
2898.462462
2935.275785
2973.318454
2989.814042
3020.100656
3062.658377
3104.478491
3138.520198
3170.818468
3205.284858
3234.878568
3260.985406
3276.653978
3284.298275
3285.997008
3270.104917
3232.419876
3187.448166
3134.921567
3062.010176
2986.573039
2903.357494
2825.52872
2763.25676
2707.287992
2656.258959
2610.057904
2584.107528
2565.80145
2546.824818
2527.199987
2512.067856
2506.234051
2501.22726
2499.752045
2498.075664
2499.595582
2497.226298
2487.458585
2485.670446
2488.79969
2478.830812
2480.171917
2486.698626
2489.961981
2489.31378
2489.112614
2488.442062
2486.095129
2491.548954
2490.677236
2489.850222
2497.069835
2497.695684
2495.728731
2496.734559
2502.814234
2508.290411
2504.021228
2498.723864
2502.590716
2497.38276
2485.893963
2487.637399
2493.605315
2497.472167
2500.534356
2499.327362
2496.10871
2498.679161
2501.763702
2504.401207
2502.546013
2496.555745
2494.991123
2495.706379
2497.092187
2499.014437
2499.237955
2493.337094
2492.286562
2490.34196
2486.899792
2489.067911
2484.865783
2480.529544
2474.271056
2469.621893
2475.947437
2478.070853
2471.097108
2468.30314
2471.365329
2473.242876
2474.047539
2469.554838
2469.823059
2468.638416
2470.404204
2471.655902
2470.560666
2466.492649
2459.563608
2467.565533
2475.589809
2472.997007
2474.628684
2468.727823
2468.30314
2469.174858
2471.320626
2468.258437
2467.319663
2471.141812
2473.667559
2472.192344
2470.918294
2468.928989
2470.247742
2473.04171
2470.22539
2463.028129
2467.230256
2478.875515
2479.70253
2474.181649
2472.52762
2477.042672
2478.897867
2466.179724
2465.442117
2466.76087
2464.726861
2468.057271
2467.677291
2467.699643
2472.862896
2471.186515
2476.930914
2478.830812
2467.565533
2462.53639
2460.860009
2464.883323
2470.068928
2470.940646
2469.152506
2467.610236
2468.101974
2471.097108
2472.594675
2478.517887
2478.875515
2466.537352
2470.448908
2471.387681
2465.173896
2465.620931
2470.672425
2469.487783
2467.498477
2469.465431
2467.699643
2464.436288
2462.715204
2468.660768
2471.834716
2465.933855
2472.169992
2474.651036
2471.454736
2468.414899
2468.325492
2466.604408
2463.81044
2463.877495
2467.878457
2468.504306
2465.285655
2461.239989
2467.990216
2471.63355
2467.118498
2467.65494
2464.235123
2466.38089
2463.922198
2462.290521
2459.831829
2461.865838
2466.559704
2471.432384
2483.636437
2492.845356
2487.123309
2479.926047
2485.715149
2498.813271
2511.687876
2521.254423
2514.012458
2507.12812
2509.899737
2517.387571
2522.036734
2517.834606
2516.113522
2509.519757
2492.711245
2478.629646
2478.16026
2466.939684
2456.054384
2462.894018
2463.408108
2457.395489
2453.416878
2457.484896
2458.423669
2461.619969
2456.479067
2460.792954
2472.594675
2471.790012
2469.308969
2465.442117
2468.325492
2472.482916
2486.005722
2507.329286
2542.287414
2638.176398
2731.047896
2815.671601
2834.447066
2743.207245
2654.381413
2669.893523
2771.571609
2773.76208
2544.097906
2309.471644
2345.636767
2475.388643
2563.163944
2573.289284
2551.026946
2545.43901
2557.888932
2573.646912
2585.359226
2595.126938
2609.052075
2618.59627
2611.778988
2610.370828
2618.931546
2631.604985
2635.069506
2635.091857
2648.972291
2664.59616
2670.787593
2671.480497
2685.584448
2700.001323
2713.144149
2729.617385
2739.228635
2752.572626
2769.135269
2788.424824
2809.144891
2834.268252
2862.006767
2886.325465
2911.918212
2939.254396
2961.896713
2987.131832
3029.756609
3073.141345
3115.36379
3150.254864
3179.893277
3223.814455
3262.371214
3287.315761
3309.756912
3323.346773
3330.119351
3319.010534
3297.798729
3265.388699
3220.193472
3163.241227
3079.042206
2994.217335
2915.09216
2836.078743
2762.586208
2704.024637
2661.399861
2620.965555
2591.237735
2564.952083
2551.026946
2538.599377
2524.696591
2511.665524
2507.597507
2505.384684
2504.870594
2497.315705
2496.712207
2502.054274
2494.968771
2486.788033
2494.275867
2503.328324
2496.086359
2483.949361
2480.060158
2485.648094
2492.957114
2483.837603
2479.680178
2485.424576
2485.379873
2483.54703
2486.743329
2492.152452
2501.406074
2501.897812
2502.657771
2509.005667
2499.036789
2495.482861
2499.014437
2502.367199
2508.603335
2505.20587
2503.6636
2500.646114
2499.483824
2499.126196
2497.293353
2500.757873
2500.959039
2495.661675
2494.320571
2493.381797
2488.464414
2495.259344
2496.131062
2492.7783
2500.310838
2501.137853
2489.69376
2481.200097
2481.75889
2487.816213
2492.174803
2488.687931
2485.111652
2482.563553
2485.648094
2490.073739
2486.095129
2482.250629
2486.788033
2482.094167
2480.171917
2487.279771
2494.544088
2494.789957
2491.951286
2493.068873
2489.224373
2488.017379
2487.033902
2483.323512
2484.865783
2485.446928
2483.524678
2486.631571
2484.865783
2484.508155
2482.451794
2479.814289
2481.155393
2479.769585
2478.093204
2476.7521
2482.742367
2480.663655
2477.892039
2484.999893
2483.077643
2477.377948
2471.63355
2472.929951
2475.276884
2472.706434
2471.052405
2473.131117
2472.371158
2477.445004
2486.542164
2480.641303
2473.846373
2472.594675
2467.431422
2472.617027
2474.360463
2476.997969
2476.550934
2477.26619
2483.524678
2482.071815
2472.169992
2468.68312
2473.42169
2479.791937
2481.2448
2474.807498
2469.823059
2469.845411
2470.404204
2475.165126
2474.248704
2470.493611
2480.686007
2491.861879
2492.465376
2490.453719
2492.465376
2500.668466
2503.507138
2512.090208
2524.607184
2528.250519
2516.60526
2508.133949
2511.933745
2525.769475
2523.668411
2515.085341
2510.033847
2499.349713
2482.295332
2467.833754
2461.016472
2463.877495
2462.40228
2463.877495
2458.624835
2459.07187
2453.595692
2451.762849
2456.859047
2463.341053
2465.598579
2466.336187
2464.704509
2463.05048
2457.350785
2456.970806
2466.917332
2488.754986
2503.641248
2541.661566
2640.568035
2749.465734
2842.024307
2875.082538
2791.129385
2697.363817
2703.354085
2783.038054
2734.534768
2464.659806
2262.376519
2350.375336
2487.324475
2572.037586
2578.631351
2555.519647
2539.851074
2542.801504
2560.369976
2577.692578
2592.042398
2603.620601
2605.498148
2611.331953
2616.249337
2614.997639
2619.669154
2631.292061
2638.690488
2652.593273
2664.752622
2672.754547
2681.784651
2700.895393
2710.305477
2708.629097
2714.887585
2722.710696
2742.022603
2763.815554
2784.960304
2794.795071
2817.884423
2844.907683
2869.60636
2895.646142
2925.888053
2962.768431
3001.369894
3035.031621
3078.192839
3122.382238
3155.708689
3190.979742
3229.827074
3266.640397
3295.787072
3317.088284
3325.291374
3324.196139
3318.451741
3292.56842
3249.630719
3193.013751
3118.716552
3030.427162
2946.563416
2865.337177
2794.39274
2733.417181
2673.112175
2629.436866
2603.486491
2580.151269
2553.105659
2528.094057
2517.454626
2519.287469
2505.272926
2493.985295
2491.124271
2493.001818
2496.980428
2490.364312
2481.691835
2475.880382
2477.154431
2479.233143
2480.5966
2477.936742
2477.333245
2476.595637
2477.847335
2480.551896
2483.569382
2482.451794
2471.521791
2471.834716
2474.44987
2478.048501
2479.32255
2483.524678
2477.020321
2473.734614
2474.315759
2473.533448
2478.182611
2480.21662
2482.250629
2482.720015
2483.882306
2483.390568
2477.713225
2477.26619
2482.071815
2489.582001
2493.001818
2491.459547
2488.106786
2484.262286
2484.619914
2485.826908
2493.918239
2492.1301
2479.233143
2475.768623
2472.058233
2470.761832
2471.432384
2473.309931
2479.546068
2480.238972
2470.672425
2464.32453
2469.286617
2468.16903
2471.432384
2466.269131
2462.312873
2466.045614
2467.230256
2462.357576
2460.524733
2465.375062
2471.074757
2473.958132
2466.89498
2464.749213
2472.862896
2465.799745
2459.362442
2464.637454
2468.236085
2463.56457
2456.546123
2456.926102
2456.233198
2449.930006
2452.79103
2451.941663
2453.595692
2452.299291
2452.522809
2451.584035
2456.680233
2456.367309
2447.717184
2453.796858
2468.549009
2460.971768
2452.008718
2459.943588
2460.502381
2455.920274
2448.655957
2446.063154
2446.77841
2452.746326
2453.126306
2451.092297
2452.321643
2450.242931
2447.605425
2450.332338
2453.796858
2456.076736
2459.094221
2451.427573
2450.824076
2452.679271
2452.008718
2453.483934
2449.59473
2450.354689
2461.575265
2465.464469
2460.904713
2457.775469
2467.878457
2474.807498
2479.613123
2492.64419
2507.284583
2509.81033
2497.114539
2499.30501
2509.005667
2511.106731
2498.567402
2487.615047
2481.781242
2478.763757
2473.086414
2463.966902
2447.203093
2433.233253
2429.835788
2429.276994
2440.005832
2442.911558
2443.760925
2439.290576
2439.022355
2439.737611
2436.429553
2438.150637
2445.437306
2449.371213
2450.466448
2446.823114
2465.129192
2489.44789
2505.250574
2585.381578
2689.004265
2783.194516
2852.395517
2794.973885
2694.32398
2654.537875
2726.376382
2771.683368
2599.820805
2313.807883
2277.016911
2405.450035
2520.852091
2566.404947
2558.537133
2534.643118
2537.951176
2563.63333
2580.307732
2583.660493
2581.626485
2591.617714
2601.452482
2608.917965
2612.874223
2620.00443
2630.621508
2630.554453
2636.589424
2644.077259
2656.124849
2663.322111
2671.569904
2680.577657
2688.892506
2701.342428
2715.781655
2733.819513
2751.320928
2772.890362
2789.832984
2800.53947
2823.785284
2854.60834
2885.252581
2910.174776
2942.517751
2985.701321
3018.938365
3052.331871
3089.324008
3131.680564
3171.846649
3208.347047
3241.69585
3277.391586
3304.526604
3318.541148
3332.198063
3331.616918
3312.729694
3273.7259
3219.52292
3157.206256
3081.679712
2997.726559
2917.170872
2839.610319
2768.330606
2707.064474
2657.555361
2618.663325
2590.544831
2558.425374
2536.163036
2524.696591
2518.952193
2508.513928
2498.142719
2497.919202
2502.881289
2499.372065
2493.717074
2492.800652
2496.220469
2504.960001
2505.943478
2487.682103
2485.268114
2495.996952
2493.53826
2484.463451
2493.493556
2499.282658
2495.214641
2482.697664
2486.162184
2488.330303
2488.307951
2487.145661
2487.883268
2491.23603
2494.477033
2499.752045
2499.662638
2504.490614
2505.295277
2495.102882
2492.934763
2497.069835
2501.74135
2497.807443
2492.018341
2491.861879
2498.142719
2496.064007
2492.934763
2503.529489
2507.351638
2498.79092
2495.482861
2500.512004
2498.522699
2498.343885
2496.555745
2493.985295
2493.247687
2484.463451
2475.031015
2485.335169
2491.124271
2489.716111
2482.697664
2473.466393
2471.790012
2472.594675
2470.60537
2470.09128
2478.495536
2488.576172
2483.703492
2474.360463
2475.701568
2472.125289
2471.857068
2468.504306
2467.163201
2471.678254
2471.544143
2466.403242
2472.728786
2483.345864
2480.127213
2471.410033
2470.515963
2472.035882
2473.04171
2461.105878
2455.74146
2464.190419
2473.93578
2475.165126
2475.634512
2472.371158
2465.598579
2458.69189
2460.860009
2470.203038
2479.501364
2475.388643
2465.665634
2458.133096
2456.76964
2459.317739
2462.670501
2464.525695
2471.454736
2465.665634
2464.860972
2473.354634
2473.287579
2472.415861
2465.129192
2462.312873
2464.033957
2468.057271
2467.163201
2473.354634
2470.873591
2470.292445
2467.453774
2468.727823
2476.059196
2472.035882
2467.78905
2472.795841
2480.507193
2478.048501
2483.502326
2487.235068
2484.664617
2496.958077
2504.267097
2507.37399
2509.072722
2511.821987
2505.138815
2507.843376
2520.58387
2530.172769
2517.476978
2495.259344
2484.530507
2484.709321
2477.847335
2462.782259
2458.580131
2456.814344
2454.690928
2460.301216
2462.312873
2461.083527
2456.076736
2461.239989
2464.548047
2463.542219
2461.932893
2458.155448
2457.596655
2457.306082
2463.005777
2473.17582
2486.810385
2514.772417
2555.720813
2650.894541
2734.244196
2812.832929
2839.431505
2750.896245
2655.230779
2652.503866
2734.087734
2731.316117
2504.714132
2290.137385
2345.569711
2475.098071
2559.855885
2565.622636
2550.803429
2546.735411
2561.331101
2573.713967
2579.346607
2585.001598
2598.189127
2608.873261
2612.248374
2622.351363
2620.429113
2616.763427
2623.603061
2630.710915
2643.406706
2656.102497
2667.099555
2679.124794
2688.311361
2695.575678
2708.494986
2722.688344
2736.546425
2751.186818
2762.049766
2779.90881
2800.762987
2817.146816
2840.660851
2864.957197
2891.041683
2921.373
2953.872437
2989.501117
3029.242519
3069.900342
3107.451273
3141.090648
3178.462765
3218.964126
3257.789106
3281.057272
3299.273944
3317.378857
3330.789903
3323.927918
3308.57227
3270.216676
3203.295553
3126.76318
3051.03547
2966.657635
2882.860945
2813.794054
2746.180027
2693.273448
2644.792514
2605.229927
2572.551676
2548.009461
2529.613975
2515.845301
2507.932783
2505.339981
2502.836585
2489.738463
2487.659751
2492.912411
2495.393454
2491.861879
2486.050425
2485.938667
2485.625742
2490.476071
2485.446928
2475.34394
2473.399338
2477.065024
2477.199134
2481.62478
2484.754024
2479.054329
2479.680178
2475.925085
2478.383777
2484.731672
2490.185498
2486.788033
2486.944495
2492.1301
2485.335169
2485.290466
2483.301161
2489.738463
2492.532431
2479.501364
2479.277847
2487.168013
2494.70055
2494.991123
2491.995989
2488.509117
2487.659751
2490.364312
2487.793861
2487.458585
2490.386664
2487.480937
2484.150527
2482.898829
2485.625742
2482.787071
2479.166088
2480.417786
2480.35073
2480.194268
2478.048501
2481.334207
2486.49746
2480.797765
2470.583018
2467.766698
2472.080585
2472.862896
2467.319663
2466.671463
2470.583018
2478.003797
2470.292445
2463.363405
2465.8668
2472.840544
2474.136946
2472.237047
2468.772527
2467.207905
2462.938722
2458.870704
2461.798783
2466.067966
2467.006739
2465.755041
2468.280788
2473.131117
2475.098071
2475.165126
2468.593713
2466.358538
2468.750175
2466.515001
2478.942571
2476.595637
2472.326454
2469.733652
2469.308969
2477.601466
2476.88621
2470.60537
2464.816268
2462.625797
2461.016472
2463.005777
2462.290521
2463.072832
2464.860972
2469.532486
2464.928027
2467.565533
2474.874553
2474.762794
2467.632588
2460.569437
2465.062137
2465.777393
2464.860972
2472.415861
2478.651998
2468.236085
2466.313835
2463.139887
2460.390623
2464.928027
2477.959094
2484.686969
2482.898829
2480.842469
2480.08251
2479.411957
2483.234105
2480.954228
2495.572268
2521.209719
2526.462379
2506.636382
2504.892946
2511.710228
2520.159187
2524.003687
2513.453664
2497.025132
2484.552858
2470.180687
2457.127268
2444.878512
2445.280843
2459.630663
2464.995082
2464.190419
2460.904713
2461.619969
2464.637454
2461.284692
2460.569437
2456.948454
2461.016472
2464.592751
2468.839582
2468.660768
2467.990216
2484.195231
2507.5081
2536.699478
2634.577767
2740.122705
2811.469473
2851.344985
2773.672673
2655.431945
2613.187148
2686.612628
2754.226655
2607.375694
2336.740772
2301.402664
2430.88632
2548.76942
2573.669264
2559.230037
2547.405964
2563.409813
2588.779043
2599.284363
2600.156081
2603.86647
2603.21827
2609.387351
2625.324145
2632.074372
2629.481569
2627.358154
2630.956785
2644.077259
2661.846895
2667.211314
2668.708881
2682.678721
2699.286067
2712.183024
2722.911861
2738.647489
2752.438516
2763.413222
2779.238257
2800.360656
2830.066124
2849.601549
2865.985378
2889.298247
2924.077561
2960.44385
2991.57983
3032.438819
3076.4047
3115.676715
3147.192675
3188.722216
3224.01562
3261.275978
3300.570345
3331.728677
3348.716003
3353.968662
3344.20095
3323.592642
3292.479014
3251.754135
3189.102195
3100.633991
3017.038467
2933.80057
2847.120505
2772.510382
2720.900204
2672.866305
2633.46018
2599.418473
2568.036624
2543.315595
2524.249557
2508.692742
2501.830757
2497.449815
2493.337094
2487.704454
2485.893963
2492.174803
2496.891021
2489.425539
2485.491632
2489.112614
2487.793861
2484.642265
2479.724882
2483.703492
2493.493556
2494.857013
2495.438158
2496.48869
2493.247687
2490.386664
2490.453719
2487.816213
2488.754986
2497.00278
2491.325437
2488.531469
2494.119405
2500.310838
2500.19908
2504.04358
2506.882251
2511.710228
2510.391475
2509.072722
2505.675257
2497.427463
2501.540184
2508.133949
2517.096998
2524.450722
2523.26608
2513.364257
2509.475053
2512.24667
2504.937649
2501.853109
2503.373027
2503.194213
2508.826853
2507.977487
2507.798673
2507.977487
2508.558632
2509.922088
2506.345809
2506.971658
2507.016362
2502.300144
2493.314742
2499.215603
2503.864766
2502.076626
2507.150472
2507.463396
2498.299181
2496.399283
2490.788995
2490.364312
2494.164109
2494.812309
2493.53826
2494.611143
2498.053312
2502.881289
2503.775359
2497.673332
2495.728731
2500.444949
2504.714132
2510.547937
2511.665524
2507.619859
2505.787016
2495.952248
2490.140795
2492.219507
2491.347789
2494.477033
2494.365274
2488.844393
2494.879364
2503.328324
2500.579059
2502.188385
2502.456606
2504.267097
2500.914335
2505.272926
2504.222394
2497.494518
2503.753007
2511.531414
2516.98524
2518.102827
2509.899737
2507.329286
2516.381743
2520.539167
2516.359391
2507.217527
2522.975507
2540.074592
2551.295167
2544.500237
2533.100847
2538.062935
2546.757763
2550.423449
2540.208702
2533.100847
2520.31565
2504.088283
2487.950324
2494.789957
2497.00278
2504.736484
2501.964867
2494.029998
2487.592696
2487.793861
2487.927972
2493.471204
2491.928934
2494.320571
2499.796748
2493.828832
2491.526603
2493.202984
2498.813271
2506.882251
2528.183464
2542.086249
2570.249447
2673.916837
2790.190612
2898.417759
2932.571224
2847.098153
2751.656205
2749.957472
2818.912604
2745.44242
2466.269131
2277.754519
2374.850497
2522.953155
2601.653648
2601.206613
2580.754767
2574.719796
2598.233831
2614.505901
2623.871282
2630.420343
2631.739096
2637.215273
2637.975232
2641.998546
2662.204523
2671.525201
2677.15784
2688.04314
2693.854593
2700.761283
2701.789463
2706.460977
2720.07319
2741.21794
2757.065327
2769.202324
2778.411243
2791.308199
2807.244993
2819.180825
2837.777476
2864.688976
2898.998904
2925.955108
2952.352518
2980.023978
3013.596298
3041.55833
3078.125784
3122.225776
3156.222779
3201.149786
3243.349879
3273.547086
3308.438159
3341.585796
3362.90936
3370.665416
3377.102718
3365.546866
3329.381744
3282.465432
3224.3956
3154.971082
3075.287113
2990.037559
2904.139805
2823.114732
2761.401565
2712.428893
2668.932398
2632.56611
2604.693485
2587.169717
2577.08908
2566.427298
2556.167848
2544.902568
2540.879254
2539.314632
2536.274795
2535.336022
2531.916205
2531.826798
2526.574138
2525.925937
2527.892891
2527.132932
2522.506121
2514.325382
2518.01342
2530.195121
2526.976469
2517.164054
2519.242766
2527.334097
2531.402115
2527.915243
2523.087266
2521.232071
2536.163036
2537.079458
2536.520664
2532.586757
2532.720868
2534.352545
2534.263138
2541.259234
2535.268967
2535.447781
2536.878292
2543.494409
2547.74124
2550.132877
2537.794714
2534.061972
2542.130952
2545.729583
2541.08042
2536.699478
2536.744182
2540.968661
2537.459438
2538.621728
2540.141647
2532.765571
2528.742257
2530.485693
2532.050315
2534.509007
2533.480827
2530.262176
2533.927862
2533.927862
2530.150417
2519.533338
2516.024115
2528.071705
2529.077533
2518.639269
2516.627612
2517.789902
2524.540129
2529.03283
2530.396286
2531.424467
2536.051278
2531.245653
2536.833589
2544.388478
2542.153304
2531.268004
2521.947327
2541.661566
2558.738298
2568.75188
2560.861714
2544.209664
2553.396231
2565.957912
2561.599322
2550.021118
2547.920054
2532.385592
2512.269022
2504.580021
2507.88808
2507.239879
2500.19908
2506.99401
2503.641248
2502.523661
2498.209774
2498.232126
2509.162129
2514.034809
2505.921126
2500.556707
2503.79771
2503.14951
2498.187423
2497.449815
2498.075664
2507.731617
2533.592586
2554.40206
2586.119185
2686.63498
2802.819348
2903.133977
2948.999756
2863.303168
2748.504609
2733.573643
2808.899022
2755.657167
2479.054329
2267.025681
2362.110002
2525.881234
2613.745941
2617.635145
2589.427243
2578.810165
2598.300886
2624.675944
2632.722572
2633.84016
2644.054907
2645.239549
2650.447506
2658.404727
2673.31334
2681.628189
2679.817698
2688.601934
2698.213184
2709.523166
2713.41237
2721.23548
2736.300556
2739.228635
2747.968167
2765.626045
2783.395682
2799.26542
2811.000086
2829.306165
2850.38386
2875.37311
2903.42455
2931.006602
2952.75485
2978.459356
3009.863557
3045.693403
3091.559183
3138.766067
3173.612436
3210.716332
3245.294481
3286.421691
3328.82295
3356.315596
3373.258218
3385.886954
3378.332064
3356.315596
3317.42356
3274.955246
3213.353838
3122.181072
3029.488388
2941.936605
2866.477116
2801.880574
2745.129495
2701.320076
2665.870209
2633.97427
2601.586592
2580.263028
2566.248484
2559.319444
2556.547827
2553.463287
2552.859789
2554.379708
2550.579912
2545.930749
2542.376821
2539.247577
2534.978394
2537.124161
2544.92492
2538.331156
2533.056144
2532.251481
2535.492484
2540.029888
2532.989089
2521.254423
2522.483769
2527.445856
2527.445856
2527.848187
2534.218435
2537.861769
2538.219397
2535.470132
2531.692687
2535.783057
2540.879254
2535.626594
2535.000746
2535.224263
2537.928824
2538.733487
2537.414734
2542.153304
2547.987109
2548.791772
2541.482752
2540.834551
2546.310728
2545.260196
2534.374897
2533.994917
2537.213568
2542.421525
2542.913263
2538.800542
2537.571196
2535.514836
2530.239824
2523.243728
2523.422542
2522.953155
2519.645097
2513.811292
2514.839472
2522.528472
2528.183464
2522.304955
2516.359391
2517.745199
2516.60526
2514.392437
2520.092132
2517.834606
2512.671353
2506.926955
2511.576117
2521.768513
2525.098923
2520.136836
2523.310783
2525.545958
2527.848187
2523.467246
2518.974545
2530.530397
2550.468153
2563.454516
2548.12122
2543.717926
2550.17758
2551.317519
2545.617824
2540.543978
2535.447781
2529.435161
2508.960963
2501.406074
2499.081492
2500.512004
2496.712207
2497.89685
2503.14951
2499.729693
2492.107748
2495.59462
2505.988181
2506.211699
2496.935725
2492.040693
2495.125234
2507.798673
2512.649001
2505.451739
2496.846318
2503.417731
2530.485693
2556.97251
2584.889839
2669.893523
2778.254781
2867.706462
2920.970669
2857.93875
2763.569684
2736.904053
2815.761008
2811.625935
2569.668301
2311.21508
2360.254808
2507.061065
2606.280459
2622.887805
2603.35238
2587.84027
2597.630334
2616.29404
2630.710915
2638.265805
2648.659366
2657.018919
2660.282273
2677.359006
2680.957637
2671.726366
2668.328901
2672.352215
2686.746739
2701.007152
2714.686419
2724.163559
2725.437608
2732.970146
2741.396754
2753.511399
2770.252856
2786.480223
2803.601659
2820.365467
2843.566578
2862.185581
2879.575238
2903.759826
2932.861797
2967.931684
3003.76153
3034.964566
3076.359996
3126.271442
3166.10225
3194.399559
3226.183739
3264.382871
3302.336133
3330.812255
3355.354471
3359.198971
3352.828724
3339.417677
3303.721941
3257.677347
3193.930172
3116.704895
3033.332888
2950.519675
2877.652988
2808.966077
2739.206283
2688.892506
2659.835238
2635.941224
2611.711933
2602.123034
2581.984112
2554.960853
2545.215493
2547.271853
2544.097906
2542.265063
2542.645042
2540.834551
2536.766533
2529.435161
2527.132932
2525.344792
2528.049353
2532.944385
2527.468208
2521.299126
2521.008554
2523.891929
2532.318536
2531.424467
2528.13876
2526.238862
2521.410885
2522.103789
2522.439065
2520.628574
2526.283565
2529.748086
2535.604243
2537.347679
2537.682955
2531.133894
2529.099885
2540.320461
2545.841342
2545.43901
2539.806371
2539.761667
2542.443877
2539.359336
2534.888987
2539.02406
2544.723754
2542.957967
2537.392382
2538.957004
2541.818028
2538.331156
2538.577025
2542.779153
2542.265063
2538.845246
2533.614937
2536.140685
2535.738353
2525.657716
2526.708248
2529.301051
2524.316612
2524.316612
2514.884176
2514.906527
2514.68301
2516.404094
2523.869577
2521.299126
2519.712152
2521.254423
2519.309821
2513.699533
2510.749103
2511.3526
2516.381743
2508.670391
2504.825891
2505.809367
2512.492539
2513.051333
2511.799635
2512.716056
2507.686914
2507.083417
2502.501309
2498.388588
2505.943478
2508.357466
2512.134911
2513.967754
2509.81033
2512.492539
2510.883213
2509.29624
2508.469225
2510.726751
2511.576117
2513.207795
2516.068818
2509.095074
2505.272926
2506.792844
2511.442007
2513.431312
2510.682048
2509.676219
2508.938612
2507.441045
2505.317629
2508.066894
2509.028019
2516.247632
2516.001763
2513.65483
2523.243728
2525.613013
2521.634402
2516.895833
2523.891929
2537.191217
2553.239769
2548.25533
2541.59451
2544.813161
2548.747068
2554.692633
2543.226188
2534.956042
2532.743219
2515.487673
2491.705417
2484.731672
2490.34196
2490.632533
2487.793861
2494.722902
2494.901716
2497.695684
2490.096091
2494.141757
2494.588792
2490.833699
2492.152452
2497.203946
2498.500347
2490.051388
2485.223411
2489.358483
2503.440082
2530.798618
2555.385537
2599.597287
2706.103349
2787.195478
2859.525723
2856.15061
2746.336489
2655.856628
2670.564076
2758.115859
2736.836998
2502.344847
2330.057601
2397.269296
2527.982298
2603.911174
2595.953953
2574.228057
2574.362168
2596.535098
2612.807168
2616.092875
2624.675944
2630.599157
2630.733267
2642.758506
2649.464029
2655.074317
2663.635035
2666.719576
2667.54659
2673.626265
2686.277352
2698.213184
2713.121797
2721.906033
2729.595033
2737.015812
2745.285957
2760.194571
2781.562839
2796.896135
2813.458778
2834.067086
2857.916398
2871.170982
2892.338084
2923.80934
2959.303911
2987.73533
3016.859653
3054.611749
3098.108244
3140.844779
3172.986588
3203.094387
3241.517036
3267.757984
3293.663656
3314.294316
3333.583872
3333.829741
3322.340944
3290.64617
3247.417897
3200.032198
3132.239358
3044.128781
2965.942379
2888.448881
2811.849452
2748.146981
2698.280239
2659.790535
2626.575843
2594.344627
2574.049243
2559.498258
2551.541037
2544.522589
2537.504141
2537.034754
2534.4196
2527.535263
2519.488635
2516.649963
2516.493501
2520.047429
2510.97262
2508.737446
2513.319554
2514.772417
2512.291373
2514.593603
2518.52751
2515.018286
2513.096036
2516.560556
2518.3934
2519.242766
2513.632478
2513.65483
2515.599431
2516.068818
2519.756856
2521.165016
2525.814179
2525.657716
2528.250519
2526.283565
2531.312708
2525.434199
2518.460455
2521.187368
2516.784074
2517.722847
2521.097961
2520.673277
2522.75199
2525.903586
2518.90749
2513.096036
2509.340943
2512.112559
2516.448798
2511.48671
2508.491577
2516.493501
2516.113522
2506.055237
2512.805463
2512.917222
2506.502271
2509.407998
2504.624725
2503.685952
2507.798673
2505.675257
2504.021228
2507.396341
2511.978449
2503.529489
2499.595582
2509.117426
2519.533338
2512.671353
2496.846318
2496.846318
2501.137853
2501.786053
2509.676219
2507.195176
2501.74135
2497.718036
2493.895888
2484.977542
2488.375007
2494.499385
2498.27683
2497.38276
2493.717074
2495.505213
2495.505213
2496.019303
2496.6228
2498.27683
2499.662638
2494.141757
2489.380835
2492.308914
2499.170899
2496.064007
2494.834661
2499.908507
2503.618896
2505.317629
2503.082455
2498.254478
2498.477995
2493.717074
2495.907545
2493.873536
2494.454681
2495.885193
2494.544088
2496.175766
2500.623763
2500.757873
2498.857975
2493.493556
2492.867707
2496.823966
2501.540184
2499.126196
2499.483824
2505.675257
2504.55767
2501.093149
2510.235013
2506.09994
2494.432329
2491.705417
2497.561574
2501.964867
2502.478957
2508.737446
2506.792844
2505.228222
2497.852146
2498.746216
2506.658734
2505.384684
2508.692742
2512.649001
2513.073684
2509.229184
2507.463396
2521.209719
2543.784981
2549.462324
2539.292281
2538.085286
2541.4604
2545.81899
2537.325327
2526.395324
2525.613013
2514.347734
2495.348751
2483.345864
2485.513983
2485.782204
2482.988236
2482.094167
2481.513021
2488.017379
2488.710283
2483.077643
2474.695739
2477.4003
2479.747233
2485.201059
2483.479975
2481.445966
2479.18844
2482.630608
2498.120367
2525.121275
2563.052185
2647.385317
2741.061478
2816.766836
2860.017462
2774.991426
2654.761392
2616.629316
2687.171422
2756.864161
2617.344572
2363.182886
2336.785476
2458.55778
2569.757708
2596.266877
2583.548735
2570.942351
2578.36313
2594.612848
2604.581726
2622.396066
2630.375639
2630.912081
2632.521407
2642.512636
2651.207465
2663.903256
2667.434832
2674.363872
2679.236553
2689.786576
2698.280239
2704.561079
2716.854539
2726.555196
2739.29569
2763.39087
2778.388891
2785.608504
2784.40151
2804.741598
2831.206063
2857.826991
2883.30798
2908.006657
2926.335088
2952.978367
2982.214449
3019.653621
3059.439726
3093.861412
3132.149951
3164.224704
3208.525861
3254.168124
3286.958133
3315.188386
3346.905511
3369.57018
3364.295168
3357.164962
3342.748087
3316.060104
3265.723975
3204.055512
3136.419134
3057.405717
2962.701376
2874.747261
2807.692028
2759.03228
2710.394884
2660.930474
2624.810055
2596.669209
2578.944275
2567.030795
2554.53617
2549.127048
2548.367089
2541.97449
2541.952138
2547.405964
2534.531359
2522.707286
2516.962888
2516.895833
2526.551786
2529.122237
2532.385592
2535.961871
2534.218435
2522.193196
2522.75199
2529.144589
2529.54692
2530.172769
2530.195121
2530.284528
2537.034754
2536.900644
2536.766533
2542.376821
2545.975452
2538.398211
2538.733487
2541.952138
2540.745144
2543.315595
2549.261159
2541.639214
2540.767496
2540.43222
2541.214531
2541.929786
2546.891874
2552.926845
2546.668356
2538.174693
2539.761667
2539.806371
2547.22715
2542.443877
2533.547882
2538.800542
2549.015289
2546.534246
2538.152342
2540.56633
2538.867597
2535.939519
2536.386554
2535.291318
2533.927862
2529.68103
2532.653812
2537.861769
2544.433182
2537.571196
2525.657716
2526.305917
2538.733487
2548.188275
2536.051278
2522.75199
2529.68103
2534.486656
2531.357411
2531.268004
2530.038658
2534.4196
2529.077533
2527.311746
2533.413772
2531.893853
2529.9269
2529.233996
2533.056144
2534.553711
2524.942461
2525.098923
2529.077533
2536.028926
2534.620766
2528.295222
2522.841397
2529.68103
2535.939519
2536.900644
2537.124161
2530.373935
2522.729638
2523.333135
2524.093094
2523.534301
2526.104751
2531.536225
2532.854978
2528.988126
2529.792789
2534.888987
2539.784019
2541.438048
2542.175656
2533.436124
2524.987164
2528.406981
2535.000746
2537.526493
2535.492484
2537.191217
2538.554673
2537.079458
2533.25731
2533.816103
2534.93369
2536.073629
2535.984222
2537.459438
2541.750972
2547.22715
2538.107638
2540.476923
2547.540074
2550.69167
2550.490505
2544.343775
2554.044432
2577.558467
2587.214421
2568.148383
2563.923903
2577.178487
2579.883049
2573.62456
2561.107583
2548.680013
2533.503179
2519.868615
2515.733542
2521.075609
2518.818083
2515.264155
2512.201966
2513.990106
2520.673277
2515.867652
2515.398266
2512.626649
2517.566385
2522.863748
2516.269984
2516.806426
2521.544995
2520.092132
2513.721885
2519.131007
2547.182446
2566.44965
2602.3242
2710.171367
2818.040886
2906.933773
2939.656727
2849.266273
2757.758231
2776.06431
2849.825066
2783.395682
2503.082455
2306.3424
2396.263468
2536.475961
2618.775084
2629.816846
2614.148273
2599.530232
2606.459273
2625.413552
2639.383392
2643.272596
2653.934378
2670.519372
2674.319169
2671.569904
2678.364835
2684.310399
2693.139338
2696.335637
2707.936193
2719.000306
2729.863254
2738.848655
2742.939024
2749.28692
2764.821382
2781.562839
2794.795071
2809.167243
2826.668659
2839.36445
2857.379956
2880.782232
2910.532404
2939.008527
2961.360271
2987.288295
3019.765379
3052.801258
3096.454215
3138.229625
3167.845686
3210.582222
3251.083583
3290.042673
3324.956098
3350.213569
3374.554619
3393.687712
3398.202765
3390.916096
3367.64793
3323.033848
3266.953321
3197.10412
3123.700991
3041.983013
2949.133867
2877.362415
2812.922336
2751.142115
2707.913841
2676.286122
2647.161799
2625.860587
2609.789683
2608.09095
2601.139557
2581.961761
2568.170734
2562.09106
2561.621673
2560.325272
2554.871446
2558.671243
2566.896685
2564.303883
2559.632368
2564.817973
2564.460345
2552.010423
2548.054164
2546.757763
2549.417621
2554.200894
2549.752897
2547.428316
2551.004595
2553.37388
2550.468153
2544.164961
2550.155228
2558.850057
2563.208647
2563.812144
2560.16881
2559.207685
2551.831609
2553.038603
2565.55558
2577.513764
2578.407833
2569.981226
2562.22517
2565.354415
2569.467136
2566.44965
2562.582798
2564.460345
2560.615845
2557.441897
2559.230037
2563.655682
2566.06967
2563.454516
2555.385537
2549.752897
2555.989034
2550.758725
2547.495371
2553.88797
2555.340833
2547.74124
2542.399173
2545.68488
2553.105659
2551.831609
2542.376821
2541.214531
2546.020156
2550.982243
2545.997804
2542.533284
2540.298109
2539.716964
2540.320461
2539.627557
2546.33308
2540.56633
2536.163036
2537.414734
2535.581891
2531.737391
2532.273833
