 EMG Channel 
14104.5319
14116.0654
14122.52505
14109.82926
14102.85552
14110.49981
14119.19464
14109.47163
14099.18983
14104.93423
14116.31127
14112.01973
14096.12764
14099.63686
14117.47356
14116.46773
14104.39779
14103.19079
14117.4512
14117.54061
14101.87204
14100.75445
14111.68445
14112.98086
14105.9177
14102.18496
14107.01294
14117.29474
14112.66793
14099.25688
14105.64948
14117.56296
14108.84578
14096.66408
14102.78846
14112.82439
14109.33752
14096.32881
14099.36864
14105.8283
14105.04599
14101.08973
14105.62713
14110.43276
14104.28603
14091.29966
14085.82349
14100.75445
14100.41918
14084.7506
14075.60874
14084.52709
14095.21122
14084.48238
14072.97123
14080.79434
14089.28801
14086.53874
14075.54168
14076.94984
14089.44447
14089.2433
14078.17919
14079.45324
14092.73018
14092.70782
14079.92263
14075.60874
14083.54361
14086.94107
14072.5689
14068.1209
14079.38618
14089.8915
14079.22972
14071.80894
14082.22486
14092.01492
14086.22582
14071.71954
14079.34148
14090.89733
14084.63884
14076.77103
14081.62136
14092.81958
14089.55623
14076.88279
14081.4649
14093.75836
14091.88081
14080.61553
14083.47655
14092.05962
14092.19373
14079.87792
14075.69815
14082.806
14090.87498
14081.91193
14076.21224
14080.74964
14087.76809
14080.95081
14069.3279
14079.29678
14087.38811
14085.10823
14074.75937
14075.7652
14084.92942
14087.00813
14077.0169
14074.58056
14085.42116
14086.20347
14070.28902
14073.93236
14079.07326
14084.43768
14078.358
14075.13935
14083.14128
0.0
14110.07513
14121.72039
14119.06053
14105.44832
14105.2248
14120.24517
14120.02166
14109.91867
14106.20828
14118.7029
14123.93321
14111.46094
14104.48719
14113.24908
14120.46869
14110.25394
14096.32881
14105.38126
14119.73108
14115.99834
14100.50858
14105.00128
14116.49008
14114.92546
14105.873
14105.33656
14119.86519
14122.03331
14106.5212
14104.46484
14117.4512
14121.92155
14110.52216
14106.72237
14120.80397
14124.24614
14113.74082
14106.16357
14114.03139
14119.79814
14111.43859
14102.0285
14112.35501
14121.251
14117.65237
14105.42597
14108.39875
14121.07219
14121.96626
14111.25977
14111.23742
14122.74857
14123.48618
14108.44345
14110.56687
14120.08871
14124.08967
14115.17133
14110.65627
14121.76509
14125.72135
14118.23352
14110.49981
14116.28891
14123.1956
14118.41233
14110.83509
14117.78648
14128.47061
14127.26362
14115.21603
14119.12759
14130.63873
14126.52601
14119.55227
14125.02845
14120.42399
14111.90797
14100.7321
14096.70879
14098.80985
14093.15486
14075.25111
14061.72831
14068.79146
14070.15491
14057.41442
14048.78665
14054.84397
14063.04706
14054.15106
14044.07043
14047.93728
14056.31918
14050.88771
14043.98102
14048.36196
14057.90616
14056.5874
14043.98102
14052.49704
14065.70692
14062.3318
14052.58644
14053.32405
14067.85268
14072.12187
14062.42121
14056.20743
14065.81868
14069.43966
14058.53201
14049.97129
14053.32405
14060.78953
14054.70986
14041.27646
14043.28812
14055.46982
14052.07235
14044.02572
14042.75167
14056.94503
14055.64863
14039.10834
14046.66323
14056.60976
14056.96738
14045.90327
14047.57965
14054.53104
14060.14133
14049.88188
14043.0646
14051.42415
14051.55826
14042.84108
14039.73419
14050.50773
14058.35319
14045.34448
14027.57484
14033.90038
14064.52227
14063.80702
14054.97808
14059.18021
14067.60681
14073.01594
14061.12481
14060.00722
14071.71954
14072.34538
14052.29587
14054.91102
14070.28902
14071.58543
14059.94017
14052.56409
14062.19769
14075.74285
14070.71371
14060.07428
14069.77493
14079.40854
14067.62917
14056.90033
14064.32111
14075.25111
14074.91584
14063.87407
14066.60099
14076.21224
14073.64179
14059.26961
14059.15786
14066.0869
14070.73606
14058.42025
14056.81092
14067.51741
14073.88766
14063.51645
14055.06749
14064.07524
14072.39009
14064.32111
14054.37458
14060.11898
14068.47853
14064.2764
14056.87798
14059.15786
14071.3172
14068.05385
14054.46399
14064.05289
14070.0208
14068.79146
14061.86242
14062.01888
14071.54072
14070.78076
14062.8906
14059.60489
14068.09855
14075.40757
14069.41731
14060.61072
14065.14812
14074.4241
14067.4727
14065.25988
14071.54072
14081.80017
14076.34635
14063.29293
14074.04412
14080.05674
14075.74285
14064.00818
14063.5835
14073.8653
14077.0616
14066.93626
14064.36581
14075.87696
14076.3687
14062.30945
14059.96252
14069.01497
14073.64179
14061.32597
14054.75456
14066.33277
14074.82643
14070.80311
14061.81771
14069.52906
14076.21224
14073.19475
14063.56115
14065.66221
14077.28512
14079.14031
14069.84199
14067.53976
14078.71563
14079.31913
14068.43383
14068.88086
14074.4688
14071.9654
14056.22978
14053.92755
14078.22389
14094.07128
14075.7205
14072.25598
14080.9061
14093.11016
14093.33367
14082.64954
14088.86332
14104.08486
14096.61938
14086.89637
14085.93525
14100.55329
14097.93813
14085.46586
14080.07909
14092.30549
14096.82054
14088.05866
14087.58927
14099.18983
14106.61061
14095.99353
14089.73504
14090.38324
14097.62521
14091.03144
14085.53291
14093.49013
14099.05572
14095.23357
14083.58831
14088.03631
14100.1286
14093.19956
14085.33175
14089.8021
14104.66601
14104.08486
14091.38907
14086.33758
14099.90509
14100.46388
14091.61259
14090.495
14095.79236
14101.46971
14088.99743
14085.97995
14096.06059
14102.60965
14094.20539
14087.72338
14097.66991
14103.3249
14098.65339
14090.80793
14092.3502
14102.94492
14096.46292
14082.44837
14087.87985
14100.17331
14095.77001
14087.72338
14089.73504
14097.44639
14100.55329
14092.48431
14084.99647
14094.87594
14097.62521
14093.80306
14091.23261
14099.23453
14100.6874
14091.81375
14082.71659
14093.6913
14102.22967
14092.30549
14079.47559
14083.18598
14092.97604
14091.59024
14079.05091
14084.92942
14092.3502
14095.83707
14082.56013
14081.08492
14089.13154
14091.61259
14082.33661
14083.65537
14098.92161
14106.14122
14096.8876
14086.29287
14096.2394
14104.64366
14095.21122
14089.08684
14094.71948
14102.0732
14096.10529
14088.86332
14092.84193
14102.76611
14101.9838
14093.28897
14090.87498
14102.0285
14103.8837
14095.5912
14093.53484
14103.25785
14104.75541
14096.8876
14088.84097
14102.22967
14104.82247
14097.5805
14089.93621
14100.41918
14110.99155
14102.11791
14081.35314
14090.4503
14112.46677
14115.03722
14110.94685
14119.79814
14131.01871
14131.77867
14126.05663
14123.08384
14133.76798
14134.12561
14120.31223
14119.10523
14130.10229
14132.98567
14122.5027
14119.82049
14127.80006
14133.41035
14122.81562
14114.90311
14127.77771
14137.12074
14132.02454
14119.17229
14120.80397
14133.83503
14130.43757
14122.43564
14123.48618
14138.50655
14131.89043
14121.96626
14123.41912
14133.9915
14136.27137
14124.87198
14124.35789
14133.05272
14137.45602
14125.52018
14117.33945
14126.21309
14135.26555
14124.82728
14113.85257
14124.13438
14130.8846
14124.60376
14119.97695
14122.56975
14128.58237
14126.57072
14116.87006
14117.47356
14127.80006
14127.15186
14119.06053
14120.75926
14132.7845
14136.33843
14123.77675
14111.14801
14119.01583
14133.25389
14130.63873
14131.82338
14143.53569
14153.41516
14144.25095
14141.92637
14152.29757
14161.41709
14158.3996
14142.64162
14146.53082
14156.85733
14156.67852
14143.42393
14142.77573
14156.56676
14159.18191
14145.39089
14148.7213
14157.12555
14154.42099
14147.60371
14143.6698
14149.63772
14157.37142
14152.40933
14142.79808
14150.95647
14156.16443
14147.24608
14140.96524
14147.00021
14159.58424
14149.86123
14138.01481
14142.44046
14151.26939
14148.8107
14134.66205
14138.14892
14153.28105
14153.10224
14137.81364
14136.78546
14148.96716
14155.49387
14145.99438
14136.87487
14143.26747
14149.68242
14142.75338
14133.29859
14143.20041
14153.48222
14147.53665
14134.81851
14136.13726
14152.09641
14165.73097
14158.24314
14162.2441
14172.61531
14166.89326
14164.43457
14172.19063
14180.75135
14179.09732
14169.9778
14165.50746
14176.86214
14180.03609
14166.7815
14163.98754
14174.80578
14181.24308
14174.11288
14166.06625
14172.25768
14180.93016
14174.00112
14166.80386
14174.71637
14184.0147
14180.39372
14168.77081
14170.08956
14182.0701
14183.43355
14168.6367
14166.66975
14183.90294
14182.31597
14170.69306
14169.57547
14181.19838
14187.61333
14178.31501
14170.67071
14179.11967
14184.86407
14169.48607
14162.31116
14172.03416
14175.52104
14167.11678
14159.24897
14171.81065
14187.99331
14188.79797
14182.09245
14183.09828
14198.76685
14202.47724
14190.42965
14192.01662
14197.62691
14201.31495
14186.74161
14182.7183
14194.81059
14197.40339
14186.36163
14182.85241
14187.8145
14196.7999
14192.21779
14184.6182
14195.68231
14202.36548
14195.01176
14184.59585
14186.27223
14199.3927
14196.06229
14180.43842
14184.72996
14199.75033
14200.71145
14189.26736
14189.69204
14199.14683
14199.66092
14189.37912
14182.47243
14193.82712
14199.9962
14191.81546
14187.68039
14191.7037
14200.66675
14199.81738
14195.45879
14203.05839
14196.08464
14183.14298
14172.14592
14169.57547
14171.65419
14159.0478
14142.93219
14143.6698
14146.2626
14140.36174
14124.78258
14116.35597
14127.21892
14127.86712
14112.51147
14105.78359
14111.12566
14115.4619
14108.24229
14105.49302
14115.70777
14121.16159
14110.79039
14102.65435
14107.66114
14117.00417
14112.89145
14106.16357
14109.91867
14118.6135
14118.34527
14105.02364
14101.96145
14115.19368
14117.56296
14109.44928
14107.23646
14115.59601
14118.76996
14108.48816
14105.2248
14116.19951
14115.61836
14105.96241
14105.15775
14115.08192
14123.93321
14118.52409
14108.68932
14110.49981
14123.41912
14119.97695
14107.86231
14111.55034
14126.61542
14122.97209
14109.35987
14111.81857
14121.00513
14124.71552
14112.3103
14111.6174
14122.5027
14123.37442
14114.41137
14109.20341
14118.43468
14122.52505
14119.17229
14107.39292
14110.83509
14122.56975
14118.0547
14105.64948
14112.75734
14119.66403
14115.26073
14108.80108
14117.29474
14124.87198
14121.74274
14107.79525
14106.99059
14119.97695
14121.42982
14117.25004
14115.66307
14121.18395
14126.48131
14113.83022
14107.68349
14119.28405
14121.65333
14115.30544
14107.95171
14113.11497
14122.88268
14116.62419
14105.89535
14111.70681
14123.32971
14123.1062
14107.34822
14107.8176
14120.24517
14124.55906
14115.37249
14111.19272
14123.03914
14123.44147
14111.68445
14107.7282
14118.09941
14126.50366
14118.56879
14107.7729
14120.62515
14122.18977
14120.89337
14113.87493
14119.84284
14123.30736
14118.43468
14111.19272
14112.60088
14123.03914
14120.37928
14111.99738
14115.57366
14125.45313
14124.76023
14112.04208
14114.50077
14124.98374
14125.58724
14112.93615
14108.15288
14123.82145
14129.69996
14117.3618
14111.05861
14122.16742
14128.3365
14119.50757
14108.80108
14114.18785
14125.16256
14119.9993
14108.10818
14110.61157
14124.08967
14119.28405
14110.56687
14112.13149
14126.03427
14125.87781
14113.02556
14110.94685
14120.28988
14124.22378
14116.78065
14112.60088
14123.03914
14130.2364
14118.79231
14109.89632
14116.26656
14126.72718
14117.69707
14110.00807
14112.01973
14128.2918
14140.16058
14128.00123
14130.25875
14147.5143
14145.88262
14131.24223
14135.84669
14152.25287
14149.81653
14139.66884
14137.50072
14146.39671
14145.81557
14136.29373
14127.26362
14138.70771
14146.64258
14136.85252
14125.31902
14133.76798
14147.5143
14142.3287
14128.00123
14135.17614
14147.91663
14143.22277
14136.09256
14138.05951
14146.57553
14144.09448
14137.32191
14138.35009
14147.62606
14143.80391
14137.54542
14134.70675
14142.75338
14146.2179
14135.22084
14128.00123
14138.84182
14146.32966
14139.26651
14132.27041
14135.44436
14148.29661
14142.86514
14131.08577
14138.97593
14151.04588
14144.80974
14134.86321
14135.53377
14147.33549
14149.48125
14137.94775
14137.00898
14148.60954
14150.57649
14143.64745
14139.91471
14149.10128
14152.43169
14140.69702
14139.51238
14149.05657
14151.22469
14142.55221
14135.66788
14146.66493
14152.92342
14149.4142
14138.79712
14136.22667
14153.68338
14154.44334
14139.75825
14142.52986
14156.4997
14155.49387
14139.64649
14133.09743
14143.93802
14148.45307
14139.57943
14135.62317
14149.88359
14152.83402
14141.09935
14136.98663
14145.5697
14153.01283
14144.29565
14136.51724
14141.6805
14150.86706
14152.78931
14138.68536
14144.72033
14152.72226
14154.39864
14145.32383
14144.63093
14154.66686
14155.67269
14143.91567
14142.70868
14154.46569
14154.57745
14144.40741
14140.24998
14152.49874
14159.40543
14150.48708
14141.97107
14146.95551
14150.12946
14144.65328
14133.61152
14143.44628
14156.83498
14153.61633
14144.51917
14146.9108
14161.75236
14155.27036
14144.25095
14150.26357
14164.36752
14158.89134
14145.77087
14140.96524
14149.68242
14153.39281
14147.58136
14140.74172
14154.5104
14158.62312
14149.81653
14143.11101
14150.26357
14156.4997
14152.83402
14144.09448
14150.59884
14161.39473
14156.27619
14145.81557
14150.28592
14161.5512
14157.68434
14148.78835
14152.31993
14160.05363
14163.24993
14150.21886
14145.94968
14157.37142
14160.65713
14147.40254
14141.81461
14150.93412
14158.89134
14152.94578
14143.20041
14151.3588
14160.70183
14156.72322
14148.60954
14151.42586
14163.51815
14159.33837
14148.1178
14152.6552
14165.52981
14162.75819
14149.81653
14152.20817
14163.78637
14164.85925
14150.59884
14152.72226
14166.24506
14167.45206
14158.93604
14152.09641
14157.41612
14168.79316
14169.10609
14166.93797
14173.66584
14180.08079
14174.33639
14159.56189
14170.17897
14177.84562
14176.30335
14165.21688
14172.34709
14180.30431
14176.48216
14169.2849
14170.64836
14179.34319
14177.10801
14168.90492
14162.57938
14175.74455
14181.60071
14169.70958
14165.66392
14175.78926
14182.91946
14172.39179
14156.52205
14164.144
14177.75621
14171.43067
14162.66878
14171.74359
14179.61141
14178.65028
14166.7368
14169.46371
14179.23143
14177.08566
14166.89326
14168.43553
14176.39276
14179.5667
14166.96032
14164.30046
14171.81065
14174.60462
14167.25089
14162.04294
14170.24603
14176.86214
14167.27324
14159.696
14175.56574
14185.13229
14182.763
14172.32474
14179.07496
14193.40243
14186.62985
14180.08079
14183.12063
14193.62595
14186.69691
14176.12453
14177.46564
14183.61237
14186.96513
14178.65028
14172.16828
14184.88642
14191.659
14183.21004
14176.83979
14182.40537
14190.60846
14183.97
14175.36457
14183.85824
14193.49184
14186.40634
14173.50938
14179.36554
14191.18961
14187.07689
14176.30335
14180.72899
14188.52975
14191.48018
14183.3218
14176.77273
14189.51323
14193.20127
14181.62306
14177.19742
14189.53558
14194.9447
14188.03801
14179.29848
14186.85337
14198.0516
14191.7484
14179.07496
14181.44425
14193.62595
14187.45687
14178.18089
14182.09245
14187.79214
14185.98165
14185.24405
14187.59098
14199.86209
14198.0963
14187.2557
14188.41799
14201.60552
14206.83583
14194.49767
14191.27902
14200.0856
14203.59483
14192.79894
14185.2664
14193.38008
14205.29356
14198.11865
14184.32762
14191.72605
14199.66092
14198.43158
14188.26153
14189.71439
14201.71728
14200.48794
14190.72022
14189.98262
14197.35869
14202.20902
14190.11673
14190.09437
14197.00106
14200.21971
14197.02342
14186.45104
14193.78241
14203.50542
14194.07298
14189.08855
14193.15656
14199.19153
14190.27319
14181.06427
14187.63568
14196.59873
14192.41896
14180.46077
14181.62306
14195.86112
14194.07298
14188.21683
14185.24405
14194.34121
14198.141
14187.211
14184.21587
14197.15753
14200.26442
14188.93208
14180.55018
14189.02149
14201.02438
14194.22945
14180.55018
14188.06037
14202.25372
14195.16822
14187.30041
14191.68135
14195.74937
14192.93305
14184.10411
14192.62012
14201.56082
14196.2411
14184.6182
14182.94182
14193.96123
14196.8446
14188.32859
14187.68039
14197.51515
14203.2819
14192.10603
14182.22656
14192.70953
14203.17014
14194.27415
14185.86989
14191.41313
14203.05839
14198.72215
14191.43548
14196.08464
14206.58996
14203.2372
14192.06133
14188.75327
14196.10699
14196.50933
14184.79701
14182.98652
14199.37035
14201.58317
14190.27319
14188.52975
14197.13517
14199.14683
14187.45687
14190.65317
14204.35479
14217.20704
14211.48499
14202.43254
14213.92133
14222.95144
14221.27506
14209.22747
14210.278
14222.92909
14218.32463
14205.11475
14204.51125
14216.08945
14217.3188
14204.66771
14207.41698
14214.70365
14224.91839
14211.84262
14203.32661
14211.6191
14219.73279
14213.22843
14204.01951
14207.50638
14215.39655
14211.21677
14201.40436
14207.37227
14221.99031
14216.96117
14198.23041
14202.90192
14219.08459
14215.73183
14203.8407
14202.61135
14214.0778
14215.62007
14202.47724
14201.96315
14210.8815
14214.0778
14209.42863
14200.19736
14209.42863
14215.77653
14209.27217
14201.04673
14209.36158
14216.17886
14211.14972
14206.88053
14203.55012
14209.27217
14208.9816
14201.76199
14203.77364
14219.39751
14219.88925
14212.15555
14212.60258
14223.66669
14224.44901
14212.2673
14207.97577
14213.38489
14223.77845
14214.27896
14208.75808
14215.86594
14224.04667
14216.13416
14203.79599
14211.55205
14218.10111
14215.77653
14205.87471
14210.00978
14222.415
14223.21966
14210.25565
14208.35575
14225.03015
14220.35864
14208.75808
14205.31591
14218.6152
14218.81637
14210.2333
14207.7746
14214.74835
14222.10207
14218.81637
14210.76974
14220.5151
14218.81637
14214.56953
14203.90775
14209.47334
14224.9631
14218.19052
14208.13223
14212.93786
14222.19148
14219.15164
14210.3227
14209.85332
14214.94951
14217.54232
14209.69685
14211.70851
14220.11277
14226.05833
14217.16234
14211.01561
14220.62686
14226.88535
14219.57633
14209.54039
14218.6599
14226.05833
14223.35377
14215.10598
14219.75514
14229.34404
14223.13025
14217.69878
14222.99614
14229.25463
14229.27698
14226.12539
14221.05154
14224.58312
14222.01267
14209.40628
14206.92524
14216.69295
14212.04379
14204.44419
14203.77364
14213.72017
14218.14581
14212.7814
14203.68424
14210.9262
14217.85524
14215.06127
14208.60162
14213.72017
14228.94171
14220.5151
14211.28383
14210.99326
14219.2634
14218.90577
14205.80765
14207.37227
14220.20217
14222.10207
14211.99908
14208.91454
14217.58702
14224.71723
14210.56857
14201.8961
14214.52483
14222.23618
14214.70365
14209.29452
14210.76974
14222.57146
14213.519
14201.00203
14209.38393
14218.36933
14219.08459
14208.10988
14209.94272
14221.1633
14225.0078
14206.92524
14208.35575
14218.30228
14221.31976
14210.14389
14204.33244
14219.37516
14225.52189
14218.39168
14209.42863
14214.97187
14223.48788
14216.53649
14208.3334
14213.74252
14221.87856
14210.16624
14207.41698
14218.72696
14232.11565
14233.50146
14222.28089
14227.39944
14237.41302
14234.97668
14226.9971
14226.52772
14232.94267
14233.74733
14225.85717
14223.57729
14232.18271
14240.87754
14230.23811
14222.52676
14231.37805
14239.49173
14230.66279
14221.34211
14225.6113
14234.70846
14231.15453
14221.43152
14228.02528
14236.74247
14235.42371
14225.63365
14227.53355
14237.05539
14239.35762
14229.36639
14231.98154
14240.63167
14241.14576
14228.36056
14226.23715
14238.75412
14244.61028
14235.8931
14225.45483
14233.05443
14236.83187
14233.41206
14234.48494
14243.17977
14235.75899
14221.65504
14207.7746
14211.03796
14216.0671
14205.7406
14188.52975
14183.34415
14189.96026
14190.56376
14177.46564
14168.99433
14179.74552
14183.92529
14172.90588
14167.2956
14178.33736
14180.19255
14171.81065
14166.82621
14170.24603
14181.93599
14173.10705
14165.41805
14176.07983
14183.94764
14180.55018
14165.86508
14172.50355
14182.78535
14181.35484
14170.35778
14177.08566
14186.18282
14189.93791
14179.63376
14174.33639
14185.98165
14183.05357
14174.60462
14170.49189
14182.00304
14186.89807
14175.94572
14166.28977
14170.22367
14177.53269
14172.54826
14166.1333
14170.24603
14177.04096
14176.72803
14165.95449
14178.40441
14190.96609
14174.93989
14160.18774
14162.37821
14174.82813
14177.5774
14163.4958
14158.19844
14173.64349
14178.51617
14167.31795
14156.4103
14168.16731
14179.76787
14173.62114
14163.5405
14167.40735
14177.53269
14170.76012
14156.00796
14163.29463
14172.41414
14169.37431
14156.16443
14159.24897
14170.80482
14171.56478
14161.52885
14161.01475
14171.34126
14173.75525
14165.37335
14159.94187
14173.55408
14176.88449
14165.17218
14161.41709
14167.2956
14174.55991
14163.69696
14151.47056
14161.08181
14169.12844
14163.65226
14157.46083
14161.03711
14175.90102
14171.34126
14159.87482
14163.11582
14173.06235
14174.26934
14159.02545
14160.09833
14171.833
14175.85631
14164.68044
14161.5959
14173.39762
14177.13036
14159.18191
14151.93995
14167.25089
14184.30527
14184.95347
14174.31404
14177.15271
14190.92139
14186.85337
14175.74455
14182.56184
14191.99427
14187.79214
14180.1255
14183.79118
14195.34703
14198.52098
14188.03801
14183.05357
14197.64926
14197.85043
14186.00401
14181.15368
14193.67065
14199.07978
14193.67065
14183.47826
14191.59194
14197.24693
14187.92626
14177.80091
14182.91946
14193.82712
14187.70274
14178.31501
14182.91946
14194.9
14189.82615
14180.93016
14182.58419
14195.5035
14193.91652
14190.3626
14183.3665
14192.88834
14199.66092
14191.88251
14185.19934
14194.07298
14200.59969
14190.22848
14181.86893
14189.13325
14197.51515
14186.74161
14175.20811
14183.27709
14190.92139
14186.20517
14177.91267
14184.32762
14189.8038
14187.68039
14182.22656
14184.32762
14194.8553
14197.17988
14185.66873
14182.42773
14191.30137
14207.52874
14201.11378
14197.67162
14202.43254
14212.58023
14206.03117
14194.34121
14203.66188
14211.03796
14205.58413
14194.38591
14200.59969
14211.88733
14210.94855
14196.77755
14201.22554
14212.8261
14213.18373
14203.8854
14204.39949
14215.68712
14214.70365
14207.43933
14205.24886
14216.31297
14219.57633
14211.50735
14207.17111
14215.97769
14220.13512
14209.09336
14199.63857
14206.36644
14215.57536
14210.09919
14202.18667
14206.79113
14221.56563
14221.27506
14209.27217
14209.36158
14217.67643
14216.40238
14205.96411
14208.64632
14226.39361
14224.3596
14197.4481
14185.51227
14194.38591
14198.20806
14188.79797
14183.94764
14189.51323
14197.06812
14194.07298
14185.57932
14187.2557
14197.53751
14194.45296
14185.3558
14190.3626
14200.59969
14197.04577
14189.26736
14188.68621
14200.66675
14198.67744
14188.06037
14189.46853
14195.57055
14199.86209
14191.30137
14187.72509
14197.24693
14202.38783
14190.47435
14188.14977
14195.95053
14200.66675
14193.26832
14179.96903
14188.35094
14199.92914
14194.07298
14182.83006
14184.28292
14201.04673
14197.60456
14186.20517
14188.08272
14193.67065
14191.659
14186.02636
14182.15951
14189.89321
14197.69397
14186.45104
14184.57349
14189.78145
14193.96123
14186.18282
14184.26057
14191.1002
14197.85043
14190.09437
14183.18769
14189.71439
14198.54333
14193.71536
14189.60264
14191.88251
14200.53264
14201.11378
14191.32372
14189.13325
14201.51612
14200.53264
14185.19934
14184.08176
14204.62301
14215.30714
14198.23041
14195.83877
14205.07004
14209.92037
14206.29939
14193.62595
14202.32078
14213.60841
14206.96994
14201.87374
14205.53943
14213.27313
14209.92037
14198.0963
14200.24207
14213.29549
14207.70755
14203.90775
14197.93984
14209.24982
14210.81444
14200.84556
14197.13517
14207.88636
14207.97577
14195.63761
14191.43548
14203.52777
14211.26148
14209.78626
14203.57248
14200.17501
14206.65702
14212.06614
14209.96508
14224.09138
14235.17784
14225.6113
14215.28479
14221.36446
14233.52381
14232.27212
14221.54328
14219.41986
14228.06999
14229.25463
14223.37612
14215.19538
14224.09138
14227.98058
14223.62199
14214.79305
14221.07389
14231.66862
14220.82802
14216.60354
14220.96213
14229.65696
14226.93005
14218.07876
14220.02336
14233.05443
14228.8076
14216.40238
14220.91743
14228.71819
14223.51023
14214.79305
14211.84262
14223.33142
14228.09234
14221.1633
14217.3635
14225.96892
14233.16619
14222.72792
14219.97866
14231.84743
14235.98251
14224.58312
14215.62007
14222.61616
14229.5452
14224.00197
14216.98352
14223.1079
14234.73081
14229.65696
14220.11277
14222.83968
14231.06512
14234.46259
14220.93978
14219.17399
14230.37222
14236.60835
14224.78428
14222.77262
14235.64723
14235.64723
14217.58702
14209.47334
14217.38585
14214.1225
14205.27121
14202.05256
14206.52291
14214.0778
14205.51708
14195.5482
14205.1371
14217.81054
14216.46943
14208.02047
14204.62301
14217.05058
14220.26923
14206.83583
14209.74156
14221.05154
14223.64434
14213.74252
14209.18276
14212.96021
14221.99031
14212.02144
14205.7406
14217.20704
14223.44318
14218.77166
14208.86984
14215.24009
14223.66669
14223.77845
14212.8261
14214.90481
14230.1487
14234.06026
14214.45778
14208.15458
14216.42473
14215.73183
14200.6444
14195.61526
14208.24399
14208.89219
14200.84556
14197.20223
14205.91941
14212.35671
14204.33244
14194.96705
14201.06908
14212.96021
14205.45002
14188.30623
14194.40826
14205.11475
14203.68424
14194.9447
14197.13517
14208.26634
14208.19929
14196.06229
14195.45879
14209.98743
14216.84941
14202.96898
14201.67258
14211.41794
14213.20608
14202.43254
14198.0516
14206.85818
14216.20121
14207.97577
14200.55499
14209.24982
14219.2187
14211.93203
14202.79017
14208.80278
14217.45291
14210.99326
14203.59483
14207.93107
14221.07389
14220.04571
14205.15945
14201.85139
14212.24495
14215.75418
14208.02047
14206.4782
14216.00005
14214.1672
14209.09336
14204.93593
14212.8261
14219.97866
14216.82706
14209.94272
14211.19442
14215.28479
14206.58996
14201.51612
14207.34992
14211.70851
14207.05935
14194.96705
14195.23528
14206.00882
14209.38393
14197.73867
14199.3927
14208.57927
14211.77557
14201.47141
14194.47532
14202.67841
14210.81444
14200.21971
14197.85043
14205.49473
14211.21677
14207.79696
14199.25859
14203.10309
14208.82514
14203.39366
14194.38591
14201.71728
14211.93203
14207.19346
14195.19057
14197.02342
14207.57344
14204.06421
14198.87861
14193.78241
14202.72311
14203.30426
14199.4374
14195.41409
14201.67258
14210.21094
14201.9408
14193.11186
14201.31495
14209.69685
14200.33147
14188.90973
14199.21389
14210.45681
14201.91845
14193.51419
14200.59969
14208.19929
14203.66188
14194.83294
14197.64926
14204.95828
14206.4782
14196.91166
14192.82129
14200.33147
14210.14389
14204.13127
14199.48211
14209.04865
14214.99422
14207.037
14199.59387
14209.40628
14214.74835
14209.40628
14198.0963
14204.10892
14215.32949
14210.03213
14199.95149
14202.14196
14207.17111
14204.93593
14192.44131
14192.15073
14203.9301
14204.17597
14196.95636
14200.10796
14215.4189
14216.35767
14205.71824
14198.18571
14207.14876
14209.27217
14200.21971
14191.92722
14196.86695
14207.34992
14202.74546
14190.42965
14197.87278
14211.77557
14209.80861
14203.14779
14201.65023
14202.83487
14199.97385
14198.02924
14207.52874
14221.8115
14224.3596
14216.91647
14211.90968
14217.89994
14225.09721
14216.49178
14211.17207
14218.27992
14223.19731
14217.87759
14207.28287
14221.29741
14231.19923
14223.13025
14211.12737
14215.64242
14224.98545
14225.07485
14214.63659
14216.24592
14226.63948
14226.2595
14215.10598
14216.80471
14227.80177
14229.72402
14215.28479
14214.726
14226.3489
14230.48398
14220.67156
14214.21191
14222.30324
14226.93005
14220.85037
14214.59189
14221.74444
14227.51119
14221.61033
14210.65798
14216.33532
14230.77455
14225.56659
14214.1672
14215.03892
14224.15843
14222.75027
14217.07293
14214.30131
14225.47719
14226.97475
14218.95048
14216.17886
14229.94753
14234.88727
14224.4043
14218.81637
14234.35083
14242.39746
14233.65792
14222.23618
14232.76385
14239.93876
14236.34013
14222.86203
14231.08747
14236.72011
14237.21185
14225.90187
14221.65504
14228.74054
14240.3858
14234.44024
14233.90379
14241.79396
14249.43826
14235.71428
14234.61905
14248.83476
14249.46061
14242.71038
14236.74247
14248.29832
14253.34981
14243.55975
14231.4451
14242.62097
14247.67247
14243.02331
14231.80273
14237.86005
14249.21474
14245.97374
14234.46259
14238.95529
14246.48783
14251.29345
14245.05731
14238.88823
14250.39938
14254.73562
14243.82797
14236.34013
14251.04758
14257.7531
14242.9339
14240.74343
14250.13116
14256.43435
14247.62776
14235.75899
14238.66472
14248.38772
14242.24099
14240.3858
14239.60349
14248.79006
14249.21474
14239.7823
14240.87754
14249.55001
14250.82406
14241.54809
14242.57627
14253.52863
14257.77546
14247.33719
14240.11758
14250.60055
14257.57429
14244.56558
14232.31682
14243.02331
14257.30607
14255.69674
14248.43243
14252.5675
14263.00576
14255.29441
14247.4266
14252.43339
14265.33035
14259.72006
14244.1856
14248.79006
14260.79294
14260.86
14248.56654
14246.04079
14259.13891
14261.73172
14252.34398
14244.00678
14260.01063
14263.78808
14254.57916
14246.10785
14251.11464
14259.51889
14253.171
14239.87171
14245.01261
14256.81433
14252.67926
14242.91155
14242.12924
14254.22153
14250.73466
14239.44703
14244.25265
14258.73658
14267.67728
14254.19918
14248.99122
14263.74337
14269.33131
14260.34591
14254.86973
14260.79294
14269.82305
14260.74824
14250.37703
14256.21083
14268.95133
14263.74337
14251.38286
14257.1049
14264.99507
14265.28564
14250.89112
14251.85224
14266.49264
14264.7939
14253.10394
14253.50627
14265.86679
14266.80556
14261.66466
14255.29441
14262.78225
14268.39254
14264.34687
14263.25163
14263.69867
14259.83182
14252.36633
14236.5413
14239.04469
14246.68899
14235.96015
14215.84358
14210.43446
14216.58119
14213.34019
14199.70562
14200.89027
14210.54622
14212.75904
14202.32078
14199.92914
14210.03213
14210.74739
14196.64344
14193.53654
14206.67937
14214.27896
14204.66771
14199.9962
14211.93203
14216.82706
14209.11571
14204.01951
14206.92524
14216.26827
14215.28479
14203.50542
14205.83
14215.57536
14215.4189
14203.43837
14207.46168
14211.73086
14211.14972
14206.54526
14208.53456
14216.87176
14222.39265
14213.78722
14209.00395
14220.11277
14220.91743
14213.04962
14207.6852
14212.13319
14224.9631
14215.19538
14203.21485
14212.20025
14222.4597
14215.30714
14205.1371
14207.52874
14220.82802
14222.72792
14205.69589
14204.95828
14207.55109
14211.55205
14209.94272
14216.7153
14226.46066
14230.7522
14217.78819
14219.55397
14232.85326
14237.1895
14227.39944
14223.66669
14229.76872
14234.86492
14228.18175
14220.00101
14226.48301
14233.345
14225.7007
14217.09528
14217.78819
14232.56269
14229.43344
14217.967
14217.02823
14228.36056
14231.55686
14221.45387
14217.94465
14229.70167
14231.95919
14220.40334
14214.52483
14219.03988
14231.42275
14226.86299
14215.62007
14223.13025
14232.51799
14226.03598
14221.8562
14223.86786
14234.10496
14229.63461
14217.69878
14222.5044
14230.72985
14231.62392
14222.95144
14223.21966
14230.81925
14234.73081
14224.80663
14218.10111
14231.46745
14239.67054
14227.64531
14224.13608
14231.64627
14226.72888
14218.97283
14205.00299
14215.30714
14227.24297
14215.17303
14204.39949
14207.90871
14215.91064
14210.59092
14205.29356
14209.07101
14224.73958
14223.1079
14211.28383
14213.63076
14226.23715
14228.13704
14213.4743
14206.90289
14218.52579
14222.39265
14216.33532
14208.15458
14214.18955
14223.39847
14217.54232
14210.54622
14220.78332
14228.91935
14220.5151
14207.46168
14217.29645
14230.81925
14223.13025
14213.56371
14213.56371
14223.01849
14219.17399
14206.14293
14203.46072
14222.90674
14228.18175
14220.71626
14222.54911
14231.4004
14240.45285
14227.57825
14221.61033
14232.18271
14239.46938
14231.04277
14224.29254
14225.83481
14235.58017
14228.02528
14219.82219
14226.01363
14232.85326
14233.70263
14224.04667
14223.24201
14233.88144
14233.83674
14221.65504
14218.41403
14230.7969
14233.68028
14219.95631
14215.75418
14227.28768
14235.75899
14228.00293
14216.76001
14226.03598
14237.52478
14228.98641
14218.0117
14223.66669
14231.95919
14222.05737
14218.97283
14231.82508
14243.31388
14239.29056
14234.39553
14240.54226
14250.6229
14254.64621
14237.63653
14238.15063
14251.60638
14249.99705
14241.034
14236.18367
14244.58793
14253.88625
14246.1302
14238.30709
14248.99122
14251.56167
14246.04079
14237.8824
14239.02234
14251.2711
14244.43147
14235.40136
14236.96598
14249.03592
14248.29832
14236.69776
14234.6414
14246.64429
14248.61124
14235.17784
14234.37318
14244.38676
14245.61611
14238.77647
14234.6861
14247.60541
14253.79685
14250.73466
14239.04469
14243.40328
14249.50531
14240.76578
14230.104
14242.44216
14250.51114
14245.45965
14229.27698
14236.09426
14254.64621
14252.76867
14243.91738
14246.80075
14258.87069
14263.83278
14252.50044
14248.58889
14259.31773
14264.03395
14251.13699
14245.14672
14250.60055
14262.8493
14251.76284
14244.63263
14252.23222
14258.55777
14254.13212
14245.77257
14245.75022
14258.17779
14257.68605
14243.47034
14247.60541
14259.0048
14258.08838
14248.14185
14246.30901
14258.55777
14260.54707
14252.38869
14246.35372
14254.4674
14258.75893
14248.90181
14249.79588
14263.74337
14269.13014
14256.99315
14242.44216
14247.35954
14254.53445
14249.39355
14234.50729
14238.4859
14246.91251
14237.92711
14228.2041
14226.9971
14239.71525
14243.78326
14232.11565
14232.36152
14244.31971
14250.04175
14240.4305
14236.92128
14245.81727
14251.20404
14240.20699
14230.95336
14242.57627
14247.24779
14235.06608
14229.70167
14235.66958
14242.79979
14238.70942
14229.43344
14237.03304
14250.24292
14244.40911
14235.78134
14242.55392
14251.9193
14252.58985
14237.54713
14238.5306
14249.30415
14252.83572
14246.08549
14238.41885
14249.68413
14253.41687
14242.53157
14238.88823
14244.16324
14250.10881
14241.6822
14236.80952
14241.52574
14243.40328
14237.25656
14227.53355
14235.73664
14246.06314
14247.15838
14237.59183
14239.40232
14248.0301
14251.56167
14244.85615
14241.95042
14251.11464
14254.62386
14244.58793
14239.62584
14246.19725
14253.32746
14243.33623
14233.345
14239.89406
14249.01357
14236.4966
14222.54911
14232.11565
14254.19918
14255.54028
14244.67733
14245.50435
14259.40713
14261.48585
14251.60638
14251.8746
14260.9047
14263.74337
14256.81433
14250.15351
14262.62579
14266.67145
14253.19335
14244.63263
14256.85904
14265.21859
14249.81824
14244.56558
14250.6229
14259.92122
14255.8085
14246.86781
14252.81337
14262.1117
14255.24971
14240.78813
14248.25361
14261.17292
14260.48002
14249.66177
14247.13603
14256.59081
14258.53542
14248.38772
14247.22543
14256.3673
14258.11073
14246.84545
14239.80465
14247.80658
14255.38382
14248.32067
14242.53157
14251.51697
14267.16319
14255.58499
14245.70551
14255.65204
14266.6491
14260.10004
14254.08742
14249.52766
14261.44114
14260.70354
14248.87946
14246.04079
14249.3265
14255.45088
14254.35564
14256.68022
14264.0563
14268.16902
14258.75893
14252.92513
14260.34591
14266.38088
14255.45088
14249.70648
14255.8085
14267.342
14260.2118
14250.22057
14257.99897
14269.28661
14264.7939
14253.68509
14254.60151
14266.49264
14267.31965
14254.80267
14255.87556
14263.43045
14264.39157
14253.19335
14249.25944
14254.08742
14261.93288
14247.87363
14242.79979
14256.00967
14265.97855
14256.50141
14243.89502
14249.63942
14261.57525
14256.50141
14247.62776
14250.93582
14258.82599
14261.28468
14248.38772
14248.54419
14260.9047
14260.99411
14247.71717
14245.14672
14252.79102
14253.19335
14256.16613
14257.35077
14267.9455
14274.13693
14264.50333
14257.28372
14268.23607
14278.16025
14268.25842
14255.1603
14262.69284
14273.53344
14268.99603
14260.23415
14264.90566
14273.01935
14274.06988
14265.57622
14269.82305
14282.87647
14278.71904
14267.72198
14262.58108
14272.57231
14273.01935
14260.34591
14255.87556
14265.75503
14265.97855
14258.80364
14254.98149
14266.73851
14273.75695
14269.08544
14261.5082
14264.57039
14279.00961
14277.08736
14263.34104
14268.88427
14280.52953
14274.31575
14262.33521
14264.16806
14277.78027
14275.81331
14267.49847
14261.26233
14271.81235
14276.14859
14265.71033
14258.58012
14264.7939
14269.8901
14262.06699
14254.33329
14265.24094
14271.25356
14266.85026
14255.7638
14261.84347
14273.53344
14262.33521
14253.8192
14252.45574
14265.12918
14274.36045
14263.78808
14261.99994
14275.12041
14277.69086
14270.96299
14266.11266
14272.97464
14277.60145
14269.93481
14261.48585
14270.42654
14280.48483
14268.14667
14261.5976
14267.05143
14281.11068
14274.85219
14261.32938
14265.24094
14274.2934
14271.61119
14261.06116
14260.65883
14270.62771
14273.30992
14258.20014
14254.91443
14265.57622
14271.29826
14261.10587
14259.11656
14267.92315
14270.98534
14261.46349
14255.36147
14265.57622
14277.98143
14266.53734
14254.80267
14260.03298
14269.01838
14268.52665
14258.60247
14259.22832
14271.90176
14269.42072
14262.17875
14269.95716
14277.75792
14262.58108
14246.84545
14238.99999
14244.74439
14249.3712
14233.3003
14221.87856
14225.03015
14223.44318
14208.22164
14203.01368
14209.56274
14213.58606
14204.35479
14194.49767
14200.97967
14210.25565
14201.11378
14195.12352
14196.57638
14211.17207
14208.13223
14198.0963
14203.01368
14212.89315
14213.519
14203.57248
14201.80669
14210.3227
14211.82027
14200.59969
14199.52681
14210.83679
14213.4296
14204.64536
14196.57638
14205.7853
14217.18469
14208.4228
14194.2071
14200.6891
14212.2673
14209.31687
14197.04577
14198.99037
14209.29452
14208.57927
14198.34217
14202.03021
14209.76391
14209.5851
14197.38104
14197.04577
14209.87567
14211.21677
14198.96802
14194.18474
14199.21389
14201.71728
14195.34703
14191.41313
14199.88444
14205.29356
14194.9
14191.52489
14203.05839
14214.83776
14203.77364
14196.50933
14199.63857
14213.4743
14213.519
14200.75616
14195.39174
14208.35575
14215.97769
14204.62301
14195.79407
14209.49569
14214.50248
14204.10892
14193.46949
14202.34313
14207.61814
14198.31982
14190.72022
14202.90192
14210.9709
14204.35479
14194.60943
14200.59969
14211.64146
14204.89123
14195.03411
14200.06325
14209.80861
14211.73086
14201.49376
14198.18571
14211.28383
14215.79888
14200.66675
14200.75616
14214.50248
14215.77653
14204.15362
14196.66579
14207.90871
14216.0224
14206.29939
14196.08464
14203.57248
14218.72696
14218.99518
14203.2372
14207.64049
14215.53066
14216.89412
14212.15555
14210.54622
14224.02432
14223.95727
14212.7814
14210.94855
14223.39847
14224.00197
14213.11667
14206.58996
14217.58702
14223.30907
14214.97187
14214.03309
14217.81054
14222.05737
14219.8669
14210.25565
14221.09624
14222.21383
14215.08362
14204.55595
14207.70755
14218.21287
14219.28575
14209.36158
14206.63467
14219.35281
14219.75514
14211.88733
14212.08849
14221.61033
14222.05737
14208.60162
14204.01951
14215.10598
14219.9116
14207.86401
14201.85139
14212.93786
14217.18469
14204.62301
14199.81738
14214.63659
14230.104
14222.34794
14212.66964
14217.47526
14232.56269
14233.83674
14219.8669
14218.32463
14232.71915
14234.50729
14225.41013
14222.99614
14231.28864
14231.98154
14230.03694
14223.91256
14228.94171
14235.20019
14221.87856
14215.35185
14220.35864
14231.48981
14226.52772
14216.96117
14222.07972
14228.38291
14227.08651
14221.23035
14220.15747
14230.21576
14227.89117
14219.33046
14229.09817
14229.14287
14219.08459
14208.02047
14207.46168
14218.88342
14211.17207
14193.38008
14193.82712
14197.17988
14204.91358
14197.13517
14184.39468
14196.73284
14201.42671
14198.16335
14188.61916
14196.75519
14205.1818
14201.82904
14185.84754
14187.70274
14198.141
14195.16822
14189.28971
14187.23335
14202.41019
14200.77851
14191.48018
14191.83781
14200.37618
14204.44419
14194.72119
14189.35677
14198.07395
14202.76781
14192.55307
14188.97679
14195.74937
14202.29843
14201.20319
14187.8145
14189.60264
14199.70562
14197.67162
14187.56863
14184.90877
14197.20223
14202.52194
14188.37329
14190.16143
14201.20319
14203.08074
14189.08855
14183.05357
14195.30233
14195.5482
14186.92043
14181.80188
14190.13908
14199.30329
14192.62012
14182.45008
14191.0108
14202.72311
14202.25372
14187.97096
14182.89711
14190.31789
14188.52975
14181.66777
14176.77273
14191.32372
14190.42965
14179.87963
14178.69498
14186.74161
14191.54724
14182.33832
14177.5774
14188.35094
14192.32955
14183.23239
14178.9185
14182.7183
14189.37912
14184.90877
14176.05748
14182.78535
14194.2965
14187.41217
14174.47051
14178.2703
14191.99427
14187.74744
14174.85048
14176.50451
14194.18474
14191.16726
14178.98556
14175.94572
14184.57349
14188.77562
14175.45398
14167.69793
14172.81648
14183.3665
14182.33832
14182.04775
14190.94374
14196.68814
14192.93305
14188.99914
14197.71632
14211.14972
14202.99133
14193.82712
14197.87278
14203.37131
14204.35479
14194.9
14191.92722
14203.2372
14206.03117
14194.98941
14196.73284
14207.01464
14210.36741
14200.48794
14189.8038
14204.24303
14210.278
14201.42671
14195.39174
14203.12544
14212.2673
14207.57344
14198.36452
14199.54916
14207.41698
14204.89123
14192.9554
14195.90583
14205.45002
14205.20415
14197.35869
14199.12448
14208.82514
14206.52291
14191.0555
14191.0555
14200.82321
14201.44906
14193.06716
14186.38398
14198.7445
14206.76878
14194.9447
14188.14977
14200.15266
14207.1264
14200.89027
14189.49088
14192.26249
14201.40436
14196.44227
14186.85337
14190.56376
14200.37618
14194.31885
14183.65707
14186.98748
14197.51515
14199.92914
14188.82032
14189.64734
14205.07004
14212.02144
14201.9855
14192.84364
14201.69493
14204.44419
14196.1964
14190.83198
14197.20223
14208.3781
14205.96411
14193.08951
14195.43644
14203.10309
14197.13517
14187.72509
14191.23431
14200.30912
14197.80573
14189.69204
14189.31206
14199.21389
14197.42575
14191.0108
14186.87572
14196.44227
14205.49473
14191.43548
14183.61237
14196.10699
14195.63761
14192.46366
14185.9593
14196.28581
14200.86792
14193.73771
14185.66873
14190.25084
14197.38104
14195.97288
14184.0147
14183.45591
14195.99523
14195.27998
14186.16047
14187.59098
14197.71632
14196.57638
14181.91364
14185.24405
14198.76685
14197.31399
14181.22073
14174.91754
14186.20517
14194.60943
14188.4627
14182.15951
14189.49088
14200.93497
14193.29067
14183.12063
14184.55114
14195.14587
14194.63178
14178.96321
14178.73969
14190.42965
14189.26736
14178.89615
14177.89032
14191.72605
14187.50157
14182.33832
14179.85728
14188.59681
14195.86112
14181.31014
14172.03416
14179.20907
14187.68039
14181.48895
14176.05748
14183.74648
14193.17892
14183.92529
14173.10705
14179.72317
14182.20421
14172.39179
14172.01181
14180.93016
14189.82615
14192.15073
14185.24405
14188.06037
14205.51708
14211.79792
14197.80573
14193.24597
14200.86792
14204.69006
14198.72215
14190.38495
14197.29164
14208.4228
14201.49376
14193.51419
14199.28094
14207.34992
14201.49376
14190.42965
14193.22362
14202.32078
14200.6891
14189.91556
14193.33538
14210.03213
14208.60162
14194.72119
14193.6036
14209.47334
14216.0671
14201.06908
14195.23528
14209.36158
14214.03309
14205.49473
14197.02342
14202.36548
14209.07101
14199.86209
14192.86599
14198.0516
14207.1264
14208.13223
14197.35869
14195.90583
14209.04865
14212.7814
14195.83877
14194.00593
14202.92428
14203.2819
14194.81059
14194.56472
14201.09143
14211.46264
14205.36062
14190.20613
14194.67648
14199.14683
14191.59194
14188.14977
14192.3519
14198.47628
14190.02732
14175.69985
14183.3218
14194.2071
14188.08272
14174.71637
14178.31501
14193.42478
14191.48018
14181.77953
14181.01957
14193.55889
14197.78337
14185.40051
14183.97
14196.50933
14202.09726
14190.76493
14192.3519
14201.27025
14196.08464
14179.87963
14174.60462
14182.47243
14187.2557
14177.44329
14164.94866
14166.11095
14177.0186
14174.04582
14163.65226
14170.87187
14183.79118
14182.98652
14170.67071
14169.77664
14180.66194
14187.59098
14175.99042
14170.60365
14181.48895
14187.27805
14176.66098
14170.5813
14176.34805
14185.44521
14177.0186
14165.61921
14175.00695
14184.95347
14178.94085
14166.22271
14169.30725
14179.03026
14177.97973
14170.35778
14171.60948
14179.85728
14182.33832
14174.4258
14169.01668
14179.27613
14182.58419
14171.60948
14166.7368
14174.96224
14182.87476
14175.6328
14167.02737
14176.19159
14179.25378
14170.93893
14163.36169
14167.80969
14181.69012
14178.18089
14169.39666
14170.82717
14180.2149
14174.40345
14164.68044
14170.04486
14180.68429
14177.53269
14166.0886
14163.11582
14178.85145
14181.19838
14165.3957
14165.70862
14170.04486
14181.19838
14169.73194
14164.76985
14178.69498
14187.70274
14180.41607
14169.41901
14172.61531
14179.27613
14171.94476
14156.4103
14164.50163
14176.05748
14177.19742
14161.86412
14165.88744
14177.59975
14173.8223
14158.60077
14159.38308
14173.15175
14176.14689
14165.10512
14155.06919
14167.11678
14175.25282
14167.22854
14156.34324
14170.76012
14180.25961
14170.93893
14158.31019
14160.41126
14172.01181
14168.34613
14160.43361
14165.23923
14175.05165
14173.7776
14164.03224
14160.03128
14170.78247
14176.83979
14164.61339
14157.1032
14174.33639
14177.42094
14163.16052
14160.54537
14172.61531
14175.45398
14162.15469
14156.32089
14172.36944
14182.51713
14175.43163
14162.26645
14176.21394
14187.68039
14184.32762
14174.53756
14178.76204
14187.32276
14184.26057
14172.83883
14172.72707
14178.09149
14181.84658
14173.48703
14171.31891
14185.22169
14186.69691
14178.85145
14171.85535
14174.91754
14183.00887
14173.24116
14167.92144
14175.20811
14182.38302
14174.67167
14168.56964
14172.4812
14181.08662
14177.68916
14169.9778
14168.0332
14185.73578
14192.21779
14177.68916
14178.18089
14187.50157
14189.64734
14179.96903
14179.4773
14190.92139
14190.452
14174.55991
14177.06331
14191.88251
14203.8407
14197.98454
14188.79797
14195.27998
14208.73573
14205.40532
14195.07881
14200.42088
14214.1225
14211.79792
14200.44323
14204.44419
14214.21191
14216.1118
14206.92524
14203.79599
14212.2673
14218.54815
14206.94759
14201.65023
14209.87567
14214.0778
14203.70659
14194.2518
14204.93593
14215.15068
14206.96994
14196.75519
14202.83487
14210.72503
14209.89802
14198.63274
14200.30912
14205.47237
14206.32174
14197.51515
14198.07395
14209.87567
14209.20512
14193.55889
14193.06716
14202.74546
14208.46751
14198.0516
14187.36746
14195.81642
14203.2819
14192.82129
14185.3558
14195.48114
14204.17597
14196.7999
14188.82032
14195.52585
14204.35479
14203.72894
14191.7037
14195.23528
14207.17111
14204.26538
14193.71536
14195.81642
14205.29356
14206.81348
14196.30816
14188.03801
14198.99037
14209.74156
14208.9369
14212.2673
14220.02336
14221.34211
14216.40238
14216.13416
14224.22549
14231.95919
14226.37126
14214.68129
14219.77749
14229.00876
14225.45483
14210.54622
14211.26148
14221.72209
14221.99031
14210.61328
14209.27217
14220.15747
14226.68418
14212.89315
14213.40724
14224.29254
14231.91449
14222.34794
14213.519
14224.51606
14232.38387
14224.24784
14213.40724
14218.86107
14228.49467
14222.37029
14212.04379
14214.34602
14224.60547
14223.44318
14219.2187
14228.58408
14229.52285
14211.93203
14198.87861
14194.11769
14201.65023
14202.49959
14184.39468
14173.48703
14176.68333
14174.82813
14163.4511
14157.39377
14160.81359
14167.45206
14159.0925
14147.73782
14153.48222
14165.06042
14164.0993
14154.5998
14159.24897
14173.06235
14175.81161
14159.696
14157.41612
14169.68723
14166.28977
14150.62119
14151.49291
14162.937
14166.62504
14157.12555
14152.49874
14161.5512
14168.6814
14159.67365
14153.68338
14163.65226
14175.0293
14159.696
14149.95064
14158.3549
14161.73001
14161.32768
14152.36463
14157.25966
14164.05459
14165.90979
14157.21496
14155.33741
14168.14496
14166.44623
14152.58815
14152.47639
14165.46275
14168.48024
14154.19747
14152.83402
14164.72514
14169.26255
14160.2995
14149.30244
14156.83498
14165.4851
14159.53954
14150.26357
14152.43169
14162.1994
14157.50553
14146.2179
14153.05753
14159.33837
14160.92535
14152.6552
14151.02353
14161.48414
14161.70766
14152.83402
14149.70477
14154.62216
14159.74071
14161.81942
14157.97492
14167.83204
14167.72028
14161.75236
14153.99631
14159.91952
14169.82134
14163.02641
14153.97396
14159.0031
14170.89423
14164.23341
14154.89038
14156.81263
14166.60269
14171.52007
14157.17025
14157.52788
14167.72028
14169.41901
14156.96909
14155.71739
14161.75236
14165.95449
14159.53954
14154.66686
14162.98171
14173.1741
14160.70183
14146.35201
14151.85054
14163.60756
14162.66878
14151.09058
14152.92342
14166.46858
14160.63478
14151.02353
14149.52596
14160.85829
14168.05555
14153.8622
14146.46377
14161.97588
14167.67557
14156.14207
14151.80584
14162.60173
14168.83787
14161.88647
14153.05753
14163.00406
14170.11191
14162.55703
14155.18095
14163.94283
14171.02834
14161.52885
14150.08475
14159.85246
14174.53756
14168.0332
14148.8107
14151.02353
14163.33934
14162.66878
14151.71643
14151.53762
14161.75236
14167.69793
14155.1586
14153.63868
14164.8369
14165.90979
14155.06919
14152.23052
14161.57355
14168.36848
14162.1994
14150.08475
14154.5998
14168.45789
14159.96422
14147.89428
14155.33741
14167.2956
14161.75236
14155.1586
14155.00214
14165.23923
14164.36752
14152.69991
14149.43655
14163.83107
14164.41222
14157.68434
14153.2587
14161.75236
14168.43553
14159.13721
14155.33741
14166.42388
14173.84466
14165.4851
14154.37629
14158.4443
14170.80482
14167.74263
14159.87482
14163.87578
14169.21785
14169.06138
14157.61729
14153.19164
14157.28201
14159.0478
14160.18774
14166.44623
14175.54339
14184.95347
14177.13036
14172.10122
14185.13229
14193.17892
14180.46077
14175.05165
14177.77856
14186.49574
14184.0147
14172.83883
14177.53269
14190.80963
14185.9593
14175.85631
14175.6328
14188.17212
14183.23239
14166.93797
14168.592
14180.79605
14180.63959
14168.34613
14165.46275
14178.20325
14180.05844
14174.53756
14167.92144
14177.46564
14186.02636
14179.36554
14172.16828
14178.8291
14181.37719
14175.56574
14166.40153
14172.83883
14180.10314
14174.78343
14165.4404
14167.92144
14180.99721
14180.97486
14168.41318
14162.55703
14172.50355
14184.77466
14177.97973
14180.95251
14194.14004
14197.55986
14190.38495
14182.22656
14195.68231
14202.589
14191.32372
14182.38302
14191.16726
14195.43644
14190.3626
14180.99721
14185.78049
14196.77755
14194.07298
14183.79118
14188.26153
14199.30329
14198.54333
14185.06523
14181.17603
14195.05646
14196.86695
14185.04288
14181.22073
14191.48018
14198.58804
14189.31206
14183.56767
14193.35773
14198.02924
14191.54724
14180.32666
14187.2557
14191.56959
14181.91364
14179.34319
14185.9593
14191.1002
14193.40243
14183.00887
14185.44521
14196.68814
14197.47045
14188.52975
14187.47922
14194.22945
14194.31885
14186.74161
14180.8184
14192.15073
14199.59387
14190.02732
14184.34998
14190.83198
14200.6444
14192.70953
14186.00401
14195.97288
14201.44906
14197.58221
14189.42382
14187.74744
14201.00203
14193.44714
14184.0594
14188.97679
14194.69883
14196.86695
14182.6736
14182.763
14194.78824
14200.53264
14190.98844
14187.05454
14192.66483
14200.48794
14191.36842
14184.72996
14198.81155
14208.57927
14196.93401
14188.70857
14197.31399
14203.12544
14200.35383
14195.5035
14193.38008
14204.46655
14203.72894
14190.85433
14190.31789
14203.03603
14200.33147
14188.37329
14191.7484
14201.51612
14202.5443
14192.48601
14190.42965
14196.71049
14203.8854
14197.31399
14191.61429
14198.34217
14206.72407
14198.58804
14188.59681
14196.17405
14203.8407
14201.15849
14192.03898
14192.10603
14207.26051
14202.00785
14186.36163
14190.11673
14206.63467
14201.87374
14191.12255
14187.12159
14200.42088
14205.40532
14201.38201
14194.27415
14196.64344
14199.63857
14196.75519
14188.64151
14197.53751
14208.35575
14197.60456
14189.2003
14194.11769
14202.29843
14202.16432
14187.74744
14190.87669
14198.20806
14199.75033
14188.73092
14185.9593
14200.6891
14199.88444
14189.49088
14184.17116
14197.24693
14201.42671
14191.48018
14185.3558
14194.78824
14203.95246
14194.9
14188.28388
14199.57151
14208.17694
14198.54333
14185.55697
14193.96123
14201.49376
14200.46558
14187.88155
14191.90487
14205.02534
14204.44419
14193.93887
14189.62499
14203.8407
14205.58413
14192.88834
14188.82032
14202.16432
14206.07587
14195.57055
14190.96609
14199.19153
14206.58996
14198.7892
14192.9554
14199.32564
14210.12154
14204.22068
14192.97775
14196.1964
14210.3227
14202.05256
14189.8038
14195.12352
14210.21094
14209.92037
14198.58804
14195.32468
14199.12448
14197.24693
14191.99427
14187.72509
14196.46462
14202.23137
14188.32859
14185.69108
14198.96802
14208.31105
14199.32564
14186.85337
14194.81059
14210.65798
14205.53943
14196.2411
14197.4928
14209.42863
14204.26538
14193.93887
14193.96123
14207.10405
14199.81738
14192.68718
14206.27704
14213.80958
14215.28479
14207.7746
14206.67937
14216.51414
14221.83385
14212.60258
14201.87374
14211.99908
14223.0632
14212.89315
14203.95246
14216.76001
14222.30324
14220.64921
14210.9262
14210.18859
14220.20217
14216.93882
14207.10405
14208.86984
14221.45387
14217.58702
14208.64632
14207.05935
14212.28966
14217.49761
14205.7853
14199.30329
14210.94855
14219.62103
14211.82027
14204.35479
14215.66477
14223.77845
14215.30714
14207.34992
14214.30131
14223.80081
14215.53066
14209.09336
14213.34019
14222.10207
14220.09042
14209.42863
14212.55788
14224.44901
14225.79011
14216.0671
14210.278
14218.45874
14220.71626
14212.55788
14205.69589
14217.89994
14224.60547
14212.02144
14206.67937
14210.65798
14217.20704
14222.88438
14213.09432
14218.07876
14228.11469
14229.34404
14222.43735
14220.87273
14232.42858
14230.99807
14219.79984
14221.47622
14230.34987
14232.60739
14220.76097
14220.15747
14231.19923
14233.12148
14226.52772
14219.37516
14229.96989
14240.05052
14226.68418
14221.56563
14228.38291
14233.90379
14231.28864
14224.18078
14227.93588
14238.97764
14236.96598
14221.67739
14225.41013
14235.55782
14236.11662
14221.56563
14221.74444
14234.99903
14238.41885
14227.22062
14221.38682
14236.27308
14242.57627
14236.40719
14225.07485
14230.08165
14238.59766
14232.85326
14223.51023
14231.4451
14242.55392
14233.345
14225.63365
14231.4451
14241.16811
14235.13314
14223.46553
14227.35473
14236.63071
14236.65306
14224.58312
14220.09042
14230.52868
14229.99224
14227.13121
14222.86203
14230.99807
14234.6861
14228.51702
14221.31976
14223.48788
14229.63461
14225.99128
14224.80663
14232.0486
14242.19629
14238.03887
14225.14191
14231.28864
14243.44799
14238.08357
14226.70653
14232.49563
14241.34692
14239.84936
14225.79011
14225.47719
14236.09426
14242.55392
14233.74733
14227.46649
14236.04956
14238.70942
14233.68028
14225.67835
14232.96502
14239.0894
14233.88144
14225.74541
14233.97085
14239.67054
14232.11565
14223.77845
14222.25853
14234.35083
14236.00486
14224.06903
14224.51606
14236.76482
14237.61418
14226.3042
14222.39265
14232.24976
14234.23907
14223.62199
14220.5151
14229.74637
14234.50729
14224.47136
14222.68322
14234.35083
14244.47617
14232.60739
14220.85037
14230.66279
14240.89989
14243.17977
14236.09426
14230.70749
14230.41692
14229.61226
14214.18955
14212.66964
14221.25271
14218.50344
14206.96994
14205.71824
14214.92716
14219.53162
14209.92037
14204.80182
14216.0224
14222.01267
14212.49082
14210.74739
14215.06127
14221.63269
14211.93203
14206.41115
14208.13223
14219.93395
14215.62007
14201.71728
14201.56082
14218.92812
14218.52579
14206.76878
14205.42767
14216.31297
14221.1186
14210.00978
14206.94759
14215.08362
14215.79888
14208.02047
14202.67841
14211.23912
14218.30228
14214.726
14202.11961
14209.6298
14221.87856
14212.15555
14202.99133
14212.06614
14221.1633
14215.62007
14205.56178
14205.45002
14219.71044
14218.99518
14212.06614
14212.49082
14217.81054
14223.89021
14215.75418
14210.94855
14224.18078
14224.58312
14215.06127
14211.59675
14222.43735
14225.36543
14217.18469
14210.56857
14217.3188
14229.43344
14219.48692
14207.70755
14206.36644
14213.07197
14224.94074
14220.80567
14221.43152
14234.48494
14241.27987
14234.39553
14233.97085
14244.45382
14247.18073
14238.73177
14232.18271
14242.2857
14242.55392
14232.29447
14230.03694
14237.63653
14243.11271
14233.83674
14224.65017
14236.18367
14243.44799
14236.45189
14227.75706
14232.07095
14236.04956
14235.87075
14224.11373
14226.19244
14236.29543
14238.64236
14230.43927
14228.27115
14238.17298
14244.74439
14233.97085
14231.33334
14241.6822
14246.80075
14235.96015
14229.88048
14234.97668
14241.23517
14234.10496
14223.33142
14232.29447
14241.79396
14235.98251
14225.29837
14227.46649
14235.69193
14232.6521
14223.82316
14222.92909
14234.12731
14231.17688
14220.60451
14219.55397
14234.17201
14240.83283
14229.70167
14225.79011
14236.63071
14241.90572
14230.52868
14225.85717
14233.00972
14239.20116
14233.9485
14224.3596
14230.39457
14237.77065
14234.17201
14225.23132
14228.60643
14243.22447
14240.3411
14227.10886
14224.4043
14239.93876
14252.27693
14242.30805
14240.09523
14249.3265
14254.06507
14248.23126
14241.79396
14250.35468
14255.49558
14246.73369
14236.72011
14241.57044
14252.72396
14242.39746
14233.27794
14242.57627
14255.40617
14246.33136
14237.99416
14239.60349
14249.55001
14249.28179
14238.08357
14236.09426
14246.91251
14247.89599
14235.42371
14233.56852
14242.77744
14248.05245
14245.41494
14239.0894
14245.07967
14253.12629
14244.90085
14244.69969
14258.42366
14259.49654
14235.64723
14219.37516
14224.15843
14234.61905
14230.41692
14211.79792
14203.68424
14210.47917
14210.8815
14200.30912
14197.20223
14205.00299
14205.96411
14195.99523
14192.59777
14203.97481
14211.23912
14203.39366
14197.40339
14206.92524
14214.97187
14203.39366
14195.27998
14207.037
14213.49665
14206.54526
14196.35286
14199.4374
14210.14389
14204.46655
14193.78241
14197.00106
14205.7853
14196.97871
14187.63568
14188.90973
14202.70076
14206.07587
14195.70466
14189.55793
14201.00203
14207.037
14197.35869
14191.18961
14203.12544
14210.63563
14203.2819
14196.46462
14199.12448
14207.41698
14205.58413
14194.83294
14197.35869
14209.71921
14202.65605
14192.48601
14196.10699
14210.79209
14210.278
14201.67258
14204.5783
14215.03892
14216.20121
14205.15945
14201.00203
14208.31105
14217.54232
14205.51708
14204.01951
14211.12737
14217.69878
14209.42863
14201.13614
14210.85915
14220.09042
14211.23912
14200.75616
14208.78043
14221.54328
14216.96117
14210.47917
14206.61231
14206.45585
14214.34602
14214.21191
14212.58023
14227.57825
14229.07582
14222.83968
14218.32463
14227.69001
14231.42275
14221.96796
14211.46264
14220.89508
14231.60156
14225.11956
14217.3635
14227.19827
14235.87075
14228.31586
14221.02919
14221.61033
14227.86882
14227.69001
14217.51996
14219.2187
14228.47232
14227.28768
14219.39751
14215.08362
14224.80663
14230.39457
14220.4704
14210.50152
14219.64338
14226.41596
14215.97769
14207.86401
14216.0671
14228.31586
14222.21383
14213.31784
14219.15164
14228.74054
14224.3596
14213.04962
14211.21677
14221.54328
14221.8562
14211.03796
14218.19052
14233.16619
14237.8824
14227.31003
14222.88438
14230.97572
14237.70359
14224.98545
14217.07293
14225.14191
14236.69776
14228.11469
14222.68322
14230.17105
14235.96015
14230.41692
14224.3149
14228.60643
14239.53643
14232.24976
14223.37612
14224.02432
14234.30612
14234.41788
14221.18565
14218.97283
14233.16619
14233.3897
14220.82802
14215.32949
14228.2488
14232.27212
14223.80081
14220.09042
14225.58894
14233.12148
14226.70653
14217.85524
14223.33142
14229.70167
14223.44318
14216.73765
14219.55397
14234.57435
14233.00972
14221.87856
14224.29254
14237.48007
14236.11662
14227.46649
14225.25367
14233.59087
14234.93197
14224.67252
14218.86107
14227.44414
14233.27794
14223.33142
14216.93882
14220.98449
14226.37126
14221.1633
14212.64728
14221.67739
14233.52381
14230.57338
14218.77166
14224.71723
14234.77551
14227.08651
14216.29062
14215.88829
14225.90187
14223.51023
14215.19538
14219.35281
14228.65113
14230.41692
14223.55494
14217.43056
14228.8076
14237.07774
14225.7007
14217.2741
14222.39265
14237.10009
14226.81829
14213.13902
14219.10694
14231.62392
14227.86882
14214.94951
14219.44221
14229.83578
14224.24784
14214.97187
14215.4636
14231.53451
14229.5452
14216.1118
14212.8261
14223.17496
14223.91256
14212.71434
14211.23912
14221.94561
14226.12539
14219.41986
14212.20025
14219.77749
14233.05443
14222.90674
14214.7707
14216.7153
14223.04085
14221.8562
14213.78722
14212.20025
14226.72888
14221.45387
14211.35088
14218.19052
14229.52285
14225.79011
14217.94465
14219.17399
14226.19244
14229.88048
14220.67156
14216.42473
14223.77845
14231.84743
14222.28089
14213.18373
14219.15164
14229.94753
14227.44414
14220.24688
14225.56659
14237.81535
14232.18271
14215.79888
14220.29158
14231.51216
14228.897
14218.81637
14216.46943
14228.29351
14233.54617
14223.21966
14222.12442
14233.52381
14236.51895
14227.57825
14222.39265
14230.95336
14234.28377
14227.91353
14219.93395
14229.16522
14239.87171
14232.40623
14221.99031
14224.80663
14232.54034
14229.65696
14216.08945
14218.97283
14232.18271
14229.03111
14218.6599
14220.87273
14232.0039
14234.17201
14222.68322
14216.51414
14228.38291
14229.99224
14224.65017
14218.54815
14228.2041
14231.84743
14225.63365
14219.15164
14222.57146
14231.60156
14227.62295
14217.72113
14216.35767
14229.65696
14230.30516
14214.68129
14216.22356
14226.52772
14231.17688
14216.93882
14215.26244
14232.18271
14235.8931
14225.20896
14214.34602
14216.64825
14225.45483
14215.39655
14206.70172
14217.54232
14222.5044
14209.98743
14201.60552
14210.18859
14216.17886
14211.88733
14202.72311
14205.38297
14216.60354
14216.17886
14204.22068
14206.65702
14218.81637
14214.39072
14202.56665
14203.68424
14216.20121
14220.35864
14210.76974
14205.53943
14213.34019
14219.48692
14206.76878
14200.19736
14210.8815
14218.10111
14209.40628
14201.9408
14210.9709
14219.28575
14212.20025
14202.00785
14208.71338
14222.21383
14223.30907
14214.79305
14212.33436
14224.91839
14221.45387
14208.57927
14211.10501
14219.44221
14216.98352
14207.6852
14207.46168
14215.79888
14221.1633
14213.00491
14203.8407
14214.01074
14222.57146
14211.79792
14203.21485
14206.83583
14218.10111
14209.92037
14200.71145
14205.04769
14216.24592
14215.50831
14203.41601
14202.90192
14218.32463
14221.99031
14214.79305
14208.3334
14214.39072
14218.92812
14210.9262
14207.97577
14215.03892
14212.73669
14204.77947
14200.95732
14210.21094
14216.46943
14213.04962
14202.90192
14206.61231
14219.03988
14213.69782
14206.32174
14207.46168
14217.38585
14215.28479
14203.63953
14207.05935
14222.25853
14218.16817
14206.94759
14206.32174
14212.71434
14217.85524
14212.53553
14207.0817
14216.17886
14223.17496
14213.40724
14209.24982
14214.63659
14221.65504
14216.0224
14205.65119
14213.07197
14224.29254
14218.27992
14208.53456
14206.92524
14218.5705
14217.56467
14209.96508
14207.75225
14218.10111
14219.66573
14204.35479
14204.33244
14216.17886
14218.41403
14207.59579
14202.74546
14207.88636
14215.01657
14209.20512
14202.05256
14210.76974
14221.58798
14216.0224
14205.87471
14211.84262
14221.99031
14219.88925
14210.45681
14211.77557
14222.95144
14222.77262
14212.2673
14214.39072
14227.39944
14235.37901
14223.28671
14215.53066
14223.42083
14231.4004
14217.29645
14208.02047
14220.78332
14232.02625
14223.80081
14211.03796
14215.50831
14228.60643
14223.82316
14213.27313
14220.78332
14236.67541
14233.81439
14222.68322
14227.13121
14235.17784
14235.40136
14224.38195
14222.57146
14231.82508
14235.55782
14220.76097
14209.51804
14221.83385
14226.72888
14215.84358
14208.84749
14214.83776
14224.80663
14216.98352
14211.03796
14215.97769
14223.01849
14219.9116
14212.71434
14220.11277
14227.80177
14228.40526
14221.90091
14217.67643
14226.23715
14231.98154
14222.07972
14220.53745
14233.41206
14239.49173
14226.3042
14225.03015
14237.8377
14242.9786
14231.93684
14221.45387
14229.61226
14237.41302
14232.16036
14223.84551
14229.16522
14233.47911
14225.09721
14215.82123
14219.15164
14227.28768
14227.35473
14218.90577
14217.58702
14227.42179
14228.38291
14218.03405
14213.89898
14225.03015
14225.7007
14220.38099
14216.33532
14227.93588
14233.3003
14222.32559
14212.11084
14220.33628
14230.95336
14222.52676
14214.05544
14217.72113
14229.27698
14221.87856
14214.92716
14219.59868
14230.03694
14227.66766
14210.61328
14216.6706
14223.33142
14222.97379
14213.87663
14216.91647
14222.34794
14218.70461
14213.27313
14211.30618
14215.82123
14219.55397
14210.18859
14200.95732
14205.71824
14215.28479
14212.8261
14207.19346
14208.04283
14221.1633
14219.88925
14208.15458
14209.29452
14214.41307
14207.88636
14209.80861
14216.31297
14225.74541
14224.47136
14218.59285
14222.54911
14231.06512
14235.51312
14227.19827
14218.32463
14225.29837
14233.56852
14227.26533
14220.26923
14228.94171
14239.93876
14234.6861
14221.94561
14228.62878
14235.8484
14232.42858
14221.31976
14219.66573
14227.75706
14227.04181
14218.25757
14219.95631
14231.15453
14229.72402
14221.07389
14218.30228
14227.46649
14235.02138
14224.09138
14216.1118
14224.33725
14232.78621
14226.75124
14214.39072
14221.31976
14233.61322
14225.96892
14217.74348
14220.82802
14232.20506
14228.65113
14221.78915
14222.16913
14231.84743
14231.82508
14221.96796
14225.0525
14234.46259
14234.06026
14228.04764
14221.87856
14232.7415
14240.76578
14230.72985
14223.57729
14234.30612
14242.24099
14232.36152
14223.1526
14229.72402
14235.02138
14227.15357
14220.89508
14224.80663
14234.61905
14231.93684
14217.3188
14219.37516
14233.12148
14232.27212
14219.15164
14214.43542
14228.1594
14232.54034
14221.90091
14216.49178
14228.69584
14234.44024
14224.67252
14219.39751
14224.9631
14231.60156
14224.38195
14220.26923
14225.38778
14233.07678
14229.03111
14219.3081
14222.90674
14229.88048
14227.06416
14220.00101
14217.16234
14230.77455
14230.88631
14221.7668
14219.8669
14230.7522
14230.28281
14219.71044
14215.86594
14226.77359
14228.96406
14222.03502
14214.52483
14222.88438
14230.68514
14227.01946
14217.85524
14225.18661
14231.80273
14230.05929
14219.59868
14223.64434
14233.68028
14228.02528
14217.9223
14218.83872
14228.2041
14227.98058
14217.40821
14214.41307
14224.47136
14225.34308
14217.87759
14217.83289
14227.19827
14231.33334
14223.95727
14218.30228
14222.72792
14232.11565
14228.82995
14220.38099
14228.40526
14233.85909
14230.90866
14222.77262
14224.06903
14234.79786
14235.69193
14226.12539
14225.14191
14235.73664
14237.70359
14227.44414
14225.83481
14233.12148
14235.64723
14223.35377
14216.93882
14229.32169
14237.32361
14228.13704
14219.41986
14224.73958
14231.73567
14227.69001
14224.47136
14225.47719
14234.01555
14232.96502
14218.6599
14219.24105
14232.16036
14233.90379
14222.90674
14221.31976
14229.56756
14232.31682
14222.4597
14223.77845
14232.02625
14234.57435
14226.01363
14215.66477
14225.20896
14236.89893
14227.48884
14215.32949
14225.94657
14237.70359
14230.77455
14218.32463
14221.56563
14233.47911
14228.09234
14218.6599
14218.79401
14231.62392
14233.97085
14221.63269
14220.60451
14232.22741
14235.8484
14223.95727
14222.34794
14231.4004
14234.6861
14225.23132
14220.24688
14229.05347
14234.50729
14227.69001
14216.55884
14220.24688
14230.03694
14223.84551
14219.37516
14221.7668
14235.73664
14232.89797
14225.52189
14225.16426
14234.79786
14233.81439
14220.87273
14219.01753
14235.15549
14235.9378
14230.32751
14224.3596
14233.32265
14243.00095
14231.48981
14225.58894
14231.93684
14239.91641
14235.35666
14226.01363
14234.30612
14248.20891
14243.5821
14231.98154
14232.94267
14242.44216
14239.96112
14228.42762
14228.2041
14236.80952
14239.75995
14230.77455
14229.99224
14239.04469
14243.33623
14228.44997
14225.67835
14237.27891
14245.75022
14238.21768
14225.90187
14234.28377
14243.87267
14237.07774
14225.0078
14229.27698
14240.3858
14233.07678
14221.74444
14224.4043
14236.94363
14234.79786
14226.12539
14226.9971
14237.25656
14238.50825
14229.94753
14226.57242
14235.87075
14236.72011
14227.35473
14221.83385
14229.18758
14234.30612
14227.80177
14220.29158
14228.98641
14238.99999
14232.54034
14223.26436
14228.22645
14239.6929
14237.10009
14222.61616
14221.00684
14232.18271
14234.95433
14220.42569
14220.40334
14231.71332
14233.79203
14220.98449
14221.1186
14234.88727
14241.25752
14228.69584
14222.88438
14230.77455
14240.36345
14231.37805
14221.65504
14231.13218
14238.75412
14232.51799
14222.88438
14225.49954
14238.41885
14233.81439
14218.52579
14220.80567
14234.70846
14231.53451
14222.81733
14224.67252
14239.42467
14240.00582
14230.81925
14224.62782
14235.04373
14239.89406
14230.77455
14222.52676
14230.7969
14237.54713
14228.58408
14222.52676
14226.50537
14232.58504
14230.43927
14218.21287
14221.208
14228.2488
14223.82316
14216.93882
14218.6152
14233.00972
14234.90962
14221.208
14220.20217
14228.78524
14234.48494
14225.52189
14222.12442
14228.60643
14234.08261
14229.25463
14222.4597
14223.91256
14233.41206
14224.69487
14215.79888
14221.99031
14230.95336
14229.47815
14219.75514
14224.73958
14238.4859
14231.64627
14219.33046
14222.01267
14232.56269
14236.02721
14223.77845
14220.53745
14234.57435
14234.17201
14226.01363
14222.86203
14228.42762
14238.03887
14226.72888
14223.1079
14230.52868
14239.20116
14235.55782
14224.18078
14227.57825
14236.00486
14230.52868
14221.34211
14223.95727
14230.59574
14229.23228
14218.03405
14220.93978
14233.83674
14233.63557
14222.30324
14222.19148
14232.49563
14236.36249
14225.52189
14219.03988
14231.62392
14235.9378
14229.12052
14218.54815
14228.31586
14236.40719
14227.82412
14221.31976
14226.59477
14237.25656
14230.97572
14218.30228
14221.45387
14233.3897
14230.43927
14219.28575
14219.37516
14233.81439
14235.75899
14225.09721
14222.68322
14227.35473
14233.61322
14225.99128
14222.23618
14228.69584
14234.6861
14224.29254
14214.63659
14219.41986
14226.55007
14223.33142
14212.40142
14217.18469
14223.42083
14222.43735
14215.84358
14218.41403
14227.13121
14227.19827
14216.6706
14218.25757
14231.4004
14229.88048
14222.34794
14217.29645
14222.415
14229.41109
14220.91743
14212.37906
14219.19635
14229.81342
14224.47136
14213.58606
14221.45387
14232.13801
14227.48884
14217.13999
14221.23035
14233.52381
14231.46745
14219.77749
14217.83289
14230.46162
14230.37222
14217.9223
14216.80471
14229.88048
14232.85326
14219.88925
14215.68712
14228.33821
14234.6414
14225.81246
14215.39655
14224.56076
14232.18271
14223.80081
14216.80471
14223.28671
14234.41788
14229.20993
14218.30228
14221.56563
14235.75899
14231.4004
14221.05154
14220.02336
14225.90187
14225.96892
14218.95048
14215.44125
14226.03598
14226.68418
14217.67643
14214.05544
14223.13025
14232.33917
14224.33725
14216.64825
14227.82412
14237.43537
14224.73958
14216.29062
14222.16913
14232.56269
14229.83578
14221.54328
14220.26923
14237.36831
14238.4859
14223.24201
14223.13025
14235.78134
14232.29447
14222.99614
14220.60451
14233.23324
14236.38484
14223.55494
14220.67156
14232.18271
14236.92128
14229.20993
14223.55494
14227.46649
14227.64531
14223.35377
14219.15164
14222.07972
14235.35666
14230.77455
14220.82802
14228.58408
14237.8824
14238.5306
14225.27602
14221.54328
14234.75316
14235.2896
14223.28671
14222.30324
14233.3897
14237.27891
14227.95823
14221.34211
14233.47911
14241.27987
14230.81925
14223.73375
14233.72498
14241.57044
14232.0486
14225.58894
14230.28281
14237.16715
14236.02721
14224.53841
14228.1594
14240.00582
14240.69872
14229.47815
14227.28768
14237.8377
14233.68028
14223.42083
14221.34211
14229.52285
14235.13314
14226.97475
14224.18078
14234.86492
14240.67637
14233.16619
14226.23715
14229.88048
14237.45772
14231.10983
14222.81733
14226.84064
14235.80369
14232.96502
14219.33046
14225.38778
14233.92615
14232.87561
14221.31976
14220.44804
14234.46259
14235.33431
14223.62199
14225.25367
14233.63557
14237.92711
14228.51702
14219.71044
14227.19827
14233.47911
14226.70653
14218.95048
14227.35473
14238.55296
14231.35569
14221.45387
14228.49467
14237.36831
14237.36831
14225.52189
14226.75124
14238.30709
14234.39553
14220.89508
14224.60547
14239.98347
14238.93294
14228.2041
14224.51606
14237.54713
14240.87754
14230.8416
14225.67835
14236.20602
14241.45868
14237.36831
14227.39944
14230.43927
14240.05052
14233.05443
14221.69974
14224.18078
14237.25656
14235.2449
14224.11373
14222.28089
14232.6521
14239.46938
14227.26533
14224.62782
14235.98251
14239.17881
14223.46553
14218.30228
14227.15357
14234.23907
14227.13121
14219.15164
14228.42762
14241.45868
14233.21089
14225.45483
14232.56269
14238.26238
14233.90379
14220.53745
14222.07972
14231.26629
14227.62295
14217.69878
14220.67156
14235.69193
14238.19533
14222.43735
14218.63755
14230.61809
14238.62001
14230.52868
14225.58894
14237.70359
14244.8785
14235.42371
14234.08261
14243.67151
14247.4713
14242.46451
14239.26821
14241.59279
14250.17586
14250.0641
14234.46259
14233.9485
14245.21378
14241.70455
14232.22741
14237.72594
14245.14672
14250.10881
14240.3411
14231.37805
14244.25265
14246.42077
14235.66958
14226.48301
14236.63071
14242.2857
14231.24394
14220.42569
14230.90866
14239.80465
14235.02138
14224.04667
14230.05929
14239.15645
14235.31195
14224.76193
14230.7522
14244.1856
14247.69482
14239.64819
14238.17298
14247.94069
14248.18656
14235.58017
14229.88048
14240.83283
14243.22447
14231.98154
14225.54424
14233.90379
14243.44799
14233.345
14227.13121
14237.41302
14248.27597
14237.07774
14230.28281
14235.80369
14245.25848
14241.21281
14226.52772
14229.72402
14238.39649
14236.83187
14231.06512
14230.81925
14246.48783
14247.20308
14236.20602
14232.6968
14249.61707
14252.36633
14237.59183
14233.05443
14241.86101
14249.46061
14242.21864
14228.82995
14233.23324
14245.81727
14242.77744
14238.97764
14241.36928
14253.30511
14252.70161
14236.586
14238.59766
14254.37799
14252.45574
14241.92807
14238.26238
14253.28276
14252.47809
14240.89989
14240.60932
14246.1302
14255.54028
14245.30318
14237.74829
14247.60541
14259.54124
14255.67439
14243.85032
14251.53932
14258.55777
14256.03202
14246.33136
14245.25848
14251.60638
14254.02036
14245.25848
14240.54226
14251.36051
14248.65594
14238.46355
14231.95919
14243.89502
14250.15351
14242.82214
14236.42954
14245.92903
14246.06314
14237.21185
14231.15453
14233.92615
14245.75022
14236.34013
14226.03598
14231.4451
14240.16228
14237.90476
14226.75124
14232.45093
14242.39746
14242.73273
14230.37222
14225.52189
14236.80952
14237.59183
14223.66669
14217.98935
14231.37805
14228.76289
14214.32367
14209.16041
14224.20314
14232.49563
14219.75514
14209.76391
14221.25271
14232.27212
14225.87952
14215.48596
14221.07389
14233.63557
14228.29351
14218.43639
14218.99518
14230.70749
14228.87465
14218.70461
14216.93882
14224.00197
14226.79594
14219.93395
14214.41307
14224.24784
14228.60643
14218.6152
14210.94855
14219.68808
14228.56173
14219.73279
14216.98352
14222.83968
14232.33917
14225.81246
14214.56953
14220.35864
14227.82412
14225.0078
14213.94369
14217.63172
14229.58991
14227.57825
14218.52579
14220.26923
14232.22741
14234.50729
14223.80081
14218.6599
14227.01946
14233.03208
14222.66087
14219.03988
14232.62974
14236.72011
14225.90187
14215.24009
14221.52093
14235.51312
14233.21089
14227.01946
14230.97572
14241.7269
14235.20019
14221.99031
14228.29351
14233.23324
14231.60156
14222.54911
14221.23035
14230.01459
14231.55686
14226.3489
14221.58798
14226.43831
14234.39553
14225.96892
14220.71626
14232.56269
14239.20116
14231.78038
14221.8115
14225.83481
14233.45676
14231.33334
14221.7668
14221.1633
14231.10983
14226.21479
14217.74348
14218.39168
14227.39944
14222.86203
14211.23912
14213.09432
14224.94074
14226.79594
14217.85524
14218.10111
14231.53451
14235.71428
14226.81829
14222.14678
14233.85909
14239.44703
14230.93101
14224.87369
14230.8416
14236.80952
14230.93101
14220.58215
14223.19731
14234.12731
14230.50633
14218.6599
14215.28479
14225.38778
14227.98058
14218.70461
14217.20704
14228.56173
14232.67445
14221.7668
14213.72017
14222.05737
14228.87465
14221.14095
14214.36837
14222.81733
14230.46162
14225.6113
14213.54135
14222.95144
14238.21768
14234.90962
14221.67739
14220.87273
14231.22158
14229.52285
14221.83385
14220.04571
14230.57338
14231.48981
14219.10694
14213.22843
14224.78428
14229.56756
14220.31393
14216.08945
14229.85813
14236.31778
14226.41596
14217.18469
14226.46066
14235.46842
14223.21966
14214.726
14217.49761
14230.93101
14230.48398
14222.19148
14223.97962
14234.88727
14233.3897
14222.54911
14224.9631
14233.14383
14234.35083
14225.90187
14222.48205
14233.41206
14239.42467
14229.94753
14222.415
14232.87561
14239.55878
14231.51216
14223.17496
14231.82508
14239.20116
14233.45676
14225.18661
14230.37222
14243.22447
14237.39067
14223.73375
14222.77262
14236.76482
14233.07678
14226.3042
14224.47136
14232.29447
14233.52381
14222.28089
14220.42569
14231.19923
14237.8824
14229.36639
14227.08651
14233.68028
14237.21185
14229.70167
14220.73862
14229.99224
14236.5413
14229.61226
14221.94561
14225.6113
14233.14383
14233.18854
14227.15357
14224.24784
14232.38387
14233.50146
14224.15843
14222.28089
14229.03111
14233.61322
14219.75514
14219.8669
14229.56756
14233.83674
14224.73958
14219.33046
14226.57242
14233.54617
14228.38291
14221.36446
14227.19827
14235.9378
14229.58991
14219.19635
14229.16522
14239.02234
14234.10496
14223.46553
14224.80663
14234.37318
14242.35275
14227.66766
14225.56659
14237.77065
14239.67054
14229.32169
14223.24201
14234.17201
14242.68803
14233.32265
14224.67252
14232.0039
14241.27987
14232.67445
14221.31976
14228.42762
14240.36345
14233.79203
14222.99614
14221.72209
14236.16132
14235.66958
14226.46066
14227.71236
14234.48494
14233.97085
14224.49371
14220.87273
14235.64723
14239.58114
14226.52772
14224.29254
14234.66375
14239.89406
14233.50146
14226.39361
14237.30126
14249.99705
14239.96112
14227.95823
14231.33334
14239.49173
14235.31195
14223.1079
14230.97572
14237.65889
14231.57921
14224.18078
14227.28768
14239.0894
14244.56558
14231.53451
14230.21576
14242.84449
14248.74535
14232.60739
14226.3489
14239.11175
14244.69969
14238.46355
14230.12635
14233.59087
14243.09036
14239.33527
14227.26533
14234.14966
14244.78909
14239.71525
14228.98641
14235.22255
14244.07384
14241.25752
14231.42275
14229.81342
14238.55296
14238.08357
14229.4558
14227.71236
14238.95529
14242.84449
14230.104
14223.95727
14239.0894
14242.9786
14231.60156
14220.20217
14220.87273
14231.10983
14224.13608
14217.07293
14223.30907
14231.55686
14233.3003
14227.57825
14228.96406
14238.86588
14238.46355
14229.09817
14228.49467
14241.14576
14245.10202
14234.12731
14228.31586
14237.77065
14242.77744
14232.78621
14225.92422
14232.33917
14238.28474
14232.40623
14225.36543
14228.49467
14234.08261
14229.76872
14219.44221
14223.39847
14230.66279
14228.74054
14219.2187
14219.68808
14232.98737
14232.85326
14221.78915
14218.21287
14233.74733
14237.74829
14227.91353
14222.05737
14232.98737
14238.75412
14231.17688
14223.55494
14231.04277
14242.30805
14234.35083
14225.18661
14232.0039
14238.15063
14228.04764
14219.66573
14227.31003
14240.89989
14238.21768
14224.11373
14226.2595
14239.0894
14236.67541
14228.04764
14227.91353
14242.62097
14248.723
14232.22741
14226.03598
14239.60349
14248.47713
14245.30318
14237.8824
14244.8785
14249.72883
14240.72108
14230.39457
14236.25073
14245.5714
14241.12341
14232.0039
14238.4412
14250.46644
14251.44991
14239.0894
14238.15063
14246.26431
14244.61028
14230.08165
14229.96989
14240.56461
14242.79979
14233.16619
14230.1487
14240.09523
14243.35858
14238.35179
14232.0486
14240.58697
14248.7677
14244.40911
14232.85326
14239.58114
14247.13603
14242.24099
14231.10983
14233.83674
14247.4713
14247.31484
14236.83187
14234.6414
14247.02427
14247.98539
14239.67054
14239.11175
14249.48296
14249.05828
14234.82022
14230.30516
14241.90572
14249.39355
14237.03304
14232.6521
14240.13993
14245.95138
14240.3858
14233.74733
14237.48007
14247.15838
14243.5821
14229.4558
14235.15549
14247.98539
14242.3751
14232.67445
14233.3897
14246.39842
14248.54419
14238.66472
14237.86005
14249.59472
14251.85224
14239.49173
14237.61418
14252.45574
14254.84738
14240.76578
14236.34013
14243.67151
14252.50044
14246.35372
14231.84743
14237.41302
14248.49948
14243.76091
14233.68028
14235.2449
14246.80075
14246.62194
14237.63653
14235.78134
14247.13603
14249.28179
14240.60932
14235.58017
14249.34885
14250.75701
14242.66568
14239.60349
14250.0194
14254.93679
14247.49365
14241.45868
14248.36537
14253.01454
14244.63263
14236.20602
14242.08453
14255.47323
14246.37607
14233.74733
14243.33623
14256.52376
14253.05924
14238.4412
14235.62488
14249.3712
14250.22057
14239.0894
14236.25073
14246.19725
14251.20404
14243.13506
14236.87658
14248.38772
14255.56263
14248.27597
14240.27404
14246.64429
14255.8085
14251.29345
14242.26335
14246.64429
14259.29538
14253.46157
14240.11758
14243.64915
14252.96983
14250.95817
14238.86588
14236.80952
14246.01844
14248.85711
14238.93294
14235.02138
14249.05828
14252.74631
14240.47521
14234.46259
14243.93973
14251.964
14243.00095
14232.62974
14242.9339
14254.35564
14247.91834
14238.84353
14239.6929
14254.24388
14253.52863
14240.56461
14236.38484
14242.53157
14241.86101
14235.33431
14233.21089
14244.99026
14246.91251
14235.33431
14229.96989
14237.70359
14243.5374
14236.18367
14231.22158
14238.06122
14245.07967
14241.12341
14231.95919
14239.71525
14244.96791
14238.62001
14227.91353
14229.76872
14239.71525
14238.73177
14227.80177
14228.44997
14241.01165
14244.34206
14230.59574
14227.64531
14236.96598
14242.3751
14230.08165
14227.66766
14234.84257
14240.83283
14236.29543
14228.2041
14237.10009
14242.12924
14237.52478
14229.61226
14233.56852
14245.97374
14239.53643
14231.4004
14236.36249
14248.18656
14246.28666
14230.37222
14234.12731
14246.28666
14248.92417
14240.16228
14232.62974
14246.97956
14254.33329
14241.79396
14236.72011
14245.61611
14252.45574
14240.9893
14213.36254
14237.43537
14259.27302
14250.08646
14235.17784
14237.21185
14244.36441
14235.44606
14229.05347
14231.66862
14239.02234
14240.9893
14238.82118
14235.58017
14240.3411
14246.86781
14241.90572
14233.79203
14236.85422
14247.31484
14242.55392
14237.21185
14245.90668
14249.81824
14242.3304
14237.59183
14241.79396
14247.85128
14237.43537
14231.78038
14236.47424
14243.04566
14249.03592
14238.93294
14238.82118
14243.29153
14242.35275
14232.49563
14230.43927
14243.06801
14246.24196
14230.90866
14229.27698
14241.23517
14251.44991
14242.3304
14235.9378
14245.23613
14250.60055
14235.08844
14228.78524
14248.54419
14258.33425
14235.26725
14223.17496
14254.10977
14267.31965
14257.79781
14242.79979
14239.20116
14253.52863
14257.93192
14241.88337
14240.51991
14252.54515
14255.87556
14242.50922
14238.93294
14249.25944
14253.48392
14246.33136
14240.25169
14247.65012
14255.02619
14249.99705
14241.6822
14246.97956
14255.13795
14254.64621
14242.79979
14243.33623
14257.1049
14253.48392
14241.99513
14242.2857
14252.58985
14254.13212
14242.68803
14240.89989
14248.94652
14247.69482
14242.50922
14237.36831
14248.32067
14256.83668
14247.4713
14236.36249
14247.98539
14259.49654
14250.33233
14240.4305
14244.96791
14251.94165
14243.85032
14244.29735
14253.50627
14260.48002
14255.51793
14244.36441
14232.0486
14248.65594
14264.88331
14249.72883
14241.83866
14250.89112
14253.41687
14241.0787
14235.17784
14244.65498
14251.964
14246.57723
14238.59766
14250.28762
14260.10004
14250.68995
14238.21768
14243.09036
14254.02036
14250.48879
14238.97764
14242.55392
14255.47323
14252.92513
14241.14576
14240.27404
14250.0641
14252.74631
14240.31874
14233.50146
14245.86198
14248.99122
14238.97764
14232.07095
14241.81631
14252.34398
14249.61707
14240.45285
14247.76188
14261.44114
14253.84155
14242.62097
14248.25361
14262.82695
14254.73562
14239.7823
14246.95721
14257.08255
14256.59081
14241.7269
14246.71134
14260.27885
14263.58691
14253.75214
14248.58889
14258.33425
14261.01646
14251.78519
14248.27597
14260.68118
14266.6938
14260.45767
14248.38772
14257.7531
14267.63258
14259.74241
14251.49462
14255.7191
14268.16902
14266.06795
14252.58985
14255.31676
14264.86096
14266.20206
14258.51306
14253.12629
14262.35756
14256.21083
14248.83476
14249.84059
14258.37895
14264.99507
14259.78711
14253.19335
14256.88139
14264.63744
14257.30607
14247.3819
14256.68022
14266.87262
14261.57525
14253.30511
14258.98245
14269.73364
14266.85026
14254.53445
14256.05437
14266.31382
14267.16319
14253.77449
14254.08742
14267.58787
14266.53734
14256.23319
14250.77936
14260.16709
14266.13501
14257.64135
14248.83476
14260.32356
14271.23121
14262.53638
14254.91443
14262.62579
14265.93384
14261.15057
14251.06993
14256.38965
14269.55483
14269.82305
14259.42949
14257.03785
14269.59953
14271.72295
14262.71519
14262.69284
14273.39933
14273.55579
14259.42949
14256.25554
14264.57039
14272.79583
14264.92801
14257.32842
14263.29634
14272.70642
14262.93871
14254.15447
14260.54707
14269.75599
14267.14084
14250.51114
14257.19431
14270.11362
14267.85609
14262.29051
14260.3012
14267.83374
14265.71033
14257.0602
14254.73562
14267.02908
14269.42072
14258.20014
14253.39451
14262.82695
14268.86192
14261.77642
14253.34981
14261.93288
14274.76278
14266.93967
14258.49071
14262.46932
14270.4936
14263.76572
14249.95235
14251.00288
14259.40713
14262.44697
14253.55098
14252.00871
14262.67049
14263.74337
14251.44991
14249.28179
14259.40713
14263.34104
14254.15447
14247.80658
14252.5675
14263.4081
14253.84155
14243.26917
14256.07672
14268.5937
14260.01063
14250.68995
14255.47323
14262.89401
14260.16709
14254.93679
14253.30511
14266.35853
14263.31869
14254.02036
14256.99315
14267.78904
14267.02908
14255.29441
14251.51697
14260.9494
14265.53151
14256.81433
14251.04758
14261.44114
14266.35853
14261.17292
14252.29928
14262.8046
14270.98534
14266.0009
14258.71423
14262.91636
14273.46638
14271.47708
14259.04951
14262.53638
14274.76278
14274.31575
14262.1564
14258.64717
14270.96299
14278.92021
14268.16902
14261.61996
14268.92898
14272.75113
14264.19041
14260.36826
14270.76182
14275.94742
14265.93384
14258.13308
14263.11752
14275.50039
14272.50526
14264.68215
14267.2526
14273.6452
14275.70156
14269.71129
14268.6384
14278.67434
14277.51205
14265.77738
14263.4528
14272.32644
14275.56745
14263.98924
14262.8493
14269.93481
14275.09806
14267.20789
14257.82016
14268.88427
14277.60145
14270.96299
14260.70354
14265.48681
14277.98143
14275.50039
14261.66466
14262.29051
14275.32158
14268.21372
14258.2672
14257.55194
14261.12822
14269.37601
14271.23121
14273.37697
14287.83855
14284.97753
14279.21078
14280.57424
14290.72193
14299.19324
14284.97753
14273.22051
14283.2788
14291.23602
14287.03389
14279.45665
14285.64808
14294.32056
14289.40318
14279.16608
14284.73166
14294.14174
14290.74428
14275.32158
14277.42264
14289.1126
14292.68888
14283.52467
14278.62963
14287.7715
14294.58878
14287.32446
14281.4236
14286.49745
14291.72776
14285.93865
14280.59659
14290.11843
14295.90753
14290.16313
14279.74722
14284.79872
14290.85604
14289.51493
14279.50135
14278.45082
14286.58686
14289.15731
14277.42264
14275.70156
14287.70444
14289.42553
14279.50135
14282.34002
14291.30307
14293.02416
14284.06111
14279.21078
14283.05528
14294.63348
14291.41483
14286.02806
14290.49841
14297.71802
14293.02416
14281.35655
14285.8269
14297.47215
14289.7161
14278.76374
14280.88716
14292.84534
14290.63252
14279.00961
14281.66947
14291.86187
14295.08052
14286.60921
14281.28949
14287.03389
14292.64418
14281.35655
14275.031
14283.927
14291.03485
14285.13399
14276.61798
14287.30211
14294.2088
14290.409
14277.19912
14279.50135
14294.43232
14291.39248
14280.28366
14276.43916
14289.91727
14291.83952
14279.81428
14274.58397
14285.75984
14287.2127
14276.72974
14275.5898
14288.10677
14292.9124
14281.93769
14273.30992
14281.3342
14288.55381
14281.91534
14274.40515
14277.93673
14289.35847
14289.78315
14273.39933
14276.75209
14286.69861
14283.94935
14273.30992
14274.06988
14284.75401
14286.76567
14275.90272
14275.74626
14284.82107
14289.22436
14279.00961
14275.45569
14283.21174
14290.16313
14282.34002
14273.17581
14281.06597
14289.40318
14284.23992
14272.68407
14278.24965
14287.36917
14284.79872
14273.7346
14271.85706
14281.17773
14277.93673
14270.18067
14273.13111
14284.06111
14285.93865
14276.61798
14274.02517
14283.927
14287.50328
14283.63642
14276.48387
14282.18356
14293.87352
14284.68696
14281.4236
14290.38665
14296.86866
14286.83272
14276.90855
14284.30698
14296.82395
14291.79481
14280.06015
14283.07763
14296.86866
14295.28168
14288.82203
14288.37499
14296.19811
14297.49451
14286.18452
14281.15538
14294.63348
14292.57712
14284.53049
14279.12137
14286.60921
14291.23602
14286.09512
14276.46152
14285.35751
14294.29821
14292.57712
14283.23409
14286.94448
14297.60627
14292.68888
14283.59172
14282.6306
14294.07469
14295.66166
14283.12233
14281.91534
14294.58878
14298.0533
14288.35264
14284.6199
14292.42066
14298.23211
14291.14661
14282.6306
14290.72193
14302.52365
14295.43815
14283.39056
14282.80941
14289.73845
14287.36917
14278.85315
14284.23992
14291.86187
14290.05138
14281.69182
14280.35072
14290.29724
14292.57712
14280.68599
14275.65685
14287.10095
14289.89491
14283.9717
14281.73653
14289.69375
14294.94641
14291.28072
14280.95422
14292.06303
14304.58001
14289.82786
14272.95229
14282.92117
14289.49258
14285.78219
14273.35462
14274.60632
14288.24088
14285.08929
14273.46638
14274.91924
14285.20105
14284.39638
14273.77931
14275.20982
14284.84342
14285.08929
14276.79679
14270.80652
14281.66947
14288.08442
14278.74139
14273.30992
14277.98143
14284.97753
14282.20591
14272.81818
14278.94256
14291.37013
14288.03972
14275.32158
14278.56258
14294.18645
14292.77829
14279.97074
14281.04362
14289.26906
14288.39735
14275.76861
14273.19816
14285.37986
14290.38665
14279.61311
14275.25452
14284.88812
14290.74428
14282.60824
14277.06501
14286.98919
14292.33125
14283.70348
14277.86967
14280.03779
14288.62086
14283.01058
14272.59466
14273.17581
14285.69279
14286.58686
14273.57814
14275.41098
14288.24088
14285.64808
14274.24869
14269.37601
14284.75401
14288.03972
14273.98047
14268.6384
14276.19329
14284.77636
14277.78027
14269.48777
14275.94742
14282.40708
14277.42264
14270.4936
14277.42264
14289.33612
14285.2681
14272.10292
14277.17677
14286.16217
14280.06015
14266.76086
14265.68797
14279.36724
14279.72487
14270.60536
14266.35853
14275.07571
14282.16121
14273.26522
14270.00186
14278.96491
14286.11747
14277.55675
14267.83374
14274.76278
14285.33516
14280.10485
14269.44307
14273.06405
14282.65295
14275.92507
14263.07282
14270.02421
14284.0164
14287.10095
14279.23313
14284.70931
14295.01346
14296.26516
14284.30698
14281.49066
14291.50424
14295.5052
14286.13982
14282.36238
14288.86673
14299.23794
14292.3089
14280.39542
14283.63642
14295.61696
14290.34195
14279.16608
14284.82107
14294.99111
14290.52076
14281.40125
14283.03293
14294.63348
14296.7122
14288.12913
14284.70931
14299.57322
14299.12618
14285.04458
14277.80262
14284.91047
14293.04651
14286.11747
14276.64033
14283.77054
14292.08538
14291.39248
14282.11651
14286.31863
14300.73551
14299.3497
14286.43039
14283.56937
14294.43232
14293.91823
14283.30115
14284.48579
14296.46633
14297.89684
14287.72679
14288.17383
14299.46146
14300.57905
14287.79385
14281.96004
14290.94545
14299.41676
14290.72193
14281.62477
14290.52076
14300.13201
14293.96293
14282.51884
14291.90657
14301.33901
14299.12618
14284.50814
14284.06111
14298.7462
14294.02999
14281.89299
14284.79872
14296.7569
14296.42162
14284.91047
14280.37307
14287.36917
14293.42649
14283.09998
14274.78513
14287.7715
14296.33222
14286.09512
14281.40125
14288.4197
14297.4498
14291.68305
14285.31281
14288.50911
14297.69567
14286.92213
14280.88716
14284.75401
14294.02999
14293.6053
14288.44205
14287.05624
14296.84631
14303.64124
14292.28655
14290.07373
14295.41579
14298.16506
14290.83369
14283.18939
14290.47606
14299.84144
14290.38665
14282.92117
14293.06886
14300.13201
14293.11356
14283.70348
14286.63156
14296.95806
14293.89588
14285.75984
14289.33612
14298.52269
14300.69081
14290.85604
14290.14078
14302.43424
14302.07661
14284.10581
14280.39542
14291.43718
14293.85117
14285.8716
14276.9309
14283.14469
14290.07373
14281.44595
14272.37115
14275.54509
14286.96683
14284.77636
14272.70642
14280.57424
14288.44205
14285.60338
14277.44499
14280.19426
14293.40414
14293.87352
14283.70348
14278.8308
14289.80551
14289.38082
14280.41777
14276.3274
14285.8716
14293.20297
14282.13886
14279.09902
14285.31281
14285.55867
14274.42751
14270.47125
14278.45082
14288.82203
14286.87743
14276.26035
14279.90368
14290.16313
14287.32446
14275.94742
14278.98726
14287.83855
14289.82786
14276.86385
14275.6792
14285.20105
14286.85508
14282.22827
14276.12624
14286.76567
14293.00181
14288.10677
14279.76957
14286.27393
14291.41483
14284.30698
14277.73556
14283.83759
14292.48772
14285.49162
14275.76861
14278.04849
14289.93962
14289.15731
14275.76861
14277.5791
14288.15148
14289.73845
14279.4343
14278.8308
14289.55964
14291.77246
14280.90951
14276.55092
14287.54798
14287.8162
14280.26131
14272.03587
14281.06597
14286.81037
14281.91534
14272.25939
14278.2273
14289.33612
14283.45761
14278.16025
14279.12137
14287.95031
14287.03389
14272.72877
14272.08057
14287.10095
14292.51007
14285.08929
14281.28949
14288.93379
14291.50424
14279.27783
14272.95229
14283.74818
14287.25741
14278.62963
14270.27008
14279.16608
14284.46344
14276.50622
14266.55969
14274.31575
14281.69182
14282.34002
14271.65589
14274.67338
14287.36917
14287.72679
14271.49943
14270.91828
14282.76471
14283.63642
14273.84636
14269.17485
14281.84829
14287.1233
14278.56258
14272.28174
14279.70252
14283.34585
14276.01448
14267.96785
14277.37794
14285.29045
14282.31767
14271.63354
14273.28757
14284.15052
14281.44595
14272.41585
14275.92507
14285.2234
14282.51884
14268.10196
14268.16902
14278.71904
14280.79775
14271.61119
14266.02325
14276.61798
14282.80941
14270.04656
14266.51499
14276.37211
14283.56937
14275.6792
14271.05239
14282.6753
14291.86187
14279.00961
14267.38671
14268.77251
14278.7861
14278.62963
14269.66658
14275.12041
14284.86577
14282.6306
14274.51691
14277.31088
14284.08346
14287.70444
14276.03683
14271.1865
14279.76957
14286.4751
14274.58397
14269.37601
14280.01544
14287.68209
14278.00379
14268.01256
14273.6452
14283.94935
14277.66851
14266.33617
14266.80556
14276.08154
14276.86385
14266.44793
14268.43724
14277.73556
14277.51205
14270.15832
14265.12918
14275.99213
14279.00961
14267.67728
14262.29051
14273.24286
14276.48387
14268.70546
14263.34104
14273.30992
14280.97657
14273.57814
14265.82208
14271.11945
14280.59659
14272.3935
14263.58691
14266.38088
14277.84732
14278.71904
14266.09031
14260.05533
14269.8901
14273.42168
14261.68701
14262.1564
14275.47804
14274.96395
14260.43531
14256.85904
14267.27495
14273.95812
14266.62675
14256.54611
14265.10683
14269.93481
14264.86096
14259.98828
14259.16126
14267.65493
14264.88331
14253.84155
14256.88139
14267.67728
14266.47029
14256.38965
14254.84738
14264.52568
14263.4528
14257.37313
14253.41687
14267.342
14268.37018
14255.62969
14250.24292
14266.51499
14281.06597
14271.63354
14266.58204
14271.05239
14283.50231
14279.94839
14271.85706
14276.238
14292.10774
14286.27393
14272.99699
14277.26618
14286.72097
14283.16704
14272.41585
14272.16998
14285.98336
14283.56937
14270.06892
14267.92315
14285.51397
14289.73845
14276.01448
14273.6452
14285.75984
14289.60434
14281.73653
14271.0971
14277.44499
14289.22436
14283.81524
14270.87358
14276.86385
14281.15538
14280.88716
14271.81235
14273.01935
14282.69765
14285.08929
14276.81914
14273.71225
14281.44595
14282.16121
14273.57814
14268.92898
14285.37986
14292.89005
14282.13886
14273.53344
14279.07667
14287.8609
14279.94839
14270.4936
14275.92507
14286.13982
14282.74236
14270.27008
14273.80166
14281.84829
14279.65781
14272.19233
14274.87454
14282.29532
14281.73653
14272.75113
14269.71129
14279.38959
14282.40708
14272.72877
14268.39254
14273.95812
14282.0718
14271.87941
14266.17971
14275.6345
14286.72097
14276.43916
14267.38671
14275.76861
14283.47996
14278.1826
14269.13014
14271.54413
14280.39542
14284.6199
14273.0864
14271.41002
14281.55771
14281.28949
14274.51691
14271.56648
14279.56841
14281.22244
14269.33131
14265.84444
14276.55092
14286.4751
14275.56745
14269.1972
14277.78027
14284.59755
14272.79583
14265.24094
14267.342
14275.43333
14272.03587
14260.61413
14259.6083
14273.17581
14275.52274
14267.81139
14269.21955
14279.23313
14283.70348
14274.44986
14272.01352
14283.3682
14285.64808
14276.72974
14270.11362
14277.98143
14288.66557
14282.6306
14271.7453
14277.04266
14289.29142
14281.9824
14272.01352
14280.75305
14292.04068
14287.79385
14275.14276
14272.34879
14283.41291
14279.12137
14269.8454
14269.97951
14281.13303
14285.35751
14273.7346
14272.95229
14283.45761
14283.30115
14273.13111
14265.68797
14276.30505
14284.35168
14276.9309
14271.0971
14277.28853
14286.76567
14283.68113
14270.62771
14275.07571
14286.78802
14288.68792
14278.69669
14278.2273
14291.37013
14291.12426
14283.16704
14279.18843
14289.85021
14296.55573
14283.70348
14278.94256
14288.44205
14291.83952
14283.90465
14278.56258
14281.82593
14287.68209
14278.51788
14267.76669
14274.89689
14286.00571
14285.2681
14269.2419
14267.16319
14284.86577
14290.14078
14281.08833
14285.8716
14285.96101
14293.78412
14298.34387
14295.37109
14306.92694
14305.07175
14292.51007
14285.58103
14295.25933
14303.99886
14292.80064
14288.15148
14293.35943
14303.03774
14294.2535
14285.2234
14291.99598
14295.92988
14296.42162
14290.409
14290.87839
14300.75786
14301.8978
14294.09704
14294.2088
14309.07271
14308.37981
14296.77925
14293.31473
14304.91529
14306.83754
14295.37109
14285.15634
14301.65193
14305.76465
14293.35943
14292.51007
14295.70637
14303.08244
14299.37205
14290.94545
14296.95806
14306.52461
14302.34484
14288.62086
14290.02902
14295.99694
14295.72872
14284.79872
14285.55867
14297.09218
14301.18254
14291.16896
14288.44205
14300.02025
14299.17089
14290.05138
14291.45954
14297.04747
14306.77048
14298.36622
14290.47606
14297.00277
14301.96486
14296.30986
14290.74428
14295.10287
14307.48574
14299.50616
14286.25158
14288.86673
14302.97068
14297.56156
14284.35168
14285.02223
14296.66749
14296.1534
14287.74915
14286.25158
14298.58974
14301.45077
14291.41483
14282.69765
14293.87352
14302.81422
14297.4051
14287.36917
14297.04747
14306.63637
14299.3944
14289.49258
14294.1641
14304.82588
14303.41772
14289.85021
14292.8677
14301.87545
14300.40023
14277.71321
14279.50135
14305.65289
14308.60332
14295.30404
14291.83952
14301.49547
14304.33414
14297.67332
14295.81813
14300.35553
14306.16698
14298.47798
14289.96197
14297.00277
14303.48477
14294.43232
14284.73166
14286.67626
14301.22725
14299.52852
14285.9163
14290.45371
14299.9532
14299.9532
14288.88908
14282.0718
14294.14174
14300.5567
14291.30307
14289.20201
14300.46729
14305.6976
14293.49354
14287.2127
14295.5499
14301.13784
14294.99111
14286.83272
14290.74428
14302.25543
14300.48964
14288.55381
14294.1641
14302.546
14300.15436
14289.85021
14289.93962
14298.61209
14303.68594
14295.99694
14290.81133
14299.86379
14303.08244
14293.98528
14290.49841
14298.20976
14298.83561
14289.0232
14285.9163
14295.30404
14301.69663
14293.76177
14285.96101
14292.08538
14303.68594
14298.6568
14285.8269
14294.56643
14306.09993
14301.13784
14291.52659
14294.47702
14306.72578
14307.06105
14297.80743
14294.2535
14303.70829
14306.65872
14291.97363
14282.69765
14296.1087
14306.81518
14295.48285
14291.32543
14295.75107
14304.60236
14299.81909
14288.68792
14294.76759
14303.2389
14293.35943
14282.29532
14287.99502
14298.83561
14298.03095
14290.54311
14288.50911
14302.30013
14300.44494
14282.92117
14277.62381
14293.91823
14295.75107
14289.26906
14281.08833
14297.15923
14301.02608
14288.73262
14289.09025
14295.68402
14301.13784
14290.67722
14280.19426
14290.56547
14298.45563
14294.52172
14286.81037
14283.54702
14292.73358
14289.73845
14280.50718
14281.66947
14289.78315
14289.62669
14275.34393
14271.16415
14282.34002
14288.33029
14279.68017
14271.79
14279.50135
14285.08929
14275.031
14269.82305
14273.55579
14278.38377
14272.4382
14263.4081
14267.47611
14280.21661
14281.84829
14266.44793
14264.83861
14274.42751
14271.96881
14259.92122
14257.68605
14269.51012
14267.69963
14257.99897
14257.39548
14268.39254
14267.31965
14259.27302
14253.30511
14261.57525
14269.33131
14259.22832
14252.70161
14258.93775
14269.37601
14261.57525
14252.6122
14255.69674
14264.34687
14258.78129
14248.16421
14250.93582
14261.61996
14260.01063
14250.10881
14247.82893
14259.83182
14263.25163
14252.18752
14245.30318
14254.84738
14261.57525
14254.78032
14248.87946
14257.82016
14262.02229
14254.06507
14246.84545
14256.25554
14269.28661
14262.22345
14247.09132
14248.49948
14262.87165
14257.93192
14245.99609
14249.57237
14260.72589
14259.67535
14250.42173
14248.0748
14259.89887
14263.29634
14250.84642
14245.14672
14256.79198
14260.50237
14249.01357
14245.25848
14251.74049
14261.64231
14256.54611
14245.59376
14248.27597
14261.57525
14260.92705
14250.95817
14253.9086
14261.35174
14255.7638
14246.86781
14250.04175
14258.58012
14258.37895
14246.80075
14247.24779
14257.57429
14260.45767
14250.13116
14246.19725
14252.99218
14253.57333
14246.15255
14242.17394
14249.77353
14254.66856
14247.53836
14242.01748
14249.55001
14256.63552
14253.12629
14242.68803
14244.25265
14258.53542
14259.04951
14245.61611
14244.38676
14253.50627
14256.09908
14246.75605
14242.75508
14252.5675
14258.13308
14249.57237
14243.47034
14252.47809
14257.88722
14251.76284
14246.30901
14252.65691
14260.61413
14254.57916
14244.00678
14248.43243
14264.68215
14258.87069
14247.02427
14249.05828
14256.52376
14258.08838
14249.3712
14246.30901
14254.57916
14254.5121
14244.61028
14241.0787
14250.71231
14256.25554
14247.80658
14243.00095
14246.73369
14252.58985
14247.60541
14239.26821
14247.18073
14259.27302
14250.17586
14240.09523
14248.58889
14260.79294
14255.49558
14245.45965
14250.19822
14260.10004
14258.40131
14245.97374
14242.79979
14254.84738
14257.14961
14244.275
14242.17394
14256.74728
14258.42366
14243.60445
14238.70942
14245.5267
14252.38869
14252.18752
14245.90668
14251.56167
14262.29051
14256.25554
14243.78326
14247.91834
14258.24484
14253.10394
14245.16907
14248.52183
14254.53445
14254.86973
14246.73369
14244.07384
14252.67926
14250.51114
14241.61515
14237.92711
14250.39938
14254.73562
14244.07384
14239.87171
14247.82893
14257.08255
14252.83572
14241.27987
14249.25944
14257.48488
14248.25361
14236.76482
14242.86684
14255.36147
14255.8085
14244.52087
14245.43729
14256.56846
14255.1603
14241.7269
14241.99513
14253.9086
14257.52959
14243.6268
14237.41302
14246.97956
14253.08159
14246.75605
14241.50339
14249.3265
14257.7531
14251.89695
14244.14089
14248.56654
14258.11073
14251.78519
14241.83866
14245.21378
14252.74631
14246.97956
14235.17784
14235.87075
14248.25361
14246.97956
14241.23517
14238.17298
14253.39451
14254.5121
14241.39163
14237.01069
14246.48783
14251.94165
14239.82701
14229.14287
14241.81631
14250.55584
14243.02331
14233.52381
14239.20116
14248.723
14244.40911
14233.97085
14240.81048
14252.85807
14249.75118
14241.79396
14238.88823
14248.99122
14249.77353
14237.34596
14232.16036
14246.08549
14251.69578
14241.50339
14236.25073
14242.79979
14245.5267
14242.3304
14234.37318
14239.7823
14248.56654
14242.50922
14236.586
14238.21768
14247.00192
14243.89502
14228.29351
14233.345
14246.15255
14243.29153
14234.17201
14239.20116
14247.06897
14248.20891
14240.45285
14234.95433
14241.99513
14248.34302
14238.28474
14232.27212
14239.75995
14247.56071
14240.65402
14232.18271
14238.35179
14248.96887
14236.96598
14232.51799
14240.13993
14247.89599
14244.65498
14233.61322
14232.33917
14242.95625
14249.03592
14235.96015
14236.11662
14244.85615
14240.56461
14232.56269
14229.38874
14240.58697
14245.99609
14234.12731
14229.74637
14244.78909
14247.4713
14230.1487
14220.93978
14228.76289
14238.4859
14233.07678
14226.03598
14229.58991
14236.98833
14235.42371
14221.09624
14222.68322
14234.26142
14234.01555
14220.4704
14219.24105
14230.97572
14233.65792
14226.68418
14221.7668
14233.88144
14238.64236
14233.18854
14223.97962
14230.17105
14235.04373
14229.05347
14221.25271
14227.31003
14237.1895
14231.37805
14218.34698
14223.57729
14236.02721
14230.59574
14222.99614
14228.31586
14239.42467
14240.22934
14231.66862
14231.4451
14241.65985
14243.69386
14233.70263
14226.08068
14230.32751
14241.83866
14231.60156
14222.75027
14235.20019
14243.35858
14236.87658
14223.39847
14231.02042
14240.87754
14233.90379
14226.86299
14230.26046
14241.50339
14237.90476
14226.57242
14224.22549
14235.06608
14235.20019
14225.79011
14222.70557
14233.76968
14238.93294
14227.62295
14222.23618
14235.80369
14242.46451
14232.87561
14226.12539
14233.3003
14238.08357
14228.53937
14221.56563
14226.93005
14238.59766
14235.55782
14221.49858
14221.54328
14233.03208
14233.23324
14222.28089
14220.5151
14227.82412
14234.75316
14225.52189
14219.97866
14236.80952
14238.86588
14228.09234
14224.33725
14226.2595
14228.60643
14226.2595
14220.78332
14227.44414
14233.92615
14229.5452
14222.16913
14225.36543
14232.76385
14226.3489
14216.73765
14219.37516
14231.48981
14224.20314
14215.30714
14215.57536
14227.31003
14230.05929
14218.90577
14211.95438
14224.38195
14228.98641
14223.55494
14218.77166
14225.90187
14232.0486
14224.27019
14215.86594
14220.00101
14229.99224
14228.11469
14217.18469
14220.85037
14234.95433
14234.46259
14225.7007
14225.656
14235.17784
14235.91545
14227.57825
14226.10303
14234.79786
14236.5413
14226.01363
14221.7668
14234.46259
14235.02138
14228.76289
14223.24201
14233.16619
14239.11175
14229.5005
14218.41403
14222.54911
14232.67445
14231.48981
14219.17399
14220.67156
14235.78134
14233.97085
14227.01946
14229.99224
14244.02913
14245.88433
14223.68905
14216.69295
14228.13704
14225.23132
14211.93203
14207.41698
14218.25757
14219.93395
14214.23426
14207.037
14214.01074
14217.81054
14208.73573
14199.77268
14205.40532
14217.05058
14216.69295
14203.25955
14205.96411
14208.4228
14210.85915
14202.87957
14203.1925
14210.90385
14210.54622
14200.97967
14199.41505
14211.06031
14216.20121
14204.95828
14199.75033
14208.71338
14213.16137
14206.32174
14203.57248
14207.19346
14211.55205
14207.52874
14199.70562
14203.52777
14217.81054
14214.0778
14198.40922
14206.79113
14215.95534
14206.79113
14202.20902
14204.4889
14216.42473
14218.81637
14205.85235
14203.41601
14213.00491
14215.19538
14206.81348
14202.38783
14211.28383
14214.52483
14208.15458
14202.38783
14211.23912
14217.02823
14210.18859
14200.10796
14207.43933
14221.90091
14216.20121
14207.70755
14210.65798
14215.26244
14210.81444
14203.01368
14200.77851
14211.14972
14213.60841
14203.01368
14201.22554
14212.35671
14217.74348
14206.25469
14200.57734
14208.53456
14214.56953
14209.11571
14201.00203
14208.80278
14218.6599
14208.15458
14197.24693
14202.11961
14215.70947
14214.23426
14199.92914
14201.27025
14214.94951
14212.35671
14200.26442
14201.09143
14208.86984
14210.50152
14202.74546
14198.99037
14209.83096
14214.83776
14200.91262
14195.25763
14208.9816
14214.03309
14201.60552
14194.72119
14202.61135
14208.04283
14201.8961
14194.9447
14199.52681
14211.37324
14211.50735
14199.19153
14196.1964
14206.32174
14205.11475
14197.09047
14198.02924
14207.23816
14212.62493
14197.51515
14191.41313
14202.65605
14209.87567
14201.80669
14196.03994
14202.90192
14216.17886
14205.1818
14193.91652
14202.14196
14210.61328
14204.55595
14194.9
14197.62691
14208.60162
14207.37227
14194.07298
14198.92331
14213.25078
14210.65798
14198.94567
14202.29843
14212.53553
14214.39072
14198.85626
14194.16239
14203.72894
14210.63563
14199.81738
14187.45687
14197.31399
14211.12737
14207.0817
14194.22945
14197.62691
14205.51708
14208.06518
14199.90679
14200.21971
14209.98743
14203.95246
14196.97871
14200.0409
14206.41115
14207.46168
14201.49376
14197.69397
14205.62884
14213.45195
14201.65023
14193.38008
14202.5443
14205.31591
14195.01176
14188.93208
14195.07881
14202.23137
14198.52098
14203.08074
14206.09822
14208.86984
14212.91551
14208.13223
14211.10501
14221.38682
14230.55103
14217.20704
14216.53649
14228.49467
14232.56269
14221.45387
14216.20121
14225.11956
14228.04764
14220.24688
14214.0778
14220.78332
14231.06512
14223.95727
14217.3635
14226.86299
14230.12635
14221.96796
14212.28966
14215.15068
14227.08651
14220.13512
14211.28383
14218.25757
14222.72792
14224.85134
14214.726
14212.55788
14226.41596
14226.08068
14210.63563
14211.21677
14219.2634
14226.75124
14217.09528
14210.50152
14220.64921
14227.71236
14217.69878
14211.41794
14223.44318
14229.79107
14223.17496
14211.37324
14216.91647
14227.86882
14225.41013
14217.07293
14213.72017
14223.53258
14222.92909
14213.20608
14213.96604
14224.06903
14222.23618
14212.60258
14209.6745
14224.69487
14228.42762
14219.37516
14213.89898
14213.58606
14215.28479
14219.82219
14216.53649
14227.80177
14234.19437
14230.37222
14223.51023
14232.62974
14246.53253
14240.4305
14229.85813
14234.06026
14246.39842
14246.57723
14239.31292
14238.82118
14245.81727
14247.24779
14235.40136
14234.90962
14242.77744
14245.5714
14237.59183
14227.86882
14237.1448
14246.71134
14241.19046
14232.51799
14235.80369
14245.03496
14242.46451
14233.72498
14236.89893
14250.39938
14247.31484
14231.10983
14237.21185
14247.20308
14245.21378
14237.27891
14233.97085
14246.44312
14249.99705
14242.12924
14237.10009
14245.39259
14252.20987
14241.05635
14232.96502
14243.69386
14249.05828
14243.24682
14233.9485
14241.99513
14252.41104
14249.25944
14234.46259
14239.11175
14250.26527
14248.36537
14239.1341
14237.39067
14247.94069
14253.61803
14243.93973
14236.89893
14248.61124
14253.59568
14238.64236
14236.18367
14247.29249
14256.4567
14245.25848
14235.04373
14243.89502
14251.964
14245.30318
14237.92711
14240.47521
14248.18656
14249.59472
14238.46355
14238.93294
14252.07576
14252.27693
14239.26821
14239.20116
14253.95331
14256.54611
14243.20212
14236.13897
14246.7784
14249.81824
14247.31484
14246.30901
14249.46061
14256.63552
14244.72204
14240.4305
14249.43826
14253.8639
14247.85128
14237.90476
14243.5821
14253.01454
14253.52863
14239.82701
14240.09523
14247.51601
14248.41008
14237.41302
14239.44703
14250.95817
14253.171
14244.29735
14246.44312
14258.98245
14256.21083
14242.21864
14238.73177
14246.26431
14249.34885
14240.87754
14236.22837
14239.04469
14242.17394
14237.48007
14226.97475
14232.51799
14245.41494
14244.9232
14232.49563
14233.68028
14245.72787
14248.47713
14236.02721
14232.6521
14244.56558
14248.49948
14235.80369
14234.12731
14245.5714
14251.94165
14242.68803
14236.67541
14242.21864
14247.02427
14239.58114
14228.69584
14233.81439
14245.482
14247.4713
14236.63071
14238.97764
14246.95721
14243.89502
14232.98737
14230.05929
14245.41494
14253.37216
14239.82701
14233.90379
14240.09523
14244.67733
14234.52964
14229.16522
14236.63071
14248.27597
14239.24586
14235.91545
14245.5714
14255.00384
14249.21474
14236.02721
14237.43537
14248.70065
14245.86198
14233.59087
14239.91641
14250.73466
14247.11367
14237.59183
14239.7376
14250.22057
14246.46547
14236.69776
14232.7415
14244.36441
14249.99705
14242.73273
14235.71428
14246.1302
14250.55584
14240.92224
14233.07678
14237.99416
14244.9232
14241.57044
14233.32265
14237.03304
14250.89112
14247.85128
14236.04956
14239.0894
14245.90668
14243.85032
14236.96598
14238.70942
14248.56654
14249.19239
14236.89893
14237.03304
14252.18752
14252.05341
14240.67637
14235.40136
14247.15838
14251.49462
14242.62097
14234.95433
14243.73856
14253.8639
14247.29249
14239.64819
14246.30901
14255.31676
14250.95817
14242.26335
14243.06801
14253.43922
14251.60638
14240.76578
14242.9786
14254.24388
14254.71327
14246.75605
14243.06801
14249.88529
14253.8192
14246.35372
14239.89406
14247.3819
14255.7191
14245.90668
14235.73664
14244.09619
14253.37216
14247.29249
14239.75995
14243.02331
14253.23805
14249.88529
14241.61515
14244.31971
14249.92999
14247.58306
14239.64819
14237.25656
14245.14672
14255.31676
14243.22447
14236.09426
14247.82893
14248.83476
14240.27404
14235.8484
14243.38093
14250.6229
14244.63263
14237.99416
14245.30318
14254.13212
14250.48879
14239.15645
14239.24586
14252.5675
14252.79102
14241.43633
14241.65985
14252.5675
14255.62969
14245.5714
14243.22447
14252.96983
14254.53445
14241.14576
14237.03304
14245.75022
14253.79685
14246.84545
14238.06122
14242.86684
14253.05924
14246.30901
14233.65792
14244.47617
14258.22249
14249.63942
14239.22351
14241.95042
14254.84738
14251.38286
14239.44703
14240.45285
14247.96304
14247.65012
14242.26335
14244.69969
14252.96983
14258.22249
14247.69482
14243.89502
14253.61803
14252.88042
14243.5821
14238.82118
14249.10298
14257.82016
14252.94748
14240.85519
14247.96304
14258.71423
14251.98635
14241.79396
14244.47617
14255.18265
14253.8639
14244.02913
14244.31971
14258.15544
14258.51306
14251.67343
14246.46547
14256.47906
14257.37313
14245.01261
14243.24682
14252.63456
14255.96497
14247.73952
14239.55878
14253.8192
14265.48681
14254.24388
14244.54322
14250.44408
14258.22249
14255.69674
14245.86198
14245.97374
14256.34494
14258.06603
14246.91251
14246.37607
14259.58595
14263.27399
14247.76188
14240.36345
14249.43826
14253.9086
14241.61515
14238.01651
14250.75701
14258.3119
14249.14768
14242.57627
14249.46061
14251.74049
14245.482
14238.79883
14244.63263
14257.77546
14256.43435
14243.11271
14243.6268
14254.5121
14252.92513
14241.59279
14242.82214
14254.26623
14254.24388
14248.83476
14247.4713
14252.72396
14258.04368
14247.94069
14234.75316
14244.76674
14252.72396
14243.35858
14235.98251
14245.32553
14255.94261
14247.09132
14240.56461
14245.12437
14255.31676
14253.14865
14243.5821
14246.42077
14259.04951
14258.24484
14246.59958
14244.99026
14254.06507
14258.15544
14246.89016
14243.17977
14253.84155
14256.85904
14245.25848
14241.32457
14251.74049
14263.02812
14249.92999
14244.00678
14251.69578
14258.80364
14253.57333
14240.29639
14246.51018
14257.23901
14253.57333
14241.77161
14243.64915
14256.74728
14255.40617
14246.42077
14244.00678
14251.56167
14254.24388
14248.63359
14249.50531
14253.46157
14253.03689
14244.14089
14237.41302
14246.55488
14256.3673
14250.73466
14242.19629
14250.24292
14258.33425
14256.88139
14248.16421
14249.34885
14258.51306
14258.51306
14247.40425
14248.32067
14261.75407
14262.26816
14250.95817
14248.43243
14259.16126
14262.29051
14253.28276
14248.36537
14259.54124
14264.30217
14252.50044
14242.68803
14254.78032
14264.48098
14258.3566
14249.28179
14253.50627
14263.51985
14264.45863
14250.39938
14245.72787
14258.44601
14262.73754
14254.02036
14252.41104
14257.88722
14255.98732
14247.24779
14245.92903
14257.03785
14256.34494
14249.39355
14243.33623
14251.69578
14262.71519
14247.49365
14242.01748
14246.84545
14258.78129
14252.96983
14244.36441
14252.07576
14265.71033
14260.9494
14250.84642
14254.66856
14264.59274
14261.73172
14249.3265
14245.72787
14253.9086
14252.83572
14244.58793
14237.1448
14248.00774
14255.33912
14245.83963
14232.0486
14245.50435
14253.52863
14242.88919
14239.33527
14250.28762
14264.99507
14262.91636
14257.0602
14258.9601
14267.92315
14265.12918
14252.23222
14251.94165
14265.97855
14265.66562
14254.08742
14252.00871
14265.86679
14263.96689
14255.69674
14252.67926
14261.77642
14267.47611
14258.82599
14255.33912
14261.57525
14268.50429
14261.06116
14249.3712
14259.31773
14270.31479
14262.67049
14253.66274
14256.92609
14264.21276
14262.46932
14248.18656
14248.00774
14263.81043
14263.74337
14253.23805
14252.38869
14266.98438
14269.71129
14257.37313
14253.171
14260.41296
14264.81626
14257.7531
14248.65594
14251.58402
14256.85904
14255.85321
14244.34206
14247.78423
14258.89304
14253.59568
14246.62194
14253.2604
14267.31965
14263.58691
14253.9086
14255.42852
14266.33617
14268.10196
14258.71423
14255.22736
14264.45863
14269.1972
14259.78711
14253.23805
14263.51985
14271.25356
14262.69284
14260.9047
14266.6044
14264.36922
14252.67926
14240.58697
14248.94652
14259.02715
14256.43435
14243.13506
14250.28762
14262.02229
14259.83182
14248.36537
14247.29249
14258.08838
14258.04368
14245.5714
14244.56558
14258.53542
14262.7599
14252.20987
14245.63846
14256.65787
14260.9047
14248.81241
14243.6268
14252.94748
14259.67535
14253.08159
14247.13603
14250.39938
14259.94358
14252.07576
14246.08549
14249.14768
14260.79294
14257.21666
14247.31484
14245.03496
14252.50044
14255.69674
14248.47713
14247.91834
14256.07672
14263.4081
14255.18265
14245.25848
14253.99801
14262.62579
14257.32842
14250.30997
14253.2157
14260.2565
14255.65204
14244.25265
14251.56167
14262.60343
14257.6637
14245.01261
14248.16421
14261.15057
14260.34591
14250.51114
14249.66177
14263.54221
14265.48681
14253.08159
14250.17586
14258.71423
14263.18458
14256.76963
14249.50531
14256.3673
14266.42558
14265.86679
14247.02427
14243.22447
14250.19822
14243.78326
14233.63557
14236.20602
14241.61515
14230.23811
14213.27313
14212.2673
14216.73765
14208.82514
14193.93887
14194.2965
14201.65023
14204.73477
14193.0001
14182.29362
14191.27902
14197.64926
14186.33928
14180.50548
14187.8145
14195.52585
14188.99914
14178.09149
14186.78632
14195.72701
14189.35677
14185.62403
14190.34024
14197.02342
14195.45879
14183.74648
14183.25474
14196.08464
14200.77851
14191.59194
14185.73578
14192.01662
14196.7999
14188.30623
14187.79214
14194.9447
14199.63857
14189.69204
14185.51227
14193.33538
14204.37714
14196.30816
14186.69691
14192.9554
14204.33244
14199.77268
14188.26153
14194.2071
14204.26538
14201.00203
14190.69787
14191.03315
14203.12544
14202.09726
14191.81546
14191.61429
14200.28677
14203.43837
14191.88251
14184.79701
14199.21389
14206.00882
14195.88348
14191.77076
14199.10213
14209.45099
14203.81835
14191.0555
14197.26928
14206.00882
14198.7892
14190.04967
14193.33538
14199.63857
14198.141
14189.2003
14188.01566
14201.42671
14203.77364
14190.42965
14188.26153
14200.17501
14201.31495
14191.81546
14182.38302
14194.2965
14204.08657
14195.05646
14187.18865
14194.45296
14205.33826
14202.29843
14192.91069
14198.45393
14210.25565
14207.70755
14195.63761
14196.30816
14201.69493
14205.1818
14190.92139
14189.08855
14201.69493
14202.76781
14196.28581
14195.45879
14200.80086
14200.97967
14191.77076
14190.38495
14199.30329
14206.36644
14195.61526
14188.97679
14196.37521
14203.97481
14193.82712
14185.84754
14196.77755
14203.59483
14196.50933
14187.59098
14195.41409
14206.63467
14203.72894
14193.26832
14193.76006
14202.85722
14203.50542
14193.80476
14190.69787
14199.37035
14207.86401
14196.26346
14190.76493
14204.51125
14208.17694
14198.47628
14192.3966
14197.35869
14204.93593
14200.10796
14190.67552
14195.27998
14202.76781
14200.24207
14190.65317
14194.07298
14206.70172
14206.67937
14202.14196
14195.68231
14206.50055
14209.80861
14198.52098
14194.67648
14201.3373
14209.80861
14202.90192
14197.51515
14203.21485
14210.72503
14200.37618
14189.84851
14201.02438
14207.37227
14202.45489
14194.74354
14197.93984
14212.11084
14212.62493
14199.86209
14197.58221
14211.37324
14210.61328
14197.93984
14194.60943
14210.50152
14217.40821
14205.89706
14200.53264
14208.08753
14213.27313
14202.56665
14194.96705
14205.80765
14211.99908
14199.86209
14188.82032
14197.29164
14208.64632
14205.51708
14189.7591
14194.40826
14208.13223
14203.68424
14192.17309
14193.49184
14205.89706
14204.28773
14194.2965
14194.47532
14204.44419
14210.79209
14202.90192
14196.55403
14208.19929
14212.37906
14205.7406
14202.83487
14207.17111
14216.13416
14211.6191
14200.37618
14204.51125
14214.23426
14211.50735
14202.41019
14204.33244
14214.32367
14216.0671
14205.7853
14202.29843
14213.29549
14216.1118
14204.95828
14199.37035
14213.00491
14215.24009
14208.80278
14197.85043
14202.61135
14213.34019
14211.79792
14200.59969
14208.53456
14227.10886
14229.38874
14214.88246
14231.35569
14243.67151
14239.67054
14233.07678
14238.64236
14257.52959
14262.40227
14248.16421
14256.00967
14272.32644
14274.74043
14261.28468
14258.66953
14274.53926
14284.03876
14271.34297
14267.36436
14278.89786
14292.28655
14288.50911
14281.4236
14291.19131
14305.58584
14300.17672
14289.73845
14296.26516
14301.8978
14301.51782
14290.07373
14292.80064
14307.21752
14305.71995
14292.39831
14294.34291
14305.38467
14306.77048
14291.6607
14290.38665
14299.84144
14299.88614
14288.37499
14285.31281
14289.22436
14292.35361
14284.46344
14276.64033
14286.29628
14293.73941
14283.94935
14274.47221
14276.8862
14289.0232
14288.17383
14273.17581
14274.96395
14284.08346
14287.90561
14274.78513
14269.59953
14279.56841
14284.86577
14275.76861
14268.10196
14274.65102
14278.40612
14272.52761
14266.76086
14276.10389
14283.03293
14280.1272
14269.8901
14275.65685
14284.17287
14281.11068
14270.62771
14275.09806
14281.71417
14281.3342
14268.99603
14266.26912
14282.36238
14285.93865
14280.1272
14272.63937
14284.99988
14289.49258
14278.67434
14274.51691
14283.54702
14289.40318
14281.93769
14277.04266
14285.35751
14294.29821
14286.81037
14278.07084
14282.58589
14291.34778
14283.90465
14275.29922
14277.55675
14289.1126
14287.70444
14271.85706
14273.80166
14285.20105
14287.168
14278.00379
14277.37794
14284.41874
14286.92213
14277.46734
14273.37697
14280.90951
14287.36917
14282.40708
14274.76278
14280.95422
14288.4197
14284.82107
14277.89203
14286.40804
14294.87935
14287.92796
14277.02031
14281.35655
14290.11843
14293.87352
14279.63546
14275.65685
14288.84438
14290.49841
14281.11068
14274.42751
14287.8609
14292.42066
14278.02614
14272.90759
14285.35751
14294.14174
14283.63642
14278.8755
14288.93379
14300.44494
14285.93865
14282.36238
14284.91047
14287.72679
14291.95127
14281.58006
14279.79192
14294.07469
14298.67915
14285.35751
14287.61504
14303.12715
14303.32831
14289.22436
14284.5752
14296.93571
14300.82492
14287.59268
14285.04458
14295.43815
14306.21169
14299.68498
14292.59947
14296.28751
14305.07175
14298.61209
14291.72776
14292.28655
14300.17672
14297.42745
14286.98919
14287.01154
14300.33318
14299.66263
14288.62086
14284.93283
14298.45563
14298.0086
14285.71514
14284.30698
14291.77246
14295.19228
14283.927
14274.06988
14282.80941
14291.83952
14282.6306
14271.94646
14279.54606
14288.64322
14283.30115
14274.31575
14280.57424
14291.39248
14286.92213
14276.9309
14281.78123
14290.67722
14290.74428
14281.44595
14280.70835
14287.99502
14292.51007
14283.25645
14275.76861
14285.46927
14293.85117
14287.43622
14282.04945
14283.56937
14293.5159
14287.05624
14276.30505
14280.50718
14295.10287
14293.31473
14280.46248
14286.31863
14295.12522
14289.89491
14277.60145
14279.56841
14290.76663
14290.16313
14278.8755
14274.87454
14285.62573
14291.616
14282.13886
14277.51205
14285.98336
14297.3604
14291.59365
14282.0718
14290.83369
14295.79577
14287.65974
14277.60145
14285.11164
14296.82395
14292.97945
14281.82593
14281.78123
14292.80064
14289.42553
14280.21661
14281.28949
14292.59947
14294.14174
14279.56841
14277.73556
14290.52076
14294.14174
14284.86577
14278.49552
14289.00084
14293.85117
14285.20105
14277.89203
14287.43622
14295.88518
14289.93962
14281.96004
14287.32446
14297.47215
14292.13009
14281.02127
14285.20105
14295.97459
14295.03581
14282.94352
14282.16121
14292.39831
14294.09704
14288.17383
14286.07277
14292.21949
14298.38858
14290.49841
14283.54702
14292.9124
14300.95903
14290.90074
14282.31767
14287.32446
14298.12036
14293.96293
14277.98143
14282.22827
14292.39831
14293.58295
14283.81524
14289.31377
14299.43911
14296.53338
14283.47996
