Detector 2,,,,,,,,Detector 4,,,,,,,,Detector 6,,,,,,,,Detector 8,,,,,,,,Detector 10,,,,,,,,Detector 12,,,,,,,,Detector 14,,,,,,,,Detector 16,,,,,,,
"RED1,2,3,4","IR1,2,3,4 ","RED5,6,7,8","IR5,6,7,8 ","RED9,10,11,12","IR9,10,11,12 ","RED13,14,15,16","IR13,14,15,16 ","RED1,2,3,4","IR1,2,3,4 ","RED5,6,7,8","IR5,6,7,8 ","RED9,10,11,12","IR9,10,11,12 ","RED13,14,15,16","IR13,14,15,16 ","RED1,2,3,4","IR1,2,3,4 ","RED5,6,7,8","IR5,6,7,8 ","RED9,10,11,12","IR9,10,11,12 ","RED13,14,15,16","IR13,14,15,16 ","RED1,2,3,4","IR1,2,3,4 ","RED5,6,7,8","IR5,6,7,8 ","RED9,10,11,12","IR9,10,11,12 ","RED13,14,15,16","IR13,14,15,16 ","RED1,2,3,4","IR1,2,3,4 ","RED5,6,7,8","IR5,6,7,8 ","RED9,10,11,12","IR9,10,11,12 ","RED13,14,15,16","IR13,14,15,16 ","RED1,2,3,4","IR1,2,3,4 ","RED5,6,7,8","IR5,6,7,8 ","RED9,10,11,12","IR9,10,11,12 ","RED13,14,15,16","IR13,14,15,16 ","RED1,2,3,4","IR1,2,3,4 ","RED5,6,7,8","IR5,6,7,8 ","RED9,10,11,12","IR9,10,11,12 ","RED13,14,15,16","IR13,14,15,16 ","RED1,2,3,4","IR1,2,3,4 ","RED5,6,7,8","IR5,6,7,8 ","RED9,10,11,12","IR9,10,11,12 ","RED13,14,15,16","IR13,14,15,16 "
648,5971,218,161,161,154,155,154,607,4487,204,162,157,153,153,153,481,4562,203,188,160,160,159,159,515,2682,187,172,166,163,163,170,191,291,22283,24268,10553,13698,367,209,276,507,20988,14730,25487,25225,569,423,865,5782,24241,31557,20604,28666,32357,26449,154,1045,7055,6789,4070,6532,8623,29610
643,5967,215,157,155,155,160,154,601,4486,200,157,154,159,159,159,478,4557,204,187,164,157,160,158,513,2679,185,172,166,163,166,169,198,290,22300,24293,10561,13715,365,208,286,511,20964,14711,25490,25225,563,420,1188,5801,24251,31558,20601,28665,32366,26458,535,1058,7056,6793,4071,6533,8626,29619
645,5971,221,157,153,148,154,154,603,4487,199,158,152,155,158,145,479,4550,205,187,161,160,161,161,512,2679,191,171,164,165,163,170,200,294,22303,24315,10566,13729,366,209,284,510,20940,14691,25503,25240,569,422,1190,5809,24244,31551,20588,28655,32370,26468,535,1057,7056,6793,4072,6535,8626,29631
645,5971,214,165,155,156,160,152,602,4488,199,157,161,158,157,151,478,4547,205,187,163,161,164,161,512,2681,186,171,165,165,164,169,199,293,22329,24358,10568,13750,368,209,285,512,20923,14691,25525,25268,569,422,1191,5818,24242,31554,20575,28653,32379,26485,534,1061,7056,6794,4070,6536,8628,29637
643,5972,217,164,153,157,153,154,602,4493,202,162,158,157,159,154,472,4541,204,193,167,159,166,161,512,2680,187,171,165,165,165,168,197,293,22347,24406,10575,13767,367,205,285,512,20927,14703,25548,25305,570,424,1192,5827,24239,31561,20564,28662,32388,26496,532,1061,7058,6798,4072,6541,8630,29654
645,5979,217,160,156,154,157,153,602,4498,199,156,157,156,159,156,477,4541,207,186,162,165,163,164,511,2683,187,172,162,167,166,168,202,295,22369,24442,10574,13788,367,209,287,512,20933,14713,25576,25345,567,423,1197,5843,24247,31571,20546,28658,32398,26513,533,1061,7059,6803,4073,6547,8632,29675
643,5979,219,156,156,154,153,153,603,4501,201,159,157,153,158,151,476,4538,206,187,163,161,158,158,511,2682,193,171,164,165,163,168,197,293,22372,24481,10571,13803,365,207,286,515,20927,14713,25603,25379,569,424,1195,5851,24246,31586,20531,28661,32407,26523,531,1064,7060,6805,4074,6549,8636,29690
641,5984,217,157,154,153,156,156,604,4502,199,159,152,160,154,155,477,4540,204,187,167,161,161,160,510,2686,185,173,168,164,167,167,198,294,22385,24504,10576,13833,367,207,285,516,20927,14716,25632,25420,570,424,1196,5864,24255,31604,20521,28667,32417,26539,533,1065,7062,6806,4078,6549,8639,29703
645,5983,214,160,155,157,154,154,603,4504,203,161,158,158,151,150,477,4538,205,189,167,159,160,159,514,2687,187,171,164,167,166,168,199,294,22382,24476,10595,13794,370,209,285,514,20899,14693,25654,25381,569,423,1195,5861,24282,31617,20551,28685,32423,26524,533,1064,7071,6802,4076,6546,8643,29692
643,5960,215,158,157,153,156,154,605,4499,201,159,156,157,155,159,476,4526,196,186,163,165,157,163,511,2684,186,176,165,168,166,168,198,293,22334,24354,10584,13723,366,209,286,513,20879,14661,25614,25292,567,423,1198,5841,24284,31578,20582,28683,32423,26516,533,1061,7065,6796,4075,6539,8640,29673
642,5944,213,157,157,157,154,155,603,4492,200,157,159,159,156,159,474,4510,206,186,161,165,159,165,513,2682,188,173,167,164,166,168,196,296,22293,24250,10580,13677,369,209,285,511,20851,14617,25581,25219,566,422,1196,5823,24279,31532,20592,28666,32419,26509,531,1058,7065,6784,4077,6528,8639,29648
643,5927,214,157,156,157,153,157,605,4483,202,162,158,154,149,153,475,4491,203,188,164,161,161,159,511,2679,185,171,164,163,163,170,197,293,22267,24186,10582,13651,365,206,285,509,20818,14579,25560,25169,565,421,1193,5806,24264,31490,20601,28647,32420,26499,531,1056,7055,6774,4070,6522,8631,29626
642,5923,212,160,155,158,153,154,603,4481,200,161,155,164,155,158,477,4481,205,190,161,163,163,164,513,2676,187,171,164,167,163,169,196,291,22255,24192,10582,13669,363,213,283,503,20797,14556,25545,25162,565,421,1195,5807,24245,31463,20583,28636,32413,26502,530,1055,7051,6771,4069,6521,8626,29614
640,5919,215,160,156,155,155,152,602,4480,199,155,156,155,156,167,477,4473,203,187,160,165,161,160,514,2673,185,168,162,167,163,169,194,291,22265,24210,10585,13677,369,208,283,508,20766,14527,25539,25155,564,420,1197,5805,24246,31454,20565,28623,32406,26497,533,1055,7042,6763,4068,6520,8623,29612
643,5919,220,158,159,153,155,154,604,4477,198,157,159,147,153,151,475,4467,205,187,161,165,161,160,512,2671,186,169,168,165,165,168,200,293,22265,24228,10579,13694,366,207,284,508,20743,14515,25540,25166,566,420,1194,5810,24234,31449,20549,28610,32406,26499,533,1055,7035,6764,4069,6515,8625,29614
642,5919,215,160,157,154,155,153,604,4475,199,155,157,159,152,157,473,4463,204,187,163,162,162,161,510,2676,185,172,163,165,163,168,197,294,22285,24268,10580,13710,366,211,283,509,20747,14521,25558,25189,565,421,1195,5821,24233,31449,20523,28605,32408,26502,532,1055,7035,6761,4067,6518,8624,29623
641,5919,217,157,154,152,153,153,602,4480,199,157,155,163,156,155,476,4460,203,186,164,162,164,161,511,2673,186,170,163,163,163,171,197,291,22303,24307,10577,13728,367,208,286,508,20736,14522,25579,25215,565,422,1199,5830,24232,31457,20506,28591,32411,26508,530,1059,7033,6761,4069,6521,8623,29638
643,5929,215,161,155,158,152,153,603,4479,199,155,156,152,152,160,472,4459,203,187,168,162,160,162,510,2675,182,172,167,163,164,172,194,293,22327,24348,10578,13751,366,208,285,512,20736,14527,25604,25253,565,423,1200,5838,24231,31468,20481,28591,32412,26519,532,1060,7031,6758,4073,6523,8628,29657
643,5934,216,157,156,157,152,155,603,4485,199,162,149,160,171,155,473,4457,204,186,165,162,164,160,510,2678,187,173,163,167,163,170,197,295,22346,24390,10581,13768,366,207,285,511,20744,14535,25629,25293,570,422,1199,5850,24227,31476,20461,28587,32414,26520,531,1059,7030,6758,4069,6525,8631,29677
643,5937,215,157,155,155,153,155,601,4488,199,162,161,154,155,153,472,4458,205,187,161,162,161,161,510,2682,190,171,165,165,163,168,199,294,22373,24432,10582,13793,366,209,286,510,20749,14542,25661,25328,566,422,1201,5862,24229,31485,20434,28580,32414,26525,533,1063,7029,6754,4071,6527,8632,29690
643,5945,218,159,155,155,155,157,603,4492,200,158,153,151,156,157,473,4461,204,187,165,162,162,160,514,2687,187,172,163,166,164,169,200,295,22383,24471,10585,13816,368,208,284,515,20733,14533,25682,25359,568,425,1199,5877,24221,31486,20413,28576,32427,26535,531,1060,7023,6747,4073,6533,8638,29703
644,5951,215,158,156,156,154,154,602,4496,199,157,159,154,156,155,473,4463,204,188,162,162,165,160,511,2690,186,172,164,165,164,168,198,296,22400,24509,10580,13839,369,209,286,514,20735,14538,25706,25393,570,423,1206,5891,24230,31506,20395,28583,32427,26543,534,1065,7022,6747,4073,6532,8639,29721
642,5951,217,158,156,155,157,155,599,4501,197,159,156,156,158,155,472,4470,206,187,163,161,161,161,510,2693,186,171,163,163,162,172,198,296,22422,24552,10589,13866,368,211,285,516,20705,14511,25719,25404,567,422,1207,5911,24217,31509,20381,28589,32436,26544,533,1066,7010,6737,4073,6532,8647,29735
642,5927,215,157,156,155,157,153,604,4497,198,162,159,157,157,155,473,4464,205,188,161,161,158,161,510,2691,185,173,162,163,165,168,197,297,22415,24462,10590,13771,366,210,287,515,20665,14461,25697,25295,566,423,1203,5896,24242,31484,20424,28599,32442,26535,533,1062,7019,6731,4074,6526,8647,29711
642,5911,215,153,159,157,153,154,604,4493,204,158,161,160,159,155,473,4450,206,190,166,165,165,161,510,2684,188,171,167,165,163,173,198,295,22364,24332,10568,13692,365,207,284,511,20638,14429,25641,25200,566,414,1200,5881,24239,31445,20455,28595,32445,26524,532,1060,7024,6729,4073,6518,8646,29690
640,5897,216,157,156,155,154,155,606,4484,201,162,159,161,158,155,471,4437,203,187,163,159,163,162,511,2677,185,174,165,163,167,169,196,293,22334,24227,10561,13639,364,210,280,508,20598,14383,25600,25116,566,423,1203,5860,24236,31398,20481,28581,32447,26515,531,1055,7024,6718,4071,6509,8641,29655
640,5887,216,158,156,158,155,154,603,4479,199,156,153,160,158,157,471,4421,204,187,163,163,162,160,514,2674,186,172,164,167,162,168,194,295,22314,24180,10560,13623,365,206,284,507,20571,14358,25572,25078,563,418,1200,5848,24228,31358,20491,28570,32443,26515,531,1055,7023,6718,4074,6507,8637,29638
643,5889,215,158,156,155,154,155,604,4478,199,158,157,158,155,152,470,4417,203,186,162,163,160,161,512,2672,185,171,163,166,164,166,200,295,22325,24212,10565,13650,365,207,281,507,20563,14343,25573,25074,563,417,1204,5851,24219,31347,20477,28557,32441,26509,531,1053,7021,6718,4071,6506,8629,29637
641,5884,219,157,156,155,154,155,604,4474,201,162,155,157,154,155,472,4414,198,186,160,165,162,159,508,2670,187,175,167,164,163,171,197,297,22326,24222,10571,13663,366,207,283,508,20529,14322,25566,25072,564,419,1202,5853,24218,31340,20455,28535,32431,26505,530,1054,7015,6711,4072,6503,8627,29629
638,5880,215,157,154,157,153,157,606,4471,198,159,155,152,157,156,470,4413,207,187,167,162,165,158,510,2669,190,175,168,164,163,166,196,294,22345,24249,10567,13677,366,208,282,509,20515,14314,25571,25082,565,423,1202,5858,24216,31334,20438,28514,32434,26505,529,1055,7011,6707,4070,6502,8628,29639
639,5891,217,157,153,153,158,152,603,4475,198,156,152,156,155,157,472,4415,204,186,164,161,162,162,510,2670,186,171,163,164,162,168,196,299,22357,24285,10570,13699,364,207,281,510,20504,14310,25589,25107,564,420,1199,5863,24211,31336,20407,28499,32422,26505,530,1055,7008,6709,4071,6503,8628,29644
642,5893,214,157,154,155,155,153,603,4481,199,161,161,152,151,155,474,4414,204,185,163,162,161,160,513,2672,185,169,165,165,162,168,196,295,22381,24325,10571,13725,365,208,284,509,20496,14301,25607,25135,565,422,1203,5873,24208,31342,20380,28481,32422,26509,532,1056,7003,6702,4069,6503,8630,29653
642,5903,213,158,159,158,154,155,603,4480,200,159,160,159,153,158,469,4418,209,189,166,159,163,165,513,2676,186,172,164,168,163,168,199,297,22400,24371,10569,13742,367,208,283,512,20479,14293,25623,25167,564,420,1203,5886,24206,31346,20353,28469,32423,26513,531,1056,7000,6694,4070,6506,8630,29670
641,5910,219,161,157,155,154,155,604,4486,201,157,158,159,156,151,471,4421,202,187,163,160,164,161,513,2678,185,171,163,165,164,168,197,296,22423,24414,10568,13770,367,207,279,512,20464,14284,25645,25198,568,415,1205,5896,24201,31355,20330,28463,32425,26513,532,1059,6996,6693,4070,6505,8632,29682
644,5915,215,158,156,155,157,154,605,4489,199,158,157,152,155,153,476,4422,204,187,165,162,161,160,510,2681,188,173,165,164,163,168,198,295,22439,24457,10570,13792,367,208,282,513,20440,14273,25670,25231,566,421,1202,5909,24203,31362,20303,28457,32420,26521,531,1062,6988,6685,4071,6511,8637,29702
645,5922,217,155,157,155,154,154,608,4492,199,159,157,153,156,159,471,4426,207,189,165,162,163,162,509,2686,187,173,167,165,163,171,197,298,22465,24499,10571,13818,368,207,285,515,20423,14263,25693,25263,567,417,1205,5921,24207,31377,20288,28457,32429,26528,531,1063,6985,6679,4074,6514,8640,29721
643,5929,215,153,156,155,157,153,604,4498,201,157,157,155,159,154,471,4429,205,187,163,162,161,162,509,2687,186,170,165,163,163,168,197,299,22486,24550,10577,13841,369,208,286,514,20422,14268,25717,25297,567,423,1205,5937,24207,31391,20275,28465,32433,26539,531,1067,6986,6680,4073,6517,8644,29729
645,5939,215,160,159,153,153,153,604,4502,197,156,161,157,155,159,473,4432,204,188,164,165,161,163,511,2691,187,172,165,168,164,171,196,299,22503,24589,10580,13861,369,209,283,516,20399,14259,25737,25314,568,420,1210,5955,24211,31403,20275,28490,32440,26533,533,1065,6985,6677,4075,6522,8649,29748
642,5920,215,161,157,155,153,153,605,4501,199,159,161,158,159,157,472,4429,204,190,165,159,166,161,510,2690,186,169,167,167,164,170,197,300,22493,24498,10567,13752,366,208,284,516,20364,14222,25711,25208,565,421,1205,5933,24239,31390,20319,28486,32447,26519,531,1060,6999,6679,4077,6513,8647,29723
641,5904,215,158,158,157,153,157,607,4497,198,157,153,156,155,157,473,4415,207,188,163,162,160,158,511,2685,187,170,163,165,165,167,196,298,22446,24369,10539,13671,366,209,283,512,20351,14191,25661,25121,570,419,1205,5918,24241,31348,20337,28464,32450,26509,531,1059,7007,6676,4077,6505,8645,29703
641,5891,215,158,148,155,157,153,605,4487,200,158,156,156,158,142,472,4403,208,186,164,162,162,161,507,2678,186,174,164,165,162,167,196,301,22407,24271,10532,13622,366,207,282,511,20330,14166,25625,25046,565,419,1205,5903,24239,31312,20359,28443,32449,26499,531,1056,7011,6671,4075,6499,8641,29677
639,5880,214,156,157,157,158,156,606,4479,199,157,149,154,157,152,472,4394,203,191,162,162,158,160,511,2674,185,175,165,163,165,167,197,297,22397,24240,10525,13616,364,208,283,511,20311,14145,25608,25027,567,417,1204,5891,24235,31283,20357,28423,32442,26491,530,1055,7009,6668,4077,6495,8638,29667
643,5879,214,160,155,157,152,157,605,4475,199,161,154,157,155,153,474,4389,204,187,158,165,159,161,509,2673,185,175,165,164,165,169,197,297,22410,24271,10531,13634,368,207,283,509,20301,14141,25613,25034,563,419,1202,5892,24225,31270,20347,28413,32435,26486,531,1056,7006,6665,4077,6496,8635,29658
641,5877,217,160,155,157,154,156,605,4477,197,161,146,155,157,155,471,4386,204,188,166,164,165,160,511,2673,187,171,167,164,163,166,199,297,22426,24291,10532,13644,366,207,286,510,20287,14133,25614,25037,565,419,1207,5895,24231,31266,20342,28402,32433,26484,532,1054,7010,6663,4076,6493,8634,29662
640,5878,215,157,155,154,153,156,604,4474,199,156,164,155,156,157,477,4384,204,187,164,161,161,162,508,2670,186,180,165,162,166,168,197,296,22438,24323,10529,13661,367,208,281,509,20275,14129,25613,25053,563,420,1203,5901,24225,31267,20323,28393,32430,26486,531,1056,7004,6666,4073,6493,8631,29664
643,5880,217,158,159,158,153,157,603,4478,198,161,159,156,155,158,469,4384,205,188,163,161,163,159,509,2670,186,172,164,164,163,170,201,297,22455,24364,10530,13678,365,208,286,510,20272,14132,25631,25079,562,419,1202,5903,24227,31273,20303,28377,32427,26481,533,1056,7005,6661,4073,6495,8632,29672
639,5883,219,154,155,157,156,154,603,4477,200,155,157,160,157,151,469,4386,208,188,163,165,162,158,507,2671,187,170,165,164,163,169,196,298,22471,24411,10532,13703,366,211,283,511,20264,14131,25652,25109,566,419,1200,5911,24229,31281,20286,28377,32425,26486,529,1058,7004,6664,4074,6495,8635,29684
641,5889,215,154,155,154,156,152,603,4480,198,162,155,157,173,154,474,4387,206,185,163,161,159,162,510,2673,186,170,164,168,164,169,196,301,22491,24454,10525,13722,366,208,282,512,20258,14138,25669,25138,566,419,1201,5923,24236,31302,20263,28373,32423,26487,537,1060,7003,6658,4073,6498,8636,29689
645,5894,214,167,154,153,152,153,607,4483,199,159,152,158,158,155,473,4391,204,186,162,166,164,163,507,2675,186,175,164,164,163,167,197,299,22501,24486,10529,13748,367,208,283,516,20245,14141,25689,25175,566,421,1200,5935,24236,31317,20243,28370,32428,26496,530,1063,6999,6654,4078,6499,8637,29704
643,5905,216,156,155,155,155,154,604,4484,200,159,157,155,152,155,470,4398,203,189,161,166,162,165,505,2678,186,175,163,164,163,170,199,299,22515,24521,10528,13773,370,208,286,517,20235,14138,25717,25215,566,421,1203,5943,24245,31337,20233,28375,32429,26507,533,1066,7002,6658,4079,6505,8640,29725
644,5909,215,158,156,155,154,153,603,4490,200,156,155,153,157,156,471,4402,205,185,164,161,160,161,509,2679,186,174,163,164,165,167,198,296,22519,24559,10529,13799,368,209,283,519,20223,14134,25738,25253,566,422,1202,5957,24246,31351,20208,28378,32434,26506,531,1064,7003,6657,4081,6508,8642,29742
643,5910,214,157,156,155,153,155,606,4497,199,158,156,157,155,155,471,4407,203,190,161,157,160,160,509,2680,180,174,159,164,163,172,197,299,22533,24542,10546,13770,367,206,282,517,20191,14107,25759,25213,565,421,1203,5955,24271,31360,20231,28386,32434,26490,532,1066,7007,6659,4082,6507,8646,29735
642,5893,217,155,155,155,155,154,603,4490,202,155,154,153,153,155,472,4397,203,187,163,166,161,159,511,2679,189,172,162,164,163,171,198,298,22489,24421,10525,13677,366,211,282,515,20164,14074,25703,25115,564,419,1201,5935,24273,31321,20260,28368,32433,26477,533,1062,7015,6653,4081,6496,8647,29710
640,5877,218,156,156,157,152,154,605,4478,199,159,155,155,151,157,475,4389,202,192,165,162,161,164,510,2673,185,175,164,165,161,172,197,297,22458,24322,10515,13623,365,207,282,514,20147,14051,25668,25038,563,419,1201,5917,24274,31284,20275,28343,32431,26464,532,1059,7011,6645,4081,6491,8643,29681
642,5870,214,162,153,153,156,156,604,4471,203,161,163,153,155,159,472,4379,206,186,164,161,161,162,511,2669,186,175,162,163,162,169,197,300,22437,24256,10516,13594,364,208,281,511,20119,14018,25637,24991,565,419,1196,5901,24274,31242,20288,28322,32419,26451,530,1055,7011,6639,4081,6483,8639,29657
644,5868,216,158,159,157,157,155,605,4467,198,159,154,155,154,159,472,4377,204,187,166,163,161,161,508,2666,186,172,164,164,167,172,198,299,22442,24266,10520,13619,364,207,281,506,20095,14002,25622,24989,562,418,1203,5899,24264,31226,20271,28301,32418,26441,529,1055,7007,6631,4078,6481,8634,29658
640,5870,218,166,156,158,154,154,602,4467,200,160,155,151,164,155,468,4373,204,186,164,165,163,153,509,2665,189,174,162,165,163,171,196,298,22460,24292,10526,13632,365,209,281,510,20078,13993,25624,24997,562,418,1198,5897,24263,31229,20265,28290,32412,26437,531,1055,7006,6631,4078,6481,8631,29650
641,5869,214,159,158,155,154,154,604,4466,199,159,155,156,156,158,472,4373,203,186,169,162,164,163,509,2667,187,172,163,164,163,169,197,297,22475,24318,10527,13650,366,207,281,509,20068,13986,25628,25010,562,417,1202,5900,24268,31227,20251,28280,32413,26440,530,1056,7001,6629,4077,6483,8630,29652
643,5873,215,158,155,157,153,154,605,4468,200,160,158,162,159,155,472,4375,206,185,164,160,163,164,509,2665,187,175,163,169,164,172,201,297,22493,24361,10531,13677,365,211,281,511,20063,13993,25645,25041,562,419,1196,5906,24266,31241,20232,28273,32408,26440,532,1056,7000,6630,4077,6482,8631,29663
642,5881,215,158,158,154,154,157,605,4471,198,159,155,156,156,155,466,4378,202,186,164,166,165,165,507,2668,186,171,163,166,163,167,196,300,22509,24406,10528,13701,367,208,279,517,20071,14004,25665,25078,564,419,1198,5915,24270,31253,20215,28273,32408,26443,531,1055,6999,6633,4079,6487,8633,29673
643,5885,215,159,157,154,154,152,603,4473,199,158,157,155,160,157,470,4384,204,186,163,163,164,157,508,2667,186,173,163,164,163,167,197,298,22524,24447,10532,13736,366,207,283,514,20074,14013,25687,25121,568,419,1197,5923,24277,31276,20199,28272,32410,26455,529,1060,7001,6631,4079,6488,8633,29687
643,5891,214,157,155,157,154,154,605,4477,198,158,157,156,156,158,471,4389,204,187,162,162,165,169,508,2670,187,172,166,163,163,171,198,298,22540,24491,10533,13759,367,207,282,516,20075,14025,25721,25158,564,421,1199,5935,24287,31295,20182,28274,32417,26464,533,1061,7001,6634,4083,6492,8636,29703
643,5902,217,166,153,158,154,153,603,4481,197,163,153,159,155,155,471,4394,203,187,163,164,158,158,509,2675,186,171,165,164,165,168,199,299,22548,24532,10535,13787,370,208,281,516,20084,14039,25749,25210,566,421,1204,5947,24292,31318,20166,28286,32426,26471,532,1066,6999,6635,4086,6496,8642,29720
643,5909,215,157,155,154,158,154,610,4483,200,158,160,160,159,159,472,4399,204,191,166,162,159,158,507,2679,186,175,165,165,166,171,198,300,22561,24571,10538,13817,367,207,281,518,20095,14050,25783,25259,566,423,1200,5959,24304,31349,20150,28293,32435,26483,534,1066,6999,6641,4086,6500,8643,29741
643,5920,215,158,159,157,153,153,605,4494,203,159,160,156,159,155,473,4405,203,186,165,164,165,158,508,2681,190,173,167,168,163,169,196,301,22569,24617,10538,13840,369,207,285,519,20113,14077,25816,25307,569,423,1198,5973,24313,31379,20149,28314,32447,26496,530,1067,7005,6643,4089,6508,8649,29764
647,5927,215,159,155,158,155,154,607,4498,199,160,157,155,155,155,472,4414,205,189,167,161,161,158,503,2686,188,173,167,164,163,168,197,302,22583,24659,10540,13871,368,211,281,517,20145,14101,25853,25358,567,422,1201,5984,24334,31411,20141,28330,32459,26511,531,1070,7009,6646,4091,6513,8656,29782
645,5929,216,160,156,155,154,153,606,4501,202,155,156,155,156,155,473,4417,206,186,164,166,169,157,511,2689,189,172,164,165,163,167,199,302,22601,24662,10561,13847,368,208,283,519,20148,14094,25875,25324,567,423,1198,5987,24363,31428,20170,28344,32467,26495,532,1071,7017,6655,4092,6515,8660,29771
643,5911,215,159,156,157,153,154,609,4496,200,155,157,153,156,155,473,4410,206,187,162,162,161,166,509,2686,189,172,163,164,163,169,196,301,22567,24537,10533,13741,369,208,282,517,20141,14076,25818,25214,566,422,1201,5964,24374,31401,20213,28338,32469,26485,531,1064,7025,6651,4093,6505,8658,29748
643,5895,215,159,156,155,156,155,607,4488,199,160,154,156,156,161,473,4405,205,190,163,159,161,167,514,2680,193,172,165,165,161,169,196,303,22523,24428,10521,13675,365,206,282,515,20134,14050,25767,25135,567,424,1196,5944,24375,31369,20227,28313,32469,26469,533,1061,7023,6642,4095,6499,8655,29719
643,5883,214,160,155,155,155,153,608,4480,202,155,157,159,159,158,471,4398,204,187,167,161,162,163,511,2676,187,171,168,163,167,171,198,301,22495,24353,10523,13646,366,207,283,514,20119,14027,25741,25086,565,420,1199,5931,24373,31338,20248,28301,32467,26462,531,1058,7022,6634,4093,6489,8648,29693
644,5882,217,149,155,154,151,155,607,4476,198,156,157,153,156,159,475,4395,203,188,161,164,160,164,511,2675,188,171,164,165,163,169,200,299,22487,24343,10533,13666,367,207,282,513,20119,14017,25724,25079,565,420,1198,5926,24371,31327,20237,28287,32460,26453,532,1058,7015,6630,4088,6493,8643,29682
645,5882,215,157,157,155,155,157,606,4475,199,163,159,157,156,155,473,4396,207,187,164,162,162,159,510,2673,188,170,164,163,163,167,199,298,22502,24367,10541,13685,366,209,281,515,20113,14013,25722,25084,565,420,1200,5927,24367,31329,20235,28281,32459,26452,531,1060,7014,6627,4089,6491,8640,29677
643,5887,215,158,156,157,154,157,607,4473,202,157,157,159,155,156,474,4395,205,186,159,167,157,160,508,2673,188,171,164,164,164,167,197,299,22511,24392,10548,13706,369,207,283,515,20119,14020,25731,25098,564,419,1198,5928,24369,31336,20226,28277,32456,26455,527,1057,7014,6628,4090,6488,8639,29671
643,5890,217,158,155,154,153,157,607,4472,199,158,160,159,152,156,471,4397,205,190,160,162,160,159,508,2673,186,175,162,165,162,167,196,299,22524,24432,10547,13735,367,209,285,517,20127,14027,25739,25123,563,420,1197,5933,24373,31350,20210,28274,32456,26457,531,1062,7013,6627,4091,6489,8639,29680
645,5900,215,156,157,156,157,157,607,4477,200,159,158,156,156,156,473,4403,203,188,169,161,158,159,510,2675,187,171,168,167,163,167,197,300,22539,24473,10554,13760,367,207,283,517,20143,14046,25761,25161,565,423,1196,5941,24372,31366,20199,28274,32457,26465,530,1060,7011,6629,4091,6495,8638,29691
645,5906,215,156,154,154,157,153,611,4481,202,158,157,160,159,159,473,4405,204,189,167,158,159,163,510,2678,181,172,169,163,167,172,196,304,22558,24518,10554,13797,367,207,282,516,20160,14059,25781,25202,566,422,1198,5957,24379,31385,20187,28280,32464,26476,530,1061,7011,6631,4095,6497,8641,29710
643,5914,214,159,154,157,154,153,606,4485,199,158,153,156,159,157,474,4411,206,188,152,159,166,165,507,2681,187,174,164,167,164,168,197,301,22573,24564,10557,13817,368,208,283,520,20180,14077,25807,25240,567,421,1198,5962,24382,31407,20171,28290,32469,26489,531,1063,7015,6633,4095,6504,8646,29719
646,5918,214,157,156,154,153,154,609,4490,201,158,157,156,151,156,473,4417,204,189,165,165,161,164,506,2685,186,173,165,168,161,169,199,302,22582,24605,10553,13847,368,209,282,519,20200,14099,25839,25287,567,424,1201,5976,24391,31429,20158,28299,32483,26495,532,1066,7015,6637,4097,6508,8647,29739
648,5932,215,158,155,157,153,153,609,4495,201,162,157,158,159,155,473,4424,209,187,161,160,165,162,511,2687,192,173,164,167,163,169,199,303,22590,24644,10559,13877,369,209,283,520,20211,14111,25867,25334,569,423,1200,5989,24397,31455,20142,28310,32490,26503,533,1066,7017,6641,4095,6510,8651,29759
645,5943,217,157,159,155,154,152,607,4499,198,160,153,157,156,153,477,4433,207,188,163,159,166,161,510,2693,187,173,164,163,163,169,198,303,22598,24683,10564,13912,371,210,281,523,20225,14128,25897,25385,571,423,1200,6002,24406,31485,20124,28318,32500,26520,533,1070,7015,6640,4099,6519,8652,29781
647,5957,215,153,156,153,154,152,610,4505,200,159,156,153,156,156,475,4442,207,188,164,162,162,161,508,2696,186,170,164,164,167,169,198,307,22597,24719,10568,13940,371,209,283,524,20254,14150,25927,25435,570,424,1202,6019,24418,31511,20122,28337,32511,26533,530,1070,7019,6648,4102,6525,8660,29801
649,5964,215,156,154,157,154,154,609,4512,199,158,156,154,155,155,478,4449,205,192,167,158,162,162,510,2699,186,175,167,164,164,168,198,304,22607,24757,10573,13977,374,213,282,526,20285,14174,25961,25483,570,426,1205,6032,24432,31551,20113,28358,32519,26551,535,1075,7017,6649,4108,6531,8661,29822
649,5974,215,157,155,153,155,153,610,4516,199,154,156,152,153,154,479,4457,206,188,164,161,163,161,509,2707,186,172,162,164,163,169,198,306,22623,24792,10586,13981,371,210,283,529,20298,14184,25987,25489,570,423,1202,6043,24458,31585,20135,28386,32534,26542,529,1074,7024,6660,4109,6534,8672,29825
650,5951,219,157,155,154,154,157,609,4518,194,162,159,159,155,157,476,4450,204,189,164,161,165,158,511,2704,187,172,163,165,164,169,199,305,22616,24691,10569,13863,371,209,284,522,20283,14162,25936,25366,569,422,1205,6019,24478,31565,20191,28396,32545,26539,534,1069,7039,6657,4107,6527,8670,29799
648,5937,216,164,154,155,153,156,610,4508,200,161,152,154,154,157,476,4446,207,187,163,161,162,162,512,2697,187,175,162,166,162,167,196,307,22572,24581,10547,13788,368,210,285,524,20288,14151,25884,25280,567,423,1201,6004,24489,31546,20222,28390,32544,26532,530,1066,7047,6655,4109,6527,8666,29773
648,5925,215,157,154,155,154,155,607,4502,200,158,157,156,156,151,476,4439,205,194,168,161,164,160,512,2695,185,175,167,163,165,166,200,302,22551,24499,10545,13748,369,208,285,519,20301,14140,25848,25230,567,421,1202,5988,24494,31533,20255,28395,32556,26535,534,1062,7050,6655,4109,6519,8663,29747
646,5917,218,158,155,158,155,154,611,4498,201,159,157,158,153,153,477,4433,205,187,165,163,159,160,515,2690,187,171,164,167,163,169,198,301,22531,24479,10543,13748,369,211,283,521,20308,14146,25832,25217,568,421,1202,5979,24494,31524,20260,28387,32552,26530,531,1061,7051,6654,4105,6514,8657,29736
646,5919,216,161,158,152,156,154,609,4495,198,155,155,155,159,156,477,4435,207,188,164,167,163,162,513,2690,187,172,165,168,167,171,199,299,22543,24502,10554,13776,367,209,284,520,20321,14147,25825,25217,566,422,1201,5981,24491,31527,20261,28396,32559,26535,530,1062,7054,6653,4107,6517,8655,29732
647,5922,217,163,156,157,155,154,611,4495,203,159,157,160,154,156,477,4436,204,187,164,166,158,162,514,2690,191,172,166,164,165,168,199,303,22545,24516,10567,13794,371,208,282,518,20303,14137,25826,25228,566,422,1200,5983,24495,31530,20261,28399,32556,26535,527,1062,7052,6654,4105,6515,8654,29731
646,5924,215,158,155,155,154,154,610,4494,200,160,160,157,155,156,476,4440,204,186,163,160,163,161,512,2691,190,171,164,164,165,168,197,303,22555,24541,10574,13824,371,212,282,519,20315,14145,25839,25250,567,422,1202,5990,24495,31547,20250,28398,32559,26540,531,1063,7051,6654,4104,6519,8653,29732
649,5931,219,152,155,155,153,154,611,4499,201,156,154,155,157,156,477,4440,205,189,162,161,163,161,510,2692,189,171,163,168,163,169,197,300,22563,24585,10576,13853,369,209,282,520,20329,14161,25856,25283,568,422,1201,5999,24500,31568,20239,28406,32556,26547,531,1064,7052,6658,4108,6520,8652,29744
650,5938,217,157,155,153,154,154,611,4499,193,162,160,156,153,153,476,4447,205,184,162,163,161,161,511,2696,187,173,163,168,167,169,198,303,22582,24629,10585,13882,369,211,282,523,20351,14181,25881,25329,568,422,1203,6005,24511,31589,20231,28411,32567,26556,532,1069,7057,6658,4109,6526,8655,29758
648,5947,216,159,155,154,156,154,611,4502,200,158,155,158,156,159,479,4452,207,187,163,165,161,165,510,2699,185,170,163,164,165,169,195,305,22591,24667,10582,13909,371,208,283,523,20371,14194,25904,25371,569,424,1202,6018,24520,31621,20222,28418,32571,26568,531,1067,7053,6662,4111,6531,8659,29769
647,5953,214,157,159,155,153,154,610,4505,201,158,155,157,155,156,477,4459,203,188,163,160,163,165,510,2701,186,171,163,166,159,168,198,304,22606,24709,10580,13933,369,211,282,523,20387,14211,25929,25412,571,426,1205,6025,24529,31643,20208,28430,32580,26583,531,1069,7056,6663,4110,6535,8658,29786
650,5961,215,158,158,155,156,157,610,4507,203,160,159,155,156,157,478,4463,207,186,161,165,161,162,510,2704,188,176,167,164,163,169,198,308,22613,24751,10575,13955,370,210,282,526,20411,14235,25953,25451,572,426,1203,6038,24535,31674,20201,28449,32590,26594,532,1068,7062,6668,4117,6539,8662,29798
650,5965,222,162,157,155,153,153,609,4511,199,155,157,155,156,155,478,4469,207,189,155,163,164,165,511,2708,183,170,165,165,157,169,202,306,22637,24795,10570,13973,372,211,285,529,20442,14263,25969,25485,575,429,1204,6049,24547,31702,20198,28465,32597,26600,533,1072,7060,6670,4113,6543,8663,29815
649,5971,217,159,157,155,155,153,610,4516,200,158,156,155,154,154,477,4475,204,190,165,164,163,163,512,2712,187,172,165,164,163,169,201,312,22639,24826,10565,13997,374,212,287,533,20445,14267,25983,25518,573,430,1203,6063,24547,31709,20182,28471,32601,26607,531,1074,7059,6669,4115,6545,8665,29828
650,5967,216,157,155,153,155,157,611,4523,198,163,156,157,155,159,478,4477,206,189,178,166,162,162,513,2715,190,171,167,164,163,170,199,309,22647,24808,10582,13967,375,212,287,531,20428,14253,25993,25468,573,427,1206,6061,24571,31726,20213,28487,32607,26592,534,1072,7069,6672,4117,6545,8666,29807
647,5951,215,157,155,153,155,156,610,4511,198,158,157,153,153,156,479,4470,205,191,168,163,162,168,518,2713,187,173,165,164,164,167,199,307,22605,24701,10555,13873,371,210,289,529,20426,14232,25921,25361,573,426,1204,6042,24574,31695,20249,28481,32612,26588,531,1069,7071,6669,4114,6537,8664,29791
647,5939,215,157,156,155,157,157,611,4502,202,143,156,159,158,157,479,4467,204,189,165,162,159,160,516,2706,187,174,166,164,159,169,199,306,22573,24611,10552,13826,371,210,286,526,20433,14221,25888,25309,570,425,1204,6024,24575,31681,20276,28484,32615,26587,530,1069,7075,6668,4115,6535,8665,29769
647,5930,216,158,158,158,153,155,610,4495,200,161,160,160,159,159,478,4461,208,189,167,165,166,161,512,2705,188,175,165,164,163,169,199,306,22554,24563,10550,13809,369,209,286,525,20447,14222,25861,25265,570,427,1204,6015,24583,31666,20304,28481,32618,26591,530,1062,7082,6667,4114,6529,8656,29748
647,5934,214,160,155,158,157,153,611,4497,198,155,160,153,158,156,477,4463,203,187,164,161,160,162,512,2699,187,172,165,167,162,170,203,302,22562,24578,10563,13833,369,209,283,522,20462,14221,25853,25267,569,425,1203,6012,24576,31670,20303,28491,32624,26595,531,1064,7080,6667,4115,6531,8661,29750
649,5934,217,158,158,155,153,157,609,4494,198,158,159,156,158,158,476,4459,204,187,162,162,173,162,513,2700,186,171,167,165,163,169,198,303,22582,24605,10573,13855,370,209,283,518,20475,14234,25849,25278,569,423,1202,6014,24583,31676,20320,28502,32627,26596,531,1064,7081,6671,4116,6533,8656,29746
652,5933,213,158,154,158,158,157,610,4492,199,161,156,153,160,159,478,4461,204,187,164,161,161,163,511,2703,175,176,167,170,167,169,197,302,22597,24628,10581,13878,369,209,283,522,20488,14238,25848,25291,567,422,1202,6012,24589,31690,20317,28507,32625,26604,531,1064,7082,6670,4118,6533,8657,29751
647,5942,216,159,155,158,154,156,608,4493,199,163,155,159,156,155,477,4469,205,190,163,159,161,163,512,2702,187,174,162,165,165,167,198,304,22611,24661,10591,13912,372,210,283,524,20489,14245,25858,25317,567,424,1203,6020,24589,31704,20305,28510,32629,26609,531,1063,7081,6668,4118,6537,8655,29758
648,5950,215,161,156,158,155,154,611,4497,200,155,159,157,156,155,479,4470,205,188,161,162,164,162,512,2703,186,173,163,160,163,168,197,303,22626,24710,10591,13935,370,210,280,525,20526,14271,25882,25360,569,427,1204,6029,24596,31719,20299,28524,32641,26620,530,1065,7085,6677,4119,6540,8656,29772
650,5953,221,156,155,154,152,155,612,4502,199,161,157,155,158,160,479,4472,204,191,166,161,171,173,511,2708,185,173,165,166,163,169,199,305,22655,24764,10584,13948,371,209,283,524,20583,14323,25909,25407,572,427,1203,6037,24607,31748,20292,28531,32649,26630,531,1068,7093,6683,4117,6548,8659,29781
650,5959,219,158,159,155,156,156,611,4509,199,150,153,158,159,159,477,4475,205,187,165,159,164,159,512,2710,186,174,166,177,165,172,199,305,22667,24801,10581,13979,373,210,286,525,20616,14344,25930,25451,573,427,1203,6045,24606,31767,20282,28544,32653,26641,532,1069,7097,6690,4122,6555,8662,29799
650,5969,215,162,155,155,152,152,611,4508,199,162,156,157,158,156,479,4483,205,187,163,161,159,161,515,2710,187,174,165,164,165,169,200,307,22662,24829,10591,14006,371,210,286,530,20601,14339,25948,25487,575,427,1203,6058,24611,31784,20267,28547,32661,26653,533,1070,7092,6684,4121,6552,8661,29815
649,5984,216,157,156,156,155,157,609,4512,200,158,161,157,153,157,478,4488,205,189,161,160,161,159,511,2715,187,174,165,155,163,165,200,310,22663,24867,10591,14033,371,211,288,529,20605,14347,25980,25535,572,427,1207,6072,24618,31809,20265,28565,32675,26667,534,1073,7094,6691,4125,6563,8669,29833
651,5993,217,156,156,154,157,152,607,4521,199,158,157,155,156,157,479,4495,205,188,167,153,167,164,511,2715,186,172,164,163,163,169,199,307,22677,24907,10588,14059,373,210,286,529,20647,14385,26011,25583,575,428,1203,6077,24631,31842,20265,28577,32682,26677,533,1077,7100,6698,4127,6567,8672,29855
649,5998,217,157,156,157,154,156,611,4524,195,162,157,153,156,159,479,4502,205,189,167,162,164,158,511,2719,188,172,165,172,163,165,201,307,22694,24955,10591,14078,374,211,285,531,20693,14419,26045,25625,574,427,1208,6090,24639,31869,20270,28606,32694,26679,534,1076,7108,6705,4131,6571,8682,29879
651,5978,215,156,155,153,153,156,611,4527,199,162,157,153,158,156,479,4495,205,189,161,168,160,159,513,2721,187,173,164,164,164,169,196,305,22710,24905,10598,14003,371,210,286,530,20685,14409,26029,25527,574,426,1204,6071,24669,31866,20323,28622,32701,26671,532,1074,7121,6710,4131,6569,8681,29850
650,5963,215,159,155,155,154,154,613,4518,200,155,157,155,156,153,480,4488,201,189,166,166,159,161,513,2715,186,172,170,167,164,166,198,305,22670,24789,10575,13919,371,209,283,527,20685,14381,25961,25426,570,425,1203,6050,24671,31835,20360,28620,32701,26665,533,1070,7125,6706,4132,6559,8676,29823
649,5952,214,161,155,154,156,154,612,4511,199,162,157,157,155,155,480,4484,206,190,155,163,161,159,513,2711,186,172,166,165,166,171,197,304,22626,24686,10575,13871,371,214,286,523,20657,14349,25912,25351,569,424,1205,6033,24673,31801,20393,28621,32707,26659,531,1067,7125,6701,4126,6552,8673,29797
647,5948,215,160,154,156,155,154,611,4505,203,157,156,157,155,155,481,4478,204,189,167,162,162,161,513,2701,187,172,162,164,163,172,199,305,22605,24632,10579,13856,372,211,286,521,20645,14327,25880,25307,569,422,1204,6017,24665,31773,20426,28623,32702,26658,533,1062,7122,6695,4130,6543,8663,29775
651,5944,219,157,155,152,154,157,612,4500,203,157,157,153,155,158,480,4476,205,187,168,163,163,162,512,2703,190,175,164,165,167,168,197,303,22606,24644,10590,13877,372,209,282,521,20644,14330,25869,25313,568,424,1203,6013,24657,31766,20425,28622,32701,26653,531,1062,7126,6695,4127,6548,8667,29774
649,5947,216,158,155,155,155,155,611,4498,199,158,160,155,156,156,483,4478,206,189,163,162,162,166,515,2702,187,175,167,165,162,170,196,305,22623,24660,10592,13890,372,208,283,521,20651,14330,25865,25310,568,425,1203,6012,24663,31763,20429,28627,32697,26658,533,1063,7125,6697,4123,6548,8659,29772
651,5947,217,157,157,154,156,155,611,4497,199,159,159,153,158,158,481,4478,206,195,161,162,162,161,513,2703,186,171,167,161,159,167,199,303,22632,24682,10596,13910,369,209,283,523,20649,14332,25862,25321,570,423,1203,6009,24656,31763,20425,28622,32695,26659,531,1062,7120,6694,4129,6549,8661,29769
649,5954,215,157,159,155,155,152,612,4497,197,157,157,156,155,152,478,4481,204,190,163,164,161,161,511,2703,186,172,171,166,164,172,192,302,22641,24710,10600,13933,370,208,283,524,20649,14333,25867,25346,568,423,1203,6014,24657,31777,20417,28627,32701,26663,532,1066,7121,6696,4125,6553,8659,29776
650,5964,217,158,158,153,153,157,610,4501,199,163,160,153,158,156,479,4485,204,187,163,163,162,160,514,2703,187,170,167,164,163,176,197,304,22643,24750,10605,13958,371,208,282,523,20647,14333,25884,25376,570,425,1203,6020,24655,31781,20409,28623,32703,26670,530,1064,7117,6696,4125,6556,8658,29785
651,5972,215,157,158,155,153,154,611,4503,199,160,153,156,154,159,483,4489,205,187,163,161,160,162,512,2706,185,171,167,165,162,172,197,303,22655,24788,10600,13979,370,209,283,524,20655,14349,25902,25410,573,427,1202,6028,24656,31796,20392,28619,32703,26676,534,1068,7118,6701,4127,6557,8662,29793
652,5977,219,160,155,157,155,151,613,4509,203,160,156,159,155,156,481,4491,205,190,163,160,158,163,511,2708,190,172,162,163,163,173,200,303,22661,24821,10599,14001,375,209,283,525,20658,14355,25918,25447,569,424,1204,6038,24656,31809,20383,28620,32698,26684,531,1069,7119,6702,4128,6559,8664,29811
651,5983,212,160,155,153,155,156,612,4508,200,157,156,156,159,159,477,4499,203,186,168,165,162,158,511,2711,185,171,167,167,167,169,199,305,22674,24860,10594,14021,371,210,285,529,20668,14369,25942,25482,572,425,1207,6043,24659,31828,20370,28627,32708,26691,533,1070,7119,6703,4132,6564,8669,29833
652,5991,216,158,157,155,153,154,612,4517,194,159,160,155,159,158,480,4501,205,187,165,162,165,165,514,2717,187,177,164,156,159,169,200,305,22680,24897,10593,14041,371,209,284,525,20681,14381,25964,25521,574,427,1205,6053,24661,31849,20356,28629,32711,26699,534,1072,7120,6709,4133,6569,8670,29839
655,6000,215,157,155,155,155,155,614,4517,203,158,161,155,159,156,479,4507,204,191,163,163,163,160,513,2717,186,176,164,165,167,166,197,304,22687,24921,10595,14067,373,210,283,528,20689,14390,25987,25557,574,427,1207,6063,24670,31865,20347,28635,32717,26711,532,1075,7122,6710,4131,6575,8671,29861
652,6011,217,158,154,157,155,155,611,4521,200,158,152,161,156,153,480,4516,205,189,163,165,162,158,512,2722,187,173,166,159,160,169,199,305,22685,24960,10603,14100,374,210,283,527,20688,14398,26007,25597,572,427,1209,6076,24666,31886,20345,28660,32726,26713,530,1075,7117,6709,4135,6577,8679,29881
653,5998,216,158,156,154,154,157,611,4522,202,158,157,156,153,159,477,4516,205,189,161,164,161,158,513,2724,187,172,163,165,165,169,199,307,22697,24905,10618,14037,371,209,285,526,20676,14375,25997,25505,570,424,1208,6060,24694,31878,20403,28673,32725,26703,535,1071,7133,6713,4137,6572,8681,29854
653,5979,217,158,158,155,157,154,614,4518,199,159,160,155,156,152,481,4506,203,187,163,162,162,157,518,2719,194,173,167,165,159,169,200,303,22647,24781,10595,13950,370,210,284,524,20667,14352,25929,25398,569,424,1204,6038,24696,31847,20437,28668,32724,26693,533,1069,7135,6713,4133,6563,8675,29827
651,5970,217,157,155,155,157,156,612,4505,199,159,160,157,159,156,481,4501,205,190,162,164,160,161,513,2714,190,174,165,166,163,166,200,305,22610,24675,10595,13900,369,209,283,519,20651,14324,25887,25322,567,423,1209,6018,24701,31820,20473,28675,32725,26682,531,1063,7139,6707,4129,6560,8671,29799
651,5963,216,157,158,155,154,153,610,4501,203,158,159,154,158,158,477,4494,206,188,166,162,164,165,516,2709,187,175,165,164,164,168,198,305,22583,24605,10599,13878,369,209,283,520,20637,14306,25864,25295,569,424,1205,5995,24693,31785,20504,28669,32723,26686,531,1061,7135,6700,4130,6556,8665,29776
650,5963,216,157,155,159,155,153,612,4498,199,159,160,152,156,155,480,4494,205,189,163,162,160,160,515,2706,186,174,164,164,158,168,197,301,22583,24610,10600,13897,371,210,283,522,20631,14291,25879,25309,567,423,1205,5994,24682,31769,20501,28667,32718,26678,530,1062,7131,6702,4129,6555,8663,29769
651,5963,218,157,156,157,155,154,613,4500,193,155,159,159,160,154,480,4492,204,188,168,160,163,160,514,2705,187,171,165,168,163,168,197,301,22583,24619,10607,13907,370,208,284,520,20630,14297,25903,25330,569,424,1206,5991,24677,31770,20506,28665,32710,26675,531,1062,7135,6706,4132,6556,8663,29767
652,5966,216,157,159,153,155,153,611,4502,199,159,154,156,155,156,481,4495,206,191,164,166,161,164,514,2701,187,175,165,169,167,169,197,302,22584,24633,10607,13922,369,209,283,519,20649,14309,25948,25379,569,424,1207,5991,24687,31772,20500,28657,32706,26678,535,1059,7147,6709,4134,6560,8662,29775
652,5971,215,157,159,155,157,153,612,4501,199,157,160,153,156,152,481,4496,204,188,165,160,163,159,514,2703,186,170,165,167,162,169,197,301,22584,24657,10606,13938,370,211,281,520,20669,14322,25979,25421,571,424,1205,5993,24678,31783,20488,28647,32703,26680,530,1062,7145,6712,4134,6564,8662,29779
651,5976,215,158,156,157,153,153,612,4502,200,162,156,153,156,153,481,4501,204,188,167,162,160,161,513,2702,185,172,165,165,171,169,199,302,22599,24690,10601,13960,371,209,285,520,20684,14333,25997,25451,570,423,1207,5996,24681,31793,20474,28641,32703,26682,533,1063,7147,6714,4137,6563,8661,29785
651,5982,215,157,156,158,153,155,612,4506,202,158,156,159,155,153,480,4503,208,190,164,163,158,157,513,2703,187,169,162,166,164,170,198,303,22607,24725,10599,13977,371,211,287,523,20688,14342,26017,25487,572,425,1209,6003,24682,31809,20458,28637,32701,26686,531,1064,7146,6713,4135,6565,8661,29793
652,5991,219,160,156,158,155,154,612,4510,202,156,157,153,155,156,481,4505,204,187,162,162,161,160,513,2705,186,172,162,166,166,169,199,303,22617,24760,10598,13996,373,210,286,523,20694,14353,26039,25516,572,424,1209,6013,24685,31817,20449,28634,32700,26691,534,1062,7143,6713,4137,6567,8663,29804
652,5997,216,160,156,155,157,161,611,4513,199,162,157,155,155,159,481,4511,205,191,163,162,160,161,515,2704,186,176,163,165,162,168,197,304,22625,24796,10596,14015,371,209,284,525,20687,14358,26068,25559,573,428,1208,6017,24686,31836,20441,28642,32702,26701,530,1067,7143,6714,4138,6571,8665,29817
653,6005,219,157,158,157,157,154,612,4518,198,158,153,153,158,156,480,4514,204,190,163,163,159,164,512,2707,187,171,163,162,162,171,198,304,22646,24833,10593,14031,371,211,285,525,20707,14375,26106,25609,572,428,1210,6028,24691,31859,20439,28648,32710,26711,532,1067,7146,6721,4139,6575,8669,29839
654,6013,218,158,158,154,153,156,614,4520,197,158,160,155,156,157,483,4521,205,189,164,161,161,162,511,2708,187,172,167,163,163,167,201,304,22645,24859,10597,14055,372,209,284,527,20709,14381,26129,25650,575,427,1210,6035,24687,31862,20423,28651,32717,26715,535,1064,7150,6725,4142,6580,8671,29851
652,6006,215,160,155,157,155,156,614,4522,201,157,157,156,156,160,483,4520,205,189,164,163,162,161,513,2708,187,172,165,163,164,172,199,304,22659,24833,10606,14013,372,208,285,527,20695,14364,26139,25587,572,426,1211,6028,24711,31866,20457,28667,32716,26705,533,1068,7153,6723,4143,6576,8675,29837
652,5991,217,160,155,154,153,157,612,4517,203,163,156,156,157,156,480,4514,204,187,163,164,164,161,513,2705,190,173,163,164,163,167,198,302,22609,24713,10583,13925,371,208,283,523,20676,14339,26064,25488,571,428,1209,6006,24709,31836,20487,28655,32715,26693,534,1064,7159,6719,4137,6567,8670,29807
652,5977,210,157,155,153,155,153,614,4508,198,159,161,156,159,157,484,4509,204,191,162,166,164,163,513,2697,187,175,165,169,167,172,197,302,22578,24623,10569,13870,370,208,283,522,20663,14319,26028,25415,571,426,1208,5988,24705,31796,20515,28654,32714,26688,532,1061,7155,6712,4134,6561,8671,29790
653,5967,218,161,155,154,157,156,613,4503,210,162,156,155,157,156,484,4503,204,190,164,162,161,161,512,2693,202,172,164,164,162,166,194,300,22561,24575,10564,13844,370,209,282,519,20659,14312,25993,25375,570,424,1210,5974,24704,31776,20535,28647,32703,26683,530,1058,7156,6711,4134,6555,8663,29764
652,5970,216,157,155,156,155,157,613,4499,200,159,156,156,155,157,483,4501,204,187,163,162,160,157,513,2690,185,171,160,164,162,169,197,300,22564,24594,10566,13866,368,209,282,521,20651,14297,25986,25376,569,423,1210,5967,24697,31767,20529,28645,32698,26679,532,1059,7149,6709,4134,6554,8660,29761
651,5973,215,158,155,156,157,159,611,4499,200,158,155,156,156,159,481,4503,205,187,161,159,161,165,513,2687,187,171,167,166,163,168,198,303,22572,24602,10569,13873,369,208,283,519,20634,14287,25983,25367,569,423,1209,5964,24697,31768,20544,28651,32695,26682,532,1057,7149,6708,4134,6553,8657,29748
652,5974,216,157,156,155,157,154,611,4497,200,161,157,156,154,156,483,4503,205,188,166,166,159,160,513,2689,185,172,165,166,163,166,197,300,22578,24622,10567,13889,368,212,282,519,20628,14283,25972,25371,568,422,1209,5966,24691,31764,20537,28644,32690,26681,532,1059,7142,6704,4134,6553,8656,29752
651,5979,215,157,156,154,156,152,611,4503,198,165,158,155,157,158,480,4504,205,186,163,163,159,159,511,2685,186,175,163,163,163,167,198,300,22585,24654,10569,13908,370,208,283,519,20626,14294,25985,25401,569,423,1213,5973,24695,31777,20527,28647,32686,26687,530,1059,7143,6705,4131,6553,8656,29758
653,5982,216,154,156,154,154,153,612,4501,199,158,155,156,156,155,479,4509,204,187,163,163,162,162,511,2689,188,174,169,160,164,168,197,300,22605,24693,10567,13927,369,211,283,518,20643,14305,25999,25426,569,424,1215,5973,24701,31789,20518,28641,32692,26690,533,1058,7145,6705,4129,6554,8653,29763
652,5989,218,160,155,154,156,157,612,4503,205,160,157,156,158,157,480,4513,203,187,164,162,165,161,510,2690,192,175,164,165,163,168,199,301,22614,24731,10566,13948,369,208,283,520,20649,14315,26010,25449,570,424,1210,5986,24701,31802,20500,28637,32691,26699,532,1063,7141,6708,4130,6556,8649,29775
652,5996,219,158,153,157,153,155,611,4506,199,149,155,158,153,153,481,4518,204,189,163,162,161,160,511,2691,187,174,154,166,163,167,199,300,22625,24768,10562,13969,371,208,283,523,20651,14322,26029,25489,569,425,1213,5988,24706,31817,20489,28639,32691,26702,530,1062,7137,6706,4129,6557,8659,29784
652,6006,217,157,158,156,157,154,614,4507,199,159,158,157,157,155,480,4521,218,188,162,159,161,160,512,2695,187,172,167,170,164,171,198,302,22637,24801,10564,13978,371,213,285,521,20662,14339,26045,25521,572,425,1212,6000,24713,31831,20483,28643,32698,26712,532,1064,7136,6708,4131,6560,8660,29797
655,6013,216,160,153,157,154,152,612,4514,198,162,157,155,157,155,481,4527,203,189,167,162,165,160,511,2694,187,172,165,165,164,173,198,301,22649,24836,10557,14001,372,210,284,523,20675,14353,26073,25556,573,426,1214,6006,24717,31845,20468,28646,32701,26718,533,1063,7137,6710,4131,6562,8660,29814
653,6017,216,159,155,158,155,156,611,4513,201,158,156,159,159,155,480,4531,208,188,163,163,165,159,511,2697,187,171,165,165,165,175,197,303,22659,24837,10572,13987,371,211,286,523,20668,14345,26086,25533,574,424,1214,6009,24737,31866,20494,28665,32701,26711,531,1068,7139,6711,4133,6559,8663,29801
655,5996,216,157,152,155,158,153,612,4510,199,159,157,157,160,156,482,4521,204,189,162,159,159,161,511,2693,186,175,162,163,168,163,197,301,22627,24728,10555,13896,367,209,284,520,20654,14323,26032,25427,569,423,1214,5983,24751,31839,20543,28669,32706,26702,532,1062,7147,6709,4133,6557,8661,29781
652,5987,217,157,156,156,150,155,611,4503,199,156,156,157,151,159,480,4519,205,186,163,161,159,164,516,2689,185,175,163,156,169,169,198,299,22586,24621,10545,13836,368,208,283,519,20635,14297,25977,25336,569,423,1212,5964,24747,31812,20578,28669,32703,26696,532,1057,7147,6705,4128,6548,8657,29743
650,5978,219,156,157,157,157,154,611,4494,196,159,158,153,156,156,482,4515,205,188,163,160,158,165,513,2683,188,173,169,165,166,164,195,297,22559,24546,10546,13804,366,209,284,516,20625,14281,25943,25283,568,425,1214,5942,24750,31775,20611,28671,32704,26693,530,1054,7153,6705,4127,6540,8651,29717
651,5977,217,160,156,157,158,153,611,4490,199,159,156,158,160,152,481,4510,205,187,164,166,161,159,513,2680,185,175,162,159,167,165,197,299,22545,24541,10543,13808,369,208,284,514,20623,14276,25920,25275,568,422,1213,5934,24743,31762,20609,28664,32695,26693,529,1054,7148,6701,4126,6537,8645,29705
652,5980,219,155,157,158,155,156,614,4489,198,159,161,153,156,155,480,4510,203,187,163,162,161,160,512,2679,191,173,166,163,165,168,197,298,22553,24555,10549,13820,370,212,282,516,20622,14269,25917,25273,567,422,1214,5933,24743,31763,20609,28659,32687,26690,531,1054,7151,6702,4122,6537,8639,29698
651,5985,217,159,157,156,152,158,611,4488,199,168,156,158,155,155,481,4511,205,187,164,159,161,162,512,2678,187,175,164,165,162,171,196,301,22549,24577,10551,13832,370,209,285,515,20621,14272,25922,25284,568,423,1217,5931,24746,31765,20604,28654,32692,26693,529,1053,7147,6699,4123,6536,8642,29693
653,5991,214,159,155,155,155,154,611,4490,198,162,157,157,152,156,482,4513,205,187,164,163,161,164,513,2681,186,172,167,167,162,168,197,300,22558,24608,10550,13852,368,209,284,515,20625,14283,25935,25313,568,425,1214,5935,24749,31776,20598,28649,32689,26696,535,1054,7147,6705,4122,6537,8640,29701
652,5999,216,157,154,153,152,152,611,4491,199,159,156,153,153,158,482,4515,205,186,163,161,158,165,511,2680,187,174,162,162,162,168,197,298,22573,24647,10552,13870,370,208,283,514,20627,14289,25961,25348,569,423,1215,5941,24754,31787,20587,28644,32691,26705,529,1055,7145,6705,4126,6539,8637,29708
653,6007,216,158,157,154,157,153,611,4495,200,160,156,157,156,156,482,4520,204,186,163,158,162,159,513,2683,187,172,164,163,165,169,197,298,22586,24690,10553,13887,372,209,286,517,20639,14306,25981,25386,570,422,1215,5948,24761,31804,20573,28649,32694,26711,535,1057,7146,6706,4122,6543,8639,29721
653,6014,217,156,151,155,151,154,611,4500,200,153,157,156,156,160,478,4525,206,187,163,158,161,164,512,2683,187,173,165,167,165,169,198,299,22598,24727,10553,13909,371,208,282,518,20651,14319,26005,25426,571,424,1215,5956,24766,31822,20557,28646,32700,26719,532,1057,7143,6709,4120,6543,8643,29729
652,6020,217,157,156,157,149,154,612,4504,199,158,157,153,155,155,483,4531,207,190,164,162,161,162,512,2687,184,173,166,165,165,168,197,298,22610,24766,10551,13926,369,212,282,521,20667,14332,26033,25465,570,423,1218,5963,24775,31843,20551,28646,32702,26727,533,1059,7143,6710,4125,6545,8645,29746
654,6029,217,160,158,155,153,154,611,4507,200,162,154,157,157,153,479,4538,205,188,161,165,165,159,513,2688,186,174,165,165,168,168,197,300,22626,24805,10553,13947,371,209,287,520,20686,14353,26059,25505,572,423,1217,5973,24781,31858,20542,28652,32709,26737,531,1061,7142,6711,4125,6547,8647,29765
654,6036,216,157,156,156,152,160,614,4512,199,158,157,156,156,154,481,4546,204,189,163,162,164,160,510,2693,186,175,164,164,163,166,198,297,22639,24835,10552,13964,372,207,284,521,20703,14370,26088,25550,575,425,1218,5985,24788,31883,20538,28664,32717,26743,533,1060,7147,6716,4127,6556,8652,29782
653,6047,217,157,158,153,157,154,612,4521,199,156,157,156,156,152,483,4549,209,188,162,162,161,158,514,2697,187,177,164,165,166,168,199,303,22638,24867,10563,13999,373,210,284,522,20703,14373,26107,25583,571,425,1220,5997,24799,31899,20521,28671,32723,26748,533,1066,7142,6718,4125,6557,8657,29798
654,6043,215,157,157,159,159,151,614,4518,201,159,158,154,159,155,481,4551,204,192,163,161,163,163,512,2699,185,175,164,165,166,169,198,306,22643,24817,10574,13932,371,208,284,521,20685,14350,26107,25497,572,425,1222,5984,24827,31897,20571,28692,32729,26744,533,1062,7150,6718,4127,6551,8660,29776
654,6027,220,157,153,156,157,154,613,4512,201,159,156,156,156,155,483,4545,205,189,161,164,161,160,514,2696,188,175,167,166,162,171,198,299,22587,24684,10555,13847,368,209,286,519,20679,14335,26045,25408,571,422,1220,5960,24828,31870,20609,28683,32722,26734,532,1057,7156,6717,4126,6544,8658,29749
655,6015,219,159,156,155,151,150,611,4506,197,155,161,155,156,158,483,4538,202,186,163,162,163,164,515,2691,187,171,164,165,163,171,202,296,22554,24585,10550,13782,369,208,287,518,20667,14310,25997,25335,569,423,1220,5937,24835,31843,20640,28689,32731,26731,532,1057,7159,6713,4123,6535,8649,29714
654,6008,213,156,154,159,154,153,612,4503,197,159,157,159,155,154,479,4529,204,187,164,166,163,159,515,2687,187,171,164,164,164,170,197,296,22533,24521,10550,13755,367,213,283,513,20659,14297,25969,25290,569,422,1217,5918,24835,31815,20667,28688,32734,26729,530,1053,7160,6709,4121,6527,8643,29687
653,6009,216,157,158,155,153,151,614,4497,198,159,158,156,152,154,483,4529,209,187,163,162,160,162,515,2686,189,172,164,166,162,168,197,293,22527,24528,10554,13769,367,207,283,517,20666,14299,25959,25287,567,421,1219,5914,24830,31805,20661,28681,32726,26727,531,1051,7161,6710,4120,6527,8640,29675
656,6015,217,156,155,153,155,155,613,4498,200,156,154,156,156,155,484,4531,206,186,163,163,159,161,514,2685,189,172,165,163,165,171,197,297,22526,24541,10557,13778,375,209,282,517,20659,14291,25949,25279,567,420,1220,5913,24834,31809,20662,28677,32719,26727,529,1053,7164,6711,4122,6523,8634,29668
655,6015,215,156,155,157,156,157,611,4499,203,159,157,153,159,158,483,4528,204,190,166,162,163,159,513,2685,186,174,167,164,165,169,197,296,22523,24562,10557,13792,368,206,284,514,20653,14289,25943,25288,570,422,1222,5914,24836,31809,20649,28663,32719,26734,531,1056,7159,6711,4121,6524,8632,29670
654,6021,218,159,155,157,155,154,612,4501,199,157,157,160,156,157,484,4533,200,187,165,163,160,164,514,2684,188,171,164,164,164,168,196,300,22531,24595,10563,13815,371,206,283,516,20662,14298,25952,25311,568,422,1220,5918,24838,31815,20639,28666,32723,26737,530,1054,7156,6714,4118,6525,8633,29675
654,6029,216,159,159,156,157,156,611,4504,199,158,154,156,159,158,481,4534,205,181,162,162,161,157,514,2687,190,172,164,166,166,169,199,297,22543,24632,10563,13834,369,208,284,516,20673,14313,25963,25337,568,421,1220,5920,24849,31833,20621,28661,32726,26738,536,1057,7160,6715,4116,6530,8634,29683
657,6040,217,159,155,154,156,156,613,4506,200,161,156,155,157,155,483,4540,206,187,164,162,161,160,513,2687,187,175,163,163,165,167,197,299,22553,24673,10566,13853,368,204,286,516,20686,14326,25983,25373,568,422,1220,5930,24850,31847,20604,28652,32725,26745,531,1056,7154,6715,4117,6530,8633,29694
655,6047,217,161,156,154,154,155,611,4511,197,155,160,155,161,156,482,4545,204,187,163,162,164,163,513,2693,186,172,165,165,163,169,197,297,22565,24709,10565,13872,369,209,284,516,20703,14337,26007,25412,569,425,1225,5938,24855,31861,20589,28647,32727,26755,532,1057,7155,6717,4116,6532,8637,29707
654,6055,218,160,154,156,153,154,612,4518,200,161,155,158,158,156,482,4549,209,187,163,159,164,164,516,2694,187,175,163,168,164,169,197,298,22576,24742,10568,13889,369,204,285,517,20723,14357,26034,25456,572,423,1221,5947,24861,31879,20578,28651,32731,26759,530,1062,7157,6719,4120,6537,8641,29725
655,6063,219,158,157,155,153,155,613,4522,197,158,159,156,152,155,484,4558,205,187,161,166,161,162,516,2698,187,171,163,169,162,168,198,297,22586,24779,10575,13918,370,211,285,518,20730,14371,26069,25497,571,424,1223,5958,24867,31899,20567,28656,32741,26766,532,1062,7159,6726,4122,6540,8647,29747
656,6073,216,159,155,158,155,154,613,4525,200,159,156,159,159,156,483,4561,205,187,164,164,161,160,513,2701,187,174,163,165,163,169,197,298,22591,24815,10579,13940,371,209,285,520,20742,14387,26095,25547,574,424,1222,5969,24870,31917,20555,28665,32746,26779,531,1064,7157,6727,4125,6546,8647,29769
658,6089,216,158,156,157,157,155,613,4534,202,160,162,153,159,155,484,4569,206,186,160,161,159,162,514,2706,187,170,164,165,168,167,201,301,22604,24849,10579,13963,371,213,287,522,20761,14406,26127,25587,574,426,1226,5980,24884,31938,20545,28673,32757,26791,533,1064,7158,6731,4126,6551,8655,29787
657,6097,217,157,159,154,157,152,613,4539,199,159,160,154,155,159,484,4575,205,191,162,161,161,164,515,2708,186,172,169,165,165,168,198,299,22606,24883,10587,13990,374,209,285,523,20786,14427,26159,25636,574,425,1223,5991,24888,31951,20527,28673,32761,26802,531,1067,7160,6731,4127,6558,8657,29807
658,6098,217,160,155,155,156,151,615,4542,201,154,154,158,160,153,484,4581,205,185,165,162,162,160,516,2717,186,171,164,165,167,167,199,300,22627,24883,10605,13980,369,209,285,523,20787,14417,26181,25608,574,425,1225,5996,24918,31978,20557,28697,32768,26791,535,1069,7168,6738,4127,6559,8663,29796
657,6081,217,162,157,154,154,153,613,4538,200,162,159,156,155,156,483,4572,205,190,161,162,161,161,517,2711,188,174,167,165,167,167,202,303,22578,24746,10585,13865,371,207,285,521,20759,14393,26111,25487,572,424,1225,5965,24927,31945,20603,28695,32771,26784,533,1063,7173,6733,4128,6547,8662,29772
653,6073,217,157,156,155,153,155,614,4532,200,152,157,155,152,158,484,4567,203,189,161,162,161,162,516,2707,186,171,163,165,162,172,197,298,22525,24627,10576,13795,369,209,284,518,20749,14366,26069,25414,571,426,1226,5948,24924,31911,20630,28699,32771,26780,535,1057,7173,6728,4125,6541,8660,29745
655,6063,217,156,159,154,155,155,614,4527,199,155,160,155,155,156,485,4562,207,186,165,161,159,160,515,2701,186,175,165,165,165,167,199,298,22494,24547,10580,13755,371,207,285,517,20745,14356,26036,25357,569,421,1223,5928,24929,31880,20658,28690,32771,26775,537,1056,7176,6727,4125,6536,8652,29718
657,6061,217,157,155,156,157,154,614,4524,199,162,155,155,158,155,484,4558,207,186,163,162,159,161,516,2698,190,171,164,165,167,168,199,295,22479,24533,10578,13762,370,207,287,519,20741,14345,26010,25343,570,423,1225,5917,24920,31863,20650,28684,32772,26775,534,1055,7178,6725,4122,6534,8649,29711
656,6063,219,158,155,157,153,150,615,4527,197,158,157,157,156,157,484,4560,205,187,166,166,163,162,517,2697,187,173,164,166,163,167,196,296,22480,24542,10594,13774,369,209,288,515,20733,14336,26015,25349,570,422,1223,5919,24917,31859,20648,28679,32771,26775,530,1055,7178,6727,4123,6533,8645,29702
655,6065,217,158,154,155,155,152,614,4527,200,158,158,160,153,153,485,4561,205,186,161,159,159,161,517,2696,187,171,162,163,163,168,197,295,22485,24559,10594,13789,368,207,281,515,20727,14333,26011,25345,570,423,1224,5915,24921,31862,20641,28673,32767,26773,533,1054,7177,6727,4123,6535,8645,29700
657,6069,219,157,159,153,160,152,615,4527,206,160,160,153,156,155,483,4561,205,188,165,161,162,161,519,2699,185,172,164,163,163,169,201,297,22487,24580,10596,13802,368,209,285,518,20723,14332,26016,25363,572,423,1222,5917,24919,31863,20623,28658,32757,26775,532,1056,7174,6728,4123,6536,8648,29707
657,6078,215,157,156,153,154,155,615,4529,203,159,158,159,155,154,484,4564,205,189,164,165,160,161,516,2700,185,172,165,167,163,168,200,300,22500,24617,10598,13821,369,212,285,517,20733,14345,26023,25388,570,421,1227,5926,24920,31871,20605,28650,32759,26775,533,1058,7174,6726,4125,6536,8644,29711
657,6082,218,158,155,155,154,156,614,4534,198,158,157,152,153,156,483,4568,204,187,163,162,161,160,516,2701,187,171,165,165,164,168,197,297,22516,24651,10597,13843,369,207,281,517,20734,14355,26043,25420,570,423,1223,5931,24921,31878,20581,28644,32763,26781,530,1059,7174,6730,4122,6539,8645,29725
657,6088,221,160,156,153,156,154,614,4535,199,158,159,157,156,157,489,4571,205,194,164,165,160,165,515,2703,190,173,164,167,163,169,200,297,22526,24691,10604,13867,370,210,287,520,20738,14359,26061,25452,571,427,1226,5937,24925,31890,20565,28636,32761,26789,533,1060,7171,6727,4123,6541,8650,29739
656,6096,218,158,157,158,158,154,615,4541,200,158,156,160,159,155,484,4575,202,188,163,163,162,160,514,2707,189,171,165,167,163,171,197,298,22534,24719,10606,13889,371,209,284,519,20739,14362,26081,25487,574,423,1226,5948,24923,31907,20549,28640,32762,26790,530,1063,7168,6731,4125,6547,8650,29753
656,6105,217,157,157,155,153,154,615,4545,202,157,158,162,153,155,484,4581,206,191,161,161,160,161,516,2711,187,176,162,164,163,169,197,299,22551,24758,10607,13910,370,210,287,519,20751,14381,26107,25527,575,425,1227,5955,24928,31917,20539,28641,32765,26795,535,1062,7167,6731,4127,6547,8655,29773
657,6110,219,157,158,144,157,152,616,4546,201,159,159,154,155,155,484,4586,205,189,167,161,160,163,517,2711,184,171,165,164,163,169,201,300,22560,24800,10608,13927,371,209,284,523,20753,14390,26125,25562,572,426,1225,5962,24929,31930,20529,28648,32767,26808,533,1061,7167,6732,4127,6555,8660,29791
655,6114,217,159,158,155,155,153,618,4550,200,156,157,151,154,156,484,4588,209,188,163,162,160,163,517,2715,188,172,164,165,163,170,199,305,22574,24832,10610,13952,371,209,291,523,20768,14403,26143,25594,573,432,1227,5973,24937,31949,20511,28649,32772,26809,533,1068,7168,6733,4129,6555,8663,29805
658,6117,219,157,153,154,152,155,616,4553,199,157,160,156,151,156,484,4596,207,189,166,165,159,161,515,2718,187,171,165,165,164,169,199,302,22585,24835,10630,13937,372,208,287,524,20747,14383,26164,25568,572,424,1228,5977,24955,31963,20530,28661,32778,26789,532,1067,7171,6738,4128,6553,8664,29798
660,6096,218,159,155,158,155,155,614,4546,199,160,156,166,159,156,484,4585,207,187,167,161,161,160,517,2714,186,172,166,165,167,169,201,302,22548,24706,10600,13828,369,209,288,520,20724,14355,26092,25452,571,421,1227,5950,24961,31927,20559,28649,32770,26783,535,1062,7177,6728,4129,6547,8663,29773
656,6085,217,158,152,149,154,153,615,4540,205,159,156,157,155,157,484,4579,206,188,163,161,161,164,518,2708,187,172,164,166,168,169,197,298,22506,24605,10590,13766,370,209,287,517,20701,14326,26044,25375,570,423,1223,5928,24953,31885,20573,28632,32766,26779,532,1062,7173,6724,4127,6539,8659,29748
652,6069,217,157,156,154,162,154,615,4535,199,162,157,159,152,155,484,4570,206,188,160,160,160,160,517,2706,186,165,162,165,161,169,197,298,22479,24542,10591,13733,366,208,283,517,20691,14304,26013,25327,572,421,1226,5908,24944,31853,20589,28624,32767,26768,534,1058,7176,6721,4125,6533,8657,29733
657,6070,217,160,153,159,156,155,615,4533,200,161,157,156,159,157,482,4569,205,191,167,163,162,162,519,2703,187,173,165,164,164,169,197,295,22469,24539,10598,13759,369,209,283,515,20672,14288,25992,25319,570,422,1225,5903,24932,31834,20580,28613,32758,26763,533,1058,7168,6715,4122,6533,8656,29727
655,6067,216,162,159,155,151,156,614,4532,202,170,157,156,155,156,482,4569,204,188,163,163,160,160,516,2700,187,172,164,165,165,169,200,295,22477,24555,10603,13772,368,209,287,517,20664,14273,25985,25310,569,421,1225,5901,24932,31824,20577,28608,32749,26761,534,1056,7165,6715,4123,6535,8649,29725
657,6068,217,158,154,151,155,157,615,4533,199,152,153,157,156,151,485,4567,205,186,162,162,160,160,516,2703,187,171,166,165,167,166,199,295,22475,24571,10611,13787,370,209,283,514,20654,14271,25989,25315,569,421,1223,5900,24923,31823,20570,28605,32747,26759,534,1058,7165,6715,4124,6532,8649,29725
658,6072,216,157,154,156,151,153,614,4534,199,158,161,151,159,155,483,4569,205,187,162,162,161,160,514,2699,186,170,163,165,167,169,200,295,22484,24603,10615,13809,369,207,286,514,20655,14272,25985,25331,567,420,1225,5902,24920,31820,20547,28596,32747,26760,532,1057,7161,6711,4121,6533,8650,29733
659,6075,219,159,150,151,155,157,615,4534,199,156,154,155,156,155,485,4571,209,188,163,161,158,159,515,2702,187,171,165,162,165,167,198,295,22496,24633,10617,13829,374,208,284,516,20659,14280,25995,25355,568,425,1223,5908,24915,31829,20530,28586,32739,26759,531,1061,7163,6714,4125,6538,8650,29743
656,6079,216,158,159,157,153,158,616,4534,201,158,156,152,154,154,482,4574,205,188,164,161,161,161,515,2703,188,171,164,164,163,167,197,296,22513,24674,10619,13852,369,208,283,519,20660,14285,26014,25391,569,422,1223,5913,24913,31831,20507,28582,32736,26765,532,1058,7157,6710,4121,6538,8656,29759
657,6086,217,157,161,158,155,157,615,4536,201,153,156,157,155,154,486,4575,207,186,163,165,160,160,514,2706,187,170,164,165,165,167,198,295,22522,24716,10622,13877,372,210,284,516,20665,14295,26036,25428,570,423,1225,5919,24910,31846,20487,28581,32737,26767,531,1061,7153,6713,4122,6543,8657,29774
657,6091,220,158,155,154,158,154,613,4539,199,159,155,159,160,154,483,4583,205,189,161,159,159,163,515,2708,183,177,162,163,168,171,201,293,22535,24750,10621,13895,369,209,284,517,20677,14305,26052,25462,569,423,1227,5928,24911,31857,20473,28577,32743,26771,533,1062,7156,6713,4125,6549,8659,29792
654,6096,219,158,157,153,157,153,611,4542,199,158,157,154,156,158,482,4586,206,187,163,160,160,164,516,2713,182,171,164,166,162,169,198,297,22543,24787,10624,13914,374,207,283,519,20681,14318,26068,25495,573,425,1225,5936,24910,31871,20459,28583,32739,26780,531,1064,7152,6715,4125,6549,8667,29809
657,6104,217,157,156,156,153,155,613,4547,195,158,157,155,150,157,484,4591,205,189,166,161,160,161,515,2715,187,175,168,165,163,171,199,299,22562,24826,10622,13933,370,208,283,520,20703,14339,26101,25537,573,427,1226,5946,24913,31893,20447,28590,32742,26790,535,1065,7156,6717,4129,6554,8669,29829
655,6111,219,157,155,155,153,154,614,4548,195,155,158,157,159,154,483,4596,205,188,167,158,164,160,515,2718,189,173,164,167,164,172,198,299,22563,24860,10627,13963,369,211,287,521,20710,14348,26117,25569,574,425,1224,5958,24913,31905,20433,28603,32746,26786,530,1068,7153,6716,4127,6558,8671,29850
657,6104,215,161,157,155,155,155,614,4551,202,155,156,156,143,161,484,4598,203,187,162,165,161,160,515,2718,186,171,164,167,164,172,200,298,22579,24821,10641,13910,371,209,286,520,20691,14322,26118,25498,570,425,1228,5949,24939,31904,20471,28614,32747,26774,534,1067,7163,6718,4127,6556,8675,29831
654,6086,218,158,157,154,154,153,614,4542,199,158,157,159,153,157,483,4586,207,187,161,161,165,162,517,2717,185,171,164,165,164,167,198,296,22529,24693,10620,13819,370,203,287,518,20666,14292,26046,25393,571,423,1224,5921,24937,31859,20506,28603,32745,26761,532,1062,7163,6717,4127,6545,8676,29814
654,6070,217,160,159,156,157,153,614,4537,201,156,152,156,158,152,483,4581,205,187,162,162,159,164,517,2709,187,173,163,165,165,169,198,296,22489,24586,10612,13762,368,209,285,517,20647,14259,26001,25311,567,421,1225,5901,24924,31816,20527,28589,32739,26745,536,1059,7163,6706,4124,6540,8672,29794
653,6056,218,159,156,155,153,155,613,4529,199,159,156,160,169,159,483,4572,206,186,163,162,165,163,516,2703,187,171,164,165,163,169,199,297,22462,24516,10615,13727,367,205,283,514,20625,14231,25955,25249,571,425,1222,5880,24912,31773,20542,28577,32727,26737,533,1057,7157,6703,4123,6535,8667,29771
655,6055,218,161,157,155,152,153,612,4525,198,155,156,156,144,147,483,4566,206,185,164,165,161,159,516,2703,189,171,166,166,164,169,200,298,22447,24516,10618,13749,368,209,285,519,20611,14215,25932,25238,567,423,1226,5875,24891,31744,20529,28562,32713,26729,532,1056,7155,6695,4124,6534,8663,29775
654,6055,219,157,156,157,158,153,614,4524,199,157,156,164,153,157,482,4565,205,187,162,162,159,164,517,2703,187,175,169,166,161,168,198,295,22443,24527,10621,13762,368,208,283,513,20585,14199,25921,25233,566,421,1221,5871,24876,31733,20521,28551,32704,26718,532,1056,7152,6694,4121,6531,8664,29768
653,6053,217,157,156,156,154,154,613,4525,201,162,160,157,154,158,482,4564,205,183,161,161,161,164,516,2700,190,170,162,165,164,170,202,295,22439,24545,10622,13777,368,207,287,514,20576,14189,25914,25236,566,421,1224,5871,24866,31725,20500,28535,32697,26713,532,1056,7147,6693,4123,6534,8660,29773
654,6057,217,159,155,155,155,153,614,4521,199,158,159,151,157,154,483,4567,204,187,162,162,161,159,516,2703,186,171,159,163,165,172,201,294,22445,24580,10626,13800,370,211,283,513,20559,14181,25911,25255,568,419,1222,5875,24857,31724,20479,28519,32687,26708,533,1060,7141,6691,4119,6534,8662,29781
652,6058,217,159,156,155,158,153,612,4522,203,161,161,160,158,156,485,4567,205,186,162,161,160,163,516,2703,187,173,163,164,168,170,196,295,22461,24616,10625,13823,369,208,284,515,20563,14190,25935,25289,569,423,1222,5878,24850,31728,20459,28513,32686,26713,534,1061,7138,6689,4121,6537,8663,29796
654,6063,219,160,158,156,152,156,615,4525,199,162,157,161,159,157,483,4569,205,189,166,161,164,161,515,2702,187,173,164,167,164,169,199,295,22465,24655,10629,13849,370,208,283,517,20566,14199,25953,25321,570,417,1221,5886,24843,31733,20441,28510,32679,26711,532,1059,7135,6691,4121,6540,8667,29806
655,6068,217,157,158,154,155,157,613,4525,199,158,153,155,154,158,482,4575,206,190,163,162,158,157,515,2705,191,175,163,165,166,170,197,296,22485,24690,10623,13867,370,208,282,520,20571,14205,25973,25356,568,418,1222,5894,24841,31748,20423,28506,32676,26713,532,1061,7134,6689,4122,6543,8669,29826
652,6075,216,161,158,156,154,154,613,4528,201,162,159,157,153,155,482,4577,209,186,164,161,161,160,515,2711,187,172,165,164,163,171,193,296,22487,24732,10629,13886,369,212,286,518,20579,14217,26002,25395,567,417,1222,5902,24836,31759,20405,28503,32675,26715,532,1064,7129,6688,4124,6548,8670,29840
653,6083,216,157,158,156,154,157,612,4532,199,158,156,158,155,159,485,4583,208,191,163,161,163,158,515,2710,189,176,163,166,163,169,198,296,22503,24757,10627,13911,371,208,289,514,20590,14233,26026,25440,569,424,1223,5912,24837,31775,20387,28506,32671,26724,535,1062,7130,6690,4124,6547,8675,29861
652,6092,219,158,154,154,155,154,613,4533,203,159,155,155,155,155,482,4588,206,187,162,161,157,160,515,2714,191,177,166,164,166,172,198,301,22510,24802,10625,13933,373,211,286,520,20603,14249,26051,25483,572,420,1223,5924,24834,31787,20371,28511,32679,26727,531,1064,7129,6692,4126,6558,8679,29877
653,6097,217,159,157,154,155,155,612,4537,200,155,156,155,155,155,481,4591,207,188,163,164,160,160,516,2716,187,169,165,167,163,169,198,297,22520,24839,10627,13954,371,211,287,519,20622,14266,26090,25535,570,423,1227,5934,24840,31815,20361,28521,32685,26741,535,1067,7129,6694,4128,6561,8684,29898
655,6108,218,157,157,154,154,154,614,4544,200,159,156,155,156,154,481,4597,206,188,163,162,160,157,514,2721,187,172,163,165,167,168,200,296,22525,24867,10625,13978,372,211,285,523,20638,14286,26116,25582,572,423,1223,5945,24843,31837,20350,28529,32686,26745,534,1070,7131,6698,4129,6566,8687,29915
653,6107,217,160,156,155,156,156,614,4543,201,156,161,157,154,154,483,4602,205,187,161,161,159,160,514,2723,186,170,163,163,164,167,197,299,22545,24875,10649,13970,371,209,284,525,20631,14277,26143,25555,572,423,1225,5949,24862,31853,20374,28549,32685,26733,536,1070,7136,6702,4131,6566,8697,29917
651,6085,220,161,155,155,154,154,612,4538,203,163,157,159,153,155,483,4589,205,189,164,164,161,161,515,2717,190,173,163,159,163,171,197,299,22504,24745,10626,13857,370,211,285,518,20605,14249,26083,25441,571,423,1222,5920,24864,31816,20415,28549,32685,26725,533,1064,7143,6697,4130,6555,8693,29902
651,6067,219,157,156,153,158,154,613,4532,199,163,157,144,158,152,485,4584,205,186,163,161,159,161,518,2711,189,170,164,165,168,172,197,296,22455,24625,10609,13787,368,207,279,517,20595,14227,26044,25373,570,422,1222,5900,24855,31779,20443,28537,32680,26706,535,1063,7145,6694,4129,6549,8694,29891
651,6051,216,159,157,155,155,155,612,4525,203,162,159,155,151,155,482,4573,206,189,167,162,158,158,515,2703,188,171,164,159,164,172,197,295,22424,24546,10613,13751,368,211,284,515,20585,14208,26014,25314,567,421,1221,5879,24849,31740,20474,28529,32672,26696,531,1058,7144,6689,4127,6546,8692,29874
650,6047,217,158,156,155,155,152,612,4523,199,155,159,154,155,155,483,4569,206,186,163,162,161,160,516,2702,189,174,165,165,164,169,196,296,22405,24521,10615,13754,368,208,283,515,20585,14197,25998,25306,568,418,1222,5869,24837,31718,20474,28527,32665,26690,535,1056,7144,6685,4126,6547,8689,29867
651,6049,221,157,155,155,155,153,612,4520,201,159,157,155,154,154,483,4569,206,187,163,162,158,158,514,2701,185,172,164,173,163,169,198,292,22406,24539,10623,13772,368,207,285,514,20575,14188,25995,25310,567,420,1222,5871,24820,31709,20469,28517,32656,26681,533,1060,7139,6685,4128,6547,8685,29868
652,6047,217,156,158,157,156,153,611,4514,199,163,157,149,156,156,482,4568,202,189,162,162,164,164,514,2699,187,172,163,164,166,169,196,295,22402,24549,10623,13784,369,208,283,517,20573,14187,26003,25328,569,423,1222,5867,24817,31705,20459,28499,32650,26681,534,1058,7140,6683,4126,6546,8687,29875
649,6055,216,160,156,155,155,155,610,4516,204,161,156,156,154,152,481,4569,207,189,160,161,161,161,514,2701,188,172,167,165,164,168,198,298,22403,24577,10629,13803,369,208,281,518,20572,14194,26017,25350,568,420,1219,5871,24803,31707,20440,28492,32645,26681,534,1059,7138,6683,4130,6549,8685,29876
651,6055,215,158,156,157,154,157,612,4521,202,160,155,154,155,158,481,4571,204,188,163,161,161,158,514,2701,186,172,165,164,163,168,198,291,22420,24615,10627,13824,372,209,285,517,20581,14209,26037,25391,569,425,1222,5873,24799,31717,20420,28486,32641,26677,535,1059,7134,6684,4127,6548,8686,29894
650,6063,220,159,159,154,154,154,610,4520,203,161,159,156,151,158,480,4571,204,191,166,162,159,160,514,2701,190,171,164,166,164,171,198,294,22424,24653,10626,13844,369,212,284,518,20593,14224,26065,25432,570,423,1220,5882,24792,31725,20405,28478,32637,26679,535,1059,7133,6685,4129,6552,8689,29901
651,6067,217,161,159,157,155,156,611,4523,202,156,156,157,155,160,481,4573,205,187,163,158,158,159,515,2705,187,172,164,165,165,171,197,297,22439,24691,10623,13865,369,209,283,518,20605,14234,26086,25474,571,425,1220,5891,24788,31740,20381,28471,32636,26686,535,1061,7131,6687,4129,6556,8692,29916
651,6075,219,158,156,155,157,156,610,4527,199,159,157,155,157,154,481,4579,205,187,162,164,161,160,516,2707,188,172,165,165,162,167,200,295,22445,24731,10618,13880,369,207,284,517,20614,14249,26115,25511,572,427,1219,5898,24789,31752,20369,28467,32635,26686,536,1064,7132,6691,4130,6558,8695,29926
653,6079,218,159,155,158,154,154,611,4529,200,159,157,153,155,155,480,4587,205,187,163,162,161,159,513,2710,186,173,164,164,163,168,199,297,22455,24763,10619,13901,369,208,285,524,20634,14273,26139,25559,567,425,1221,5907,24786,31771,20352,28471,32640,26691,534,1066,7131,6691,4131,6563,8697,29943
651,6084,220,156,158,155,156,153,611,4535,199,157,159,156,160,155,481,4589,205,186,162,162,161,164,513,2712,186,173,168,164,163,169,197,297,22461,24801,10616,13921,372,208,284,522,20650,14296,26171,25606,575,426,1221,5919,24786,31795,20340,28480,32637,26708,533,1067,7133,6697,4133,6571,8702,29959
652,6093,216,158,157,155,152,154,615,4538,197,159,147,160,153,158,482,4594,205,189,163,161,160,163,513,2715,186,172,164,165,161,172,198,299,22479,24845,10619,13947,371,208,284,524,20675,14320,26199,25654,575,427,1221,5930,24788,31816,20334,28491,32645,26717,534,1068,7133,6700,4135,6573,8703,29973
652,6102,218,157,156,155,154,156,612,4543,202,164,157,156,173,159,482,4597,207,186,162,162,162,162,515,2720,188,174,162,165,164,167,201,301,22483,24876,10620,13968,370,208,285,527,20691,14337,26226,25699,574,427,1221,5943,24787,31835,20319,28498,32650,26717,537,1071,7131,6699,4137,6576,8705,29999
655,6098,217,158,156,155,154,154,611,4543,199,158,153,159,156,154,482,4601,206,191,164,159,162,159,513,2722,186,177,165,162,163,167,198,300,22499,24872,10639,13947,374,209,285,526,20689,14332,26251,25664,573,425,1224,5944,24811,31853,20351,28515,32645,26698,536,1072,7141,6703,4139,6577,8712,29993
651,6078,218,157,155,154,155,153,612,4537,201,157,155,153,155,158,481,4591,205,187,161,160,162,162,515,2716,188,171,167,166,163,168,198,298,22459,24747,10611,13840,369,208,284,523,20665,14304,26174,25548,572,424,1219,5915,24810,31819,20381,28507,32643,26691,537,1065,7145,6701,4135,6569,8712,29975
652,6060,217,161,159,156,152,152,611,4529,199,157,155,152,155,155,480,4583,205,185,163,165,161,159,513,2709,188,172,164,163,161,168,200,297,22420,24651,10598,13782,367,209,285,520,20659,14286,26130,25480,571,423,1224,5901,24797,31785,20402,28495,32639,26677,535,1063,7143,6693,4132,6557,8711,29963
650,6049,216,161,158,156,157,154,613,4524,199,163,161,156,155,155,484,4578,207,188,162,159,160,160,513,2706,190,172,167,168,163,169,199,297,22394,24583,10596,13751,367,209,283,523,20650,14271,26093,25432,570,423,1217,5885,24790,31757,20424,28487,32627,26672,533,1059,7142,6687,4132,6557,8709,29956
647,6044,217,159,154,155,152,153,615,4520,199,158,156,157,152,153,480,4574,206,187,167,165,160,160,513,2703,187,174,167,163,160,169,198,295,22386,24575,10597,13767,367,209,285,519,20645,14262,26088,25442,570,423,1217,5881,24776,31741,20418,28475,32623,26663,535,1058,7138,6687,4130,6556,8707,29950
647,6043,218,162,158,158,154,155,610,4517,200,162,160,156,150,155,480,4570,209,187,167,164,157,160,512,2703,187,172,165,165,165,168,197,296,22387,24598,10606,13776,371,207,283,519,20648,14270,26088,25448,571,422,1218,5881,24767,31740,20417,28475,32623,26657,532,1059,7135,6686,4131,6553,8705,29951
647,6045,217,157,159,154,154,155,611,4517,198,158,154,158,156,153,481,4570,206,185,159,151,160,162,513,2701,189,172,164,165,164,167,197,295,22388,24609,10609,13789,371,211,283,519,20648,14268,26085,25461,571,423,1217,5879,24762,31733,20404,28463,32609,26655,534,1060,7137,6683,4129,6553,8703,29950
649,6048,217,156,155,154,155,154,612,4513,199,158,156,156,155,152,481,4572,206,187,163,161,160,159,512,2701,187,171,163,165,164,169,197,297,22391,24646,10610,13808,368,208,283,519,20660,14285,26102,25490,571,424,1214,5883,24755,31742,20390,28458,32604,26661,532,1060,7135,6685,4130,6556,8703,29955
651,6050,218,158,157,156,153,153,611,4519,199,158,155,155,160,153,479,4573,202,190,160,159,161,165,512,2705,187,175,164,165,164,168,200,297,22406,24682,10607,13826,369,208,287,519,20677,14302,26127,25526,571,426,1218,5891,24750,31751,20376,28449,32603,26665,535,1060,7134,6687,4130,6557,8701,29967
649,6053,218,157,156,153,155,153,611,4518,200,159,157,159,152,153,480,4573,206,186,162,159,159,161,511,2703,186,171,163,166,166,168,198,295,22419,24719,10605,13841,370,209,284,519,20695,14321,26147,25568,572,423,1215,5895,24745,31764,20355,28443,32595,26663,533,1063,7134,6690,4133,6561,8705,29972
650,6057,217,158,155,158,155,154,610,4521,199,162,157,159,155,162,479,4575,205,188,157,161,162,161,511,2707,187,171,164,165,163,172,199,295,22435,24759,10607,13863,371,208,283,520,20705,14335,26199,25631,574,426,1219,5901,24750,31782,20350,28453,32601,26670,536,1065,7135,6690,4134,6561,8705,29985
650,6063,218,159,159,155,155,153,610,4522,204,159,170,150,159,151,481,4582,205,186,166,162,162,159,512,2709,191,175,164,163,161,168,199,299,22444,24795,10608,13879,369,207,284,521,20718,14349,26246,25691,575,424,1215,5912,24751,31795,20338,28456,32600,26675,534,1064,7137,6695,4133,6568,8710,29993
649,6070,217,159,159,154,154,155,609,4528,199,157,158,158,160,159,481,4587,208,187,154,161,161,162,512,2713,187,172,165,165,163,172,197,298,22455,24824,10602,13897,371,208,285,523,20734,14363,26279,25736,574,427,1217,5921,24749,31815,20325,28459,32605,26681,538,1066,7139,6699,4133,6571,8711,30010
651,6077,218,157,155,153,151,153,611,4529,199,159,154,153,156,159,480,4589,205,188,162,162,163,162,512,2716,186,171,166,164,164,169,199,300,22454,24857,10603,13923,370,208,285,524,20740,14377,26291,25765,579,432,1215,5933,24744,31829,20303,28461,32609,26685,533,1069,7134,6697,4137,6575,8711,30022
652,6077,217,159,159,158,155,157,611,4533,204,157,154,157,159,159,477,4592,204,188,168,163,161,166,510,2714,188,173,165,165,166,171,198,299,22483,24861,10622,13909,370,207,284,519,20745,14373,26293,25727,575,427,1217,5930,24769,31846,20329,28473,32603,26671,535,1068,7141,6700,4134,6569,8717,30017
649,6055,219,157,155,155,153,155,610,4527,198,155,155,155,155,159,480,4582,206,187,162,159,177,159,511,2708,187,171,167,166,163,169,199,296,22442,24749,10601,13814,370,208,283,522,20727,14352,26233,25625,575,422,1213,5906,24765,31811,20372,28473,32601,26661,535,1066,7143,6695,4132,6565,8713,29998
649,6042,217,160,159,153,155,153,611,4517,199,157,153,156,155,152,479,4577,205,187,159,165,159,149,513,2703,186,165,165,169,164,167,198,296,22410,24650,10593,13758,368,209,283,519,20709,14324,26187,25556,571,422,1213,5888,24756,31769,20396,28465,32598,26651,535,1060,7139,6691,4130,6556,8714,29978
647,6028,219,155,159,155,157,156,609,4508,200,155,160,157,155,155,479,4568,206,187,162,160,161,153,513,2700,188,174,167,168,165,169,197,296,22382,24575,10599,13731,370,208,283,518,20691,14307,26151,25507,570,424,1213,5872,24745,31737,20422,28455,32584,26636,534,1059,7141,6686,4127,6549,8711,29964
645,6026,219,160,159,155,155,152,608,4505,198,157,155,157,152,153,474,4560,205,187,171,159,160,159,511,2695,187,173,165,164,162,169,197,294,22376,24569,10601,13745,368,206,283,513,20693,14302,26127,25499,570,423,1215,5863,24730,31717,20415,28440,32577,26630,535,1055,7135,6682,4123,6549,8709,29957
646,6024,220,160,156,155,157,156,607,4505,202,161,158,157,158,158,475,4559,205,192,163,163,158,163,514,2693,190,171,164,162,162,169,198,293,22381,24584,10607,13754,367,208,282,517,20687,14295,26121,25496,572,420,1211,5863,24723,31713,20413,28434,32574,26627,534,1057,7134,6680,4124,6545,8702,29949
646,6024,220,157,159,156,154,153,607,4501,200,158,153,160,157,156,480,4558,204,189,163,158,164,160,512,2692,185,177,163,164,163,170,196,295,22386,24599,10606,13766,370,208,283,516,20696,14305,26123,25508,573,423,1212,5859,24721,31711,20410,28429,32565,26623,535,1056,7132,6682,4122,6546,8698,29943
647,6023,219,155,155,153,158,153,608,4500,201,162,157,153,155,155,472,4558,205,185,161,161,151,159,511,2692,190,173,164,166,163,172,199,293,22385,24626,10610,13783,368,211,283,516,20695,14312,26127,25530,572,424,1211,5864,24712,31717,20399,28419,32562,26625,534,1060,7133,6681,4122,6547,8698,29948
646,6030,217,160,155,155,155,154,609,4502,199,156,157,155,155,158,476,4560,204,187,163,160,159,175,508,2691,185,172,163,165,163,173,196,296,22397,24664,10607,13804,367,207,282,517,20708,14331,26144,25563,570,424,1213,5867,24715,31725,20384,28409,32556,26627,533,1058,7130,6684,4123,6549,8699,29956
646,6036,218,161,156,155,155,157,607,4504,200,163,157,155,158,159,478,4563,203,191,159,164,165,161,509,2693,187,172,165,165,165,168,196,294,22404,24699,10608,13821,369,207,285,519,20715,14344,26155,25590,575,426,1210,5873,24706,31731,20370,28403,32561,26631,532,1059,7130,6687,4125,6549,8700,29961
646,6043,217,161,156,156,153,153,608,4508,201,157,158,158,152,153,478,4567,204,185,163,158,160,160,511,2695,187,171,164,162,161,168,196,297,22416,24730,10605,13839,369,209,285,519,20728,14353,26179,25631,571,424,1213,5882,24706,31747,20355,28401,32559,26638,535,1061,7124,6689,4125,6552,8699,29967
649,6047,217,159,154,154,155,154,608,4509,200,159,157,155,159,154,479,4569,207,186,166,153,158,158,512,2696,185,171,165,165,164,171,199,296,22421,24761,10606,13861,371,211,285,520,20735,14364,26197,25669,575,425,1211,5891,24710,31761,20336,28402,32559,26644,537,1062,7126,6688,4123,6555,8702,29978
650,6055,216,160,155,153,153,156,609,4511,203,159,157,156,154,154,481,4575,205,186,163,165,161,160,511,2702,187,172,163,167,164,167,198,297,22435,24795,10603,13878,370,208,285,522,20755,14382,26224,25708,573,425,1212,5898,24714,31773,20324,28410,32561,26651,537,1063,7128,6693,4126,6559,8700,29995
646,6064,219,157,153,152,154,154,608,4517,196,159,153,152,157,158,479,4583,205,187,160,162,168,164,510,2700,188,171,165,166,164,168,200,299,22439,24828,10605,13897,370,208,283,521,20765,14395,26239,25745,576,427,1213,5906,24710,31794,20317,28414,32564,26663,539,1065,7126,6695,4126,6561,8699,30003
648,6074,220,151,159,158,157,153,610,4523,197,158,154,155,160,157,477,4585,206,191,163,163,159,164,508,2705,186,176,163,164,167,169,197,298,22452,24860,10605,13920,369,210,283,523,20785,14417,26265,25787,576,427,1214,5919,24714,31814,20307,28419,32577,26668,534,1066,7128,6697,4127,6567,8707,30015
653,6081,220,157,157,156,157,155,611,4525,200,159,157,157,156,153,480,4591,205,190,173,161,163,155,509,2710,187,172,167,163,162,169,196,299,22467,24884,10615,13934,370,209,284,524,20794,14421,26286,25791,575,426,1215,5930,24723,31831,20316,28435,32577,26656,535,1069,7129,6701,4127,6565,8712,30017
649,6057,218,156,155,156,152,157,607,4519,198,159,160,159,155,159,478,4584,205,191,161,161,160,159,507,2704,187,175,164,165,163,171,198,297,22444,24782,10615,13838,370,206,283,523,20767,14388,26237,25678,573,426,1214,5901,24747,31811,20367,28453,32579,26652,535,1064,7135,6693,4123,6556,8708,30002
646,6041,216,157,157,153,157,155,609,4514,200,158,159,153,156,155,478,4573,210,192,160,161,160,159,511,2698,187,171,167,164,165,167,197,295,22398,24656,10595,13763,369,207,286,519,20764,14368,26185,25590,572,425,1211,5881,24740,31771,20394,28438,32577,26638,531,1060,7135,6693,4123,6551,8708,29979
647,6023,217,157,155,158,154,152,608,4504,198,159,159,157,156,154,478,4565,208,185,160,162,163,160,516,2691,190,179,163,165,163,167,200,294,22362,24561,10590,13717,368,207,284,518,20751,14349,26140,25521,571,422,1215,5861,24737,31735,20429,28431,32573,26633,534,1059,7140,6688,4121,6539,8698,29950
647,6017,217,157,158,155,156,153,609,4496,198,155,154,156,156,157,479,4559,206,187,162,161,160,161,509,2689,187,173,169,165,161,168,197,293,22337,24509,10586,13699,369,207,288,519,20734,14331,26099,25480,569,423,1208,5847,24727,31708,20441,28414,32562,26627,539,1055,7137,6688,4119,6535,8693,29931
645,6016,217,157,158,156,155,154,611,4493,199,158,158,156,155,156,478,4556,205,190,163,163,158,163,516,2685,188,175,165,166,166,170,197,293,22330,24526,10592,13715,367,211,282,517,20728,14323,26083,25477,569,423,1211,5843,24722,31692,20432,28409,32556,26617,534,1054,7135,6684,4115,6530,8692,29924
646,6017,216,154,157,154,154,154,607,4492,199,159,157,157,160,155,477,4555,205,186,160,164,163,160,509,2684,186,172,166,163,163,171,199,294,22327,24532,10589,13724,368,209,284,516,20717,14314,26071,25472,572,423,1212,5846,24719,31686,20430,28395,32549,26612,531,1053,7131,6684,4113,6531,8687,29911
645,6020,217,159,159,158,152,153,607,4490,200,159,153,158,153,155,477,4555,205,187,163,162,161,160,509,2683,186,171,164,164,162,168,197,297,22330,24551,10584,13735,366,208,283,516,20717,14319,26064,25480,571,423,1211,5849,24711,31680,20411,28383,32537,26615,533,1053,7125,6683,4109,6530,8685,29911
644,6022,219,156,155,157,155,154,606,4493,202,158,155,159,154,152,476,4556,205,189,164,165,160,158,511,2683,189,172,162,164,163,169,202,294,22339,24584,10582,13753,369,209,288,514,20719,14323,26066,25503,572,425,1209,5852,24705,31681,20396,28376,32543,26614,530,1055,7122,6682,4112,6528,8682,29914
648,6031,217,158,158,154,155,157,608,4491,197,160,153,156,154,160,477,4561,207,186,163,163,159,157,508,2684,189,173,164,164,164,171,198,294,22358,24613,10583,13771,369,208,284,519,20718,14330,26075,25526,572,426,1212,5856,24700,31689,20379,28367,32539,26618,532,1055,7120,6685,4108,6531,8683,29920
647,6037,217,159,159,154,155,153,607,4497,200,158,160,157,153,156,479,4566,205,187,163,163,159,163,508,2689,186,171,165,165,163,169,201,296,22370,24644,10584,13791,369,209,285,519,20709,14327,26093,25557,574,426,1211,5865,24695,31689,20363,28358,32533,26620,530,1056,7114,6684,4108,6531,8677,29923
646,6048,216,157,159,155,158,155,607,4497,202,159,156,159,159,155,477,4567,205,190,164,160,161,161,510,2691,187,172,164,162,168,168,199,297,22379,24675,10579,13809,369,210,284,521,20713,14335,26111,25587,575,427,1212,5871,24699,31701,20353,28362,32540,26623,533,1058,7110,6683,4109,6535,8679,29930
647,6053,217,159,155,155,157,154,607,4500,199,161,157,156,156,153,481,4573,206,186,163,163,161,158,510,2691,186,175,164,164,164,170,199,300,22394,24713,10577,13828,370,211,286,524,20711,14345,26116,25613,575,428,1213,5880,24695,31717,20343,28371,32537,26634,532,1060,7110,6683,4107,6537,8683,29942
646,6059,217,157,158,157,155,154,609,4508,201,162,154,155,156,156,477,4577,204,186,155,161,162,160,508,2694,186,171,163,166,159,168,199,297,22410,24747,10576,13845,372,210,285,521,20728,14360,26139,25649,575,427,1214,5895,24700,31731,20327,28370,32545,26643,534,1059,7109,6683,4109,6540,8681,29951
648,6070,218,158,155,157,154,157,607,4508,199,157,157,159,154,157,477,4586,204,187,167,161,158,161,509,2698,187,176,164,169,164,167,199,297,22415,24783,10579,13870,371,210,289,526,20737,14377,26157,25686,575,429,1213,5903,24711,31747,20321,28382,32558,26655,532,1064,7111,6685,4110,6545,8682,29961
646,6079,217,156,155,155,155,155,607,4513,199,157,161,157,160,152,481,4589,205,190,163,158,162,161,509,2700,187,173,164,165,164,167,199,298,22433,24821,10583,13894,372,209,287,527,20755,14394,26193,25733,576,429,1217,5915,24720,31778,20317,28396,32570,26667,534,1066,7114,6689,4113,6553,8687,29978
649,6090,219,159,156,155,153,154,608,4522,203,162,156,155,154,154,478,4597,205,187,162,161,157,161,509,2703,188,173,163,164,164,168,199,299,22435,24853,10589,13919,373,209,285,524,20763,14405,26211,25763,577,428,1214,5930,24721,31794,20310,28410,32579,26675,534,1067,7111,6692,4115,6553,8692,29991
648,6085,216,159,156,157,157,154,609,4520,203,156,157,152,159,155,480,4597,205,187,168,161,162,162,509,2704,187,171,167,164,161,169,199,300,22444,24803,10603,13860,370,210,286,523,20739,14378,26196,25669,575,427,1217,5916,24756,31796,20363,28424,32583,26667,535,1064,7123,6696,4114,6547,8693,29969
647,6065,217,158,158,155,154,154,610,4515,198,156,161,156,155,152,478,4589,206,187,165,162,160,167,510,2699,187,172,165,165,165,169,199,300,22395,24671,10577,13770,373,209,285,523,20728,14359,26121,25564,574,426,1214,5894,24754,31764,20396,28421,32583,26655,532,1058,7127,6693,4111,6538,8689,29947
649,6051,217,159,155,154,157,157,608,4509,198,162,157,159,158,157,479,4580,204,189,161,159,159,155,510,2694,185,166,167,164,165,168,198,298,22352,24567,10565,13709,368,211,286,519,20709,14332,26065,25484,574,426,1215,5878,24753,31729,20427,28417,32580,26645,533,1054,7126,6687,4112,6532,8685,29921
649,6041,218,157,155,154,152,154,609,4501,199,156,156,156,157,153,479,4574,205,188,165,162,164,166,511,2689,187,172,164,166,165,168,198,296,22316,24497,10565,13680,368,209,285,522,20690,14307,26027,25429,574,427,1213,5859,24744,31694,20450,28409,32582,26643,533,1053,7122,6685,4105,6522,8677,29895
645,6043,217,157,157,155,153,154,609,4496,199,159,156,159,152,155,483,4573,209,187,170,162,161,157,512,2689,186,173,165,165,159,169,198,295,22305,24496,10563,13695,367,209,286,519,20687,14303,26017,25429,572,424,1214,5859,24737,31681,20446,28403,32578,26642,533,1053,7118,6686,4102,6522,8675,29888
646,6041,217,158,154,154,153,156,608,4497,200,157,153,157,159,159,477,4573,207,188,163,163,165,161,511,2687,187,172,165,165,165,169,199,295,22311,24504,10567,13699,369,208,286,516,20665,14290,26010,25423,574,427,1214,5859,24742,31675,20449,28398,32570,26639,533,1052,7114,6686,4103,6521,8672,29873
646,6046,215,158,156,155,153,156,607,4494,199,159,155,157,151,161,479,4574,207,189,164,163,162,160,512,2687,187,174,164,162,163,172,199,293,22315,24521,10564,13712,367,209,285,519,20659,14289,26010,25435,572,426,1215,5859,24740,31679,20442,28391,32571,26643,533,1054,7109,6687,4100,6520,8668,29875
648,6053,218,157,156,158,157,155,608,4496,200,159,156,160,155,154,479,4578,204,188,163,162,162,160,509,2690,187,171,163,164,164,170,199,296,22322,24550,10563,13731,370,210,286,517,20659,14290,26026,25460,573,425,1214,5865,24734,31681,20431,28383,32573,26645,531,1053,7104,6687,4100,6522,8667,29870
648,6059,214,158,155,155,155,156,606,4501,197,158,162,156,154,159,477,4579,205,188,159,160,160,163,510,2688,187,172,164,175,164,173,199,294,22343,24583,10559,13747,368,207,286,518,20662,14299,26038,25487,573,425,1215,5868,24738,31689,20416,28379,32573,26650,534,1055,7102,6690,4100,6526,8667,29876
643,6066,215,157,156,155,154,153,608,4502,200,159,157,156,153,153,478,4583,208,190,163,162,161,168,510,2691,187,172,163,165,164,168,198,295,22357,24618,10557,13763,369,210,287,521,20666,14303,26056,25515,573,425,1216,5878,24741,31695,20405,28366,32574,26659,532,1055,7100,6688,4098,6525,8662,29882
649,6072,214,157,155,153,153,154,607,4503,199,163,156,156,156,158,477,4587,208,187,166,165,164,171,510,2695,196,170,169,176,164,171,200,296,22370,24650,10558,13785,370,209,286,521,20662,14311,26079,25551,573,427,1219,5886,24743,31715,20389,28369,32576,26661,533,1059,7100,6695,4101,6530,8663,29889
648,6080,219,161,155,155,156,156,608,4506,204,158,157,156,155,159,477,4593,207,191,162,153,167,163,508,2697,190,172,164,164,162,170,199,297,22381,24685,10562,13805,370,210,287,521,20678,14320,26101,25587,575,429,1217,5897,24746,31721,20377,28369,32582,26667,531,1059,7097,6690,4097,6532,8664,29899
648,6091,215,157,157,157,157,154,607,4509,199,162,155,154,159,156,480,4598,205,188,163,161,163,163,511,2700,187,171,164,164,167,170,197,297,22397,24721,10558,13827,371,210,288,521,20690,14339,26127,25625,576,429,1218,5905,24751,31740,20372,28379,32590,26680,535,1057,7099,6697,4099,6534,8666,29909
649,6095,218,157,155,155,154,155,608,4513,198,154,157,154,159,159,478,4602,206,183,162,163,165,163,511,2702,185,174,164,165,165,169,197,297,22408,24753,10558,13848,371,210,288,521,20705,14354,26162,25673,577,430,1218,5915,24759,31755,20369,28393,32595,26686,533,1059,7098,6698,4101,6537,8666,29922
648,6107,218,156,159,156,154,153,608,4517,199,157,153,158,156,152,479,4609,209,191,163,162,162,161,511,2707,190,175,164,162,164,167,200,299,22419,24788,10561,13873,373,209,286,525,20717,14371,26201,25719,576,428,1220,5929,24761,31769,20352,28395,32599,26693,534,1062,7099,6701,4105,6540,8674,29941
648,6096,218,157,157,156,155,157,608,4519,203,158,158,157,154,156,477,4610,207,188,168,159,161,160,512,2709,193,172,168,168,163,166,199,299,22420,24748,10568,13812,371,207,286,523,20707,14352,26210,25663,576,429,1218,5920,24788,31767,20387,28402,32603,26684,534,1062,7110,6704,4102,6534,8673,29917
647,6079,217,160,156,155,153,157,609,4513,200,158,160,156,157,160,479,4604,209,188,161,164,164,161,511,2705,189,177,168,168,166,172,199,297,22373,24623,10535,13721,371,208,287,521,20700,14336,26167,25584,576,427,1220,5897,24785,31737,20413,28393,32604,26677,534,1058,7115,6702,4102,6530,8672,29899
647,6068,217,157,154,154,156,153,610,4505,202,159,155,156,158,155,478,4600,207,186,154,157,161,161,510,2698,187,172,165,164,162,177,199,296,22330,24537,10522,13673,366,211,285,518,20694,14315,26133,25527,576,425,1218,5883,24780,31693,20433,28380,32614,26675,532,1053,7115,6701,4103,6520,8669,29873
648,6060,216,159,157,157,157,154,606,4500,201,158,158,157,159,159,477,4594,205,187,160,162,158,162,509,2694,186,174,169,165,166,169,199,296,22305,24479,10521,13651,366,209,286,517,20687,14301,26106,25483,572,425,1221,5867,24758,31644,20461,28383,32622,26685,532,1050,7115,6700,4096,6519,8659,29849
646,6061,218,161,156,154,155,154,607,4498,200,162,155,153,159,155,477,4593,206,190,161,161,159,159,511,2693,187,171,167,165,164,168,198,294,22303,24494,10523,13666,368,211,288,517,20675,14298,26090,25476,573,423,1219,5868,24742,31627,20456,28383,32617,26681,531,1047,7110,6698,4097,6521,8656,29838
647,6061,216,158,156,153,157,154,611,4495,199,167,154,155,159,151,478,4592,207,187,164,165,161,161,511,2692,187,172,169,168,167,170,198,294,22315,24505,10527,13676,367,208,285,517,20678,14293,26084,25474,573,425,1218,5867,24743,31615,20456,28383,32617,26679,531,1053,7105,6697,4092,6514,8650,29832
648,6064,217,157,156,155,155,156,609,4495,199,159,158,155,155,158,480,4593,206,192,161,162,161,161,510,2692,182,172,165,165,160,161,197,295,22319,24519,10538,13702,370,208,285,517,20661,14285,26081,25482,572,424,1218,5869,24734,31610,20454,28381,32607,26681,530,1050,7095,6699,4092,6517,8645,29825
646,6070,217,154,159,155,154,153,607,4495,201,154,153,156,155,156,481,4597,204,189,164,163,163,161,511,2693,186,175,167,166,164,162,199,294,22341,24558,10542,13724,372,210,287,515,20670,14297,26101,25513,572,425,1220,5874,24739,31623,20447,28384,32611,26685,535,1053,7093,6699,4088,6521,8645,29824
646,6077,219,158,157,158,154,153,607,4496,203,159,156,159,155,153,477,4602,205,186,164,161,159,157,512,2695,188,171,162,167,161,175,198,295,22359,24591,10538,13743,370,209,286,517,20682,14310,26113,25546,572,426,1217,5881,24738,31628,20430,28382,32605,26686,533,1052,7091,6703,4093,6520,8645,29831
645,6082,217,161,155,154,157,154,609,4500,198,156,156,156,159,157,477,4605,207,187,163,161,162,163,510,2696,190,170,162,165,167,174,199,295,22374,24632,10534,13760,369,209,286,518,20687,14320,26137,25579,575,426,1220,5891,24745,31645,20425,28387,32614,26694,533,1053,7090,6702,4091,6525,8644,29841
646,6091,220,157,158,155,157,152,607,4502,203,156,160,157,157,156,476,4611,205,189,163,161,160,164,510,2695,190,173,165,162,160,175,197,304,22395,24667,10533,13780,368,208,288,519,20693,14327,26154,25609,574,426,1219,5898,24752,31655,20415,28392,32615,26706,530,1054,7085,6703,4090,6526,8648,29847
647,6098,216,158,155,158,154,157,607,4505,200,157,161,156,157,156,478,4616,208,183,160,162,163,160,511,2701,187,173,163,165,165,164,198,296,22408,24703,10533,13802,371,208,284,519,20699,14341,26185,25649,574,426,1220,5912,24767,31676,20411,28399,32619,26713,534,1055,7083,6704,4092,6527,8647,29859
647,6106,218,158,158,155,153,155,607,4509,200,157,157,157,159,155,478,4622,209,186,166,163,163,158,511,2702,188,173,164,165,154,174,197,299,22424,24739,10532,13811,370,211,287,522,20714,14357,26207,25691,576,427,1221,5919,24769,31693,20406,28414,32628,26722,529,1057,7083,6706,4090,6531,8649,29869
647,6113,217,160,155,154,155,157,608,4518,200,157,156,157,156,158,477,4628,206,191,163,165,161,157,509,2706,188,173,165,167,169,169,199,298,22434,24771,10527,13833,372,210,286,521,20729,14371,26231,25730,575,427,1221,5931,24779,31711,20394,28424,32632,26731,534,1059,7085,6706,4096,6536,8651,29885
647,6118,219,161,155,158,152,157,608,4518,199,161,154,159,157,156,479,4634,205,191,164,161,166,161,509,2711,185,172,174,166,162,167,197,297,22448,24789,10546,13837,369,208,287,517,20723,14367,26257,25718,576,429,1221,5939,24790,31723,20407,28437,32641,26721,531,1060,7087,6711,4095,6534,8658,29872
648,6098,216,158,156,155,157,153,606,4513,201,159,157,157,160,158,477,4626,204,187,166,159,162,164,512,2706,187,172,168,165,167,169,201,295,22421,24664,10527,13736,369,209,286,520,20699,14342,26207,25618,574,425,1225,5911,24807,31695,20464,28446,32651,26722,538,1057,7093,6707,4094,6530,8654,29851
648,6086,221,158,155,158,155,154,609,4505,202,160,157,159,153,156,478,4625,205,187,162,165,161,160,513,2701,191,171,163,161,163,171,199,295,22371,24557,10514,13673,367,212,286,517,20684,14317,26147,25531,574,424,1221,5895,24803,31650,20487,28433,32647,26705,531,1052,7094,6703,4090,6518,8646,29811
645,6075,217,168,153,155,156,157,611,4501,198,158,157,157,156,155,478,4616,204,187,168,161,158,160,513,2697,193,172,167,166,171,167,197,293,22346,24481,10510,13634,366,209,287,515,20670,14291,26106,25464,572,423,1221,5876,24797,31615,20510,28424,32646,26702,531,1047,7091,6699,4090,6513,8639,29779
645,6073,220,158,156,155,158,154,609,4492,201,158,157,156,155,152,479,4611,205,186,163,163,161,162,511,2693,191,176,163,163,162,168,197,294,22326,24456,10510,13633,366,207,285,514,20651,14279,26077,25435,572,422,1221,5867,24792,31595,20513,28412,32638,26697,531,1048,7080,6696,4086,6507,8633,29760
644,6077,220,157,157,155,155,153,608,4490,198,161,155,156,156,156,478,4612,203,186,163,164,161,165,513,2693,187,171,164,168,171,169,199,294,22333,24478,10514,13647,369,209,285,514,20642,14273,26071,25438,569,426,1221,5869,24787,31591,20511,28411,32636,26698,529,1049,7074,6700,4084,6508,8626,29742
645,6076,221,159,155,155,153,155,608,4489,203,158,157,157,155,160,477,4614,207,187,163,160,161,162,514,2691,190,184,163,163,167,168,201,295,22331,24487,10517,13658,369,209,285,513,20632,14272,26069,25441,570,423,1220,5868,24784,31580,20505,28401,32634,26695,533,1047,7063,6695,4082,6509,8621,29731
644,6082,219,160,157,157,158,154,608,4489,198,174,154,153,160,151,478,4618,209,186,163,161,161,161,511,2691,189,173,164,165,164,168,203,293,22346,24519,10514,13676,366,208,287,515,20636,14275,26076,25461,571,423,1223,5872,24781,31575,20495,28395,32633,26700,528,1046,7058,6693,4079,6507,8619,29737
647,6086,217,161,157,155,155,158,607,4489,199,163,157,156,153,156,477,4619,206,191,162,162,158,160,510,2695,187,172,162,162,163,167,199,293,22363,24554,10518,13693,369,209,285,514,20633,14279,26079,25487,571,424,1219,5880,24777,31586,20485,28391,32625,26696,529,1052,7050,6693,4080,6509,8619,29733
646,6095,220,158,155,157,155,155,606,4493,197,153,160,157,155,158,477,4623,205,189,161,162,161,162,511,2697,181,170,163,165,161,172,200,295,22385,24585,10516,13714,369,210,285,516,20642,14289,26106,25521,571,426,1223,5887,24781,31595,20472,28393,32627,26699,531,1048,7045,6694,4081,6509,8618,29740
646,6105,217,159,155,156,154,157,607,4495,198,157,156,158,155,156,480,4632,206,188,167,160,161,161,514,2699,186,171,165,168,167,169,201,294,22401,24619,10516,13731,369,209,285,514,20644,14296,26122,25552,573,424,1221,5895,24782,31607,20455,28387,32627,26703,533,1052,7039,6695,4080,6512,8619,29750
650,6109,217,156,155,155,155,155,609,4497,199,158,157,156,158,156,477,4636,206,188,165,161,157,160,511,2700,187,181,165,165,165,168,199,295,22415,24653,10515,13751,367,209,286,517,20652,14307,26147,25598,573,425,1223,5903,24781,31617,20444,28394,32634,26711,531,1052,7037,6693,4080,6518,8621,29763
649,6120,219,157,155,154,154,154,610,4501,199,157,157,154,155,155,480,4639,205,187,167,162,163,161,511,2702,187,171,165,163,164,171,198,297,22423,24689,10522,13778,369,210,286,517,20665,14327,26179,25639,575,426,1223,5911,24776,31625,20434,28399,32635,26719,530,1054,7040,6695,4080,6521,8621,29776
647,6127,218,159,156,154,153,154,607,4507,199,165,159,156,155,159,480,4646,207,188,161,165,160,160,512,2705,187,173,163,159,162,172,191,297,22438,24732,10522,13799,369,209,288,519,20683,14345,26207,25680,574,428,1225,5926,24782,31643,20425,28414,32642,26730,537,1056,7037,6696,4082,6523,8627,29791
648,6135,219,157,157,155,154,156,608,4510,199,159,159,156,153,159,477,4652,206,189,162,162,158,162,512,2709,187,173,168,163,164,169,200,297,22441,24764,10518,13819,371,209,287,520,20693,14358,26235,25729,575,426,1223,5936,24783,31655,20424,28426,32655,26746,530,1059,7040,6699,4086,6532,8628,29802
648,6145,219,157,159,154,154,156,607,4512,197,160,153,157,158,159,479,4658,206,188,161,165,165,160,511,2713,187,173,165,171,164,173,201,301,22458,24800,10516,13837,371,208,288,521,20715,14379,26262,25774,576,428,1227,5948,24790,31679,20420,28451,32663,26757,535,1060,7044,6701,4089,6534,8631,29827
648,6154,219,158,159,153,154,154,607,4519,199,159,160,153,156,156,478,4664,207,188,166,159,161,160,513,2713,187,172,164,166,165,169,201,300,22466,24829,10514,13859,374,210,286,522,20731,14397,26290,25808,576,427,1223,5959,24790,31689,20415,28460,32671,26759,532,1062,7047,6705,4090,6538,8637,29844
649,6161,218,157,157,153,153,153,611,4522,198,159,160,157,154,155,478,4672,206,192,162,164,162,160,512,2717,187,173,164,166,162,170,198,298,22477,24845,10532,13857,371,209,288,527,20731,14391,26311,25799,577,426,1225,5965,24801,31705,20431,28475,32669,26745,534,1064,7050,6705,4093,6538,8647,29833
649,6141,221,159,155,155,154,149,608,4520,202,159,156,155,157,154,478,4666,206,187,161,162,163,162,514,2715,190,174,168,164,164,168,201,297,22445,24719,10514,13746,369,208,286,522,20707,14364,26249,25679,575,424,1223,5940,24813,31671,20487,28485,32672,26742,531,1057,7059,6701,4093,6529,8635,29803
648,6129,217,157,158,154,154,155,607,4511,199,162,153,156,156,154,478,4657,210,187,163,165,160,160,512,2710,190,171,166,170,164,167,203,297,22396,24597,10497,13673,367,209,287,521,20696,14343,26194,25591,573,425,1227,5918,24804,31627,20511,28471,32669,26725,531,1054,7063,6699,4091,6527,8633,29767
646,6118,218,161,156,156,155,154,609,4504,203,162,159,157,159,151,479,4652,207,191,161,159,164,157,513,2704,188,171,169,168,163,175,198,298,22363,24510,10503,13629,367,209,287,517,20681,14323,26157,25531,573,423,1224,5899,24796,31594,20539,28469,32669,26717,530,1050,7057,6691,4087,6515,8628,29730
646,6113,219,156,156,153,153,153,608,4498,198,158,157,155,157,156,479,4648,205,188,165,164,164,164,515,2701,187,172,165,170,165,169,198,297,22341,24475,10497,13627,369,209,287,516,20672,14308,26133,25506,574,425,1224,5887,24789,31562,20550,28451,32663,26709,531,1050,7053,6687,4089,6516,8619,29703
647,6117,217,156,154,157,154,153,607,4496,199,155,154,160,154,155,478,4648,211,187,163,162,162,160,514,2697,186,175,164,166,164,172,199,299,22346,24485,10513,13642,367,211,289,517,20659,14305,26122,25510,573,423,1221,5887,24769,31543,20543,28437,32657,26702,529,1048,7046,6689,4085,6515,8611,29694
647,6117,217,157,152,155,153,157,608,4496,198,162,160,160,152,155,479,4651,207,185,162,159,161,158,514,2698,187,171,156,162,164,172,198,294,22353,24504,10515,13655,367,209,285,515,20652,14301,26129,25519,570,423,1223,5885,24762,31541,20530,28427,32646,26698,533,1048,7035,6687,4081,6511,8611,29683
646,6120,219,156,155,155,155,151,607,4493,199,156,157,156,155,158,477,4650,206,188,163,161,163,163,513,2698,188,171,164,166,165,173,198,294,22364,24532,10513,13670,368,208,288,516,20645,14300,26128,25535,573,424,1222,5889,24754,31540,20520,28419,32639,26692,530,1049,7029,6687,4084,6510,8607,29680
647,6127,219,159,159,153,154,157,607,4497,197,159,160,156,155,158,480,4652,205,188,164,162,162,157,511,2699,186,173,153,165,165,170,202,295,22381,24566,10514,13691,368,208,290,517,20655,14311,26144,25566,572,425,1224,5894,24755,31545,20503,28407,32635,26697,532,1050,7027,6686,4084,6514,8609,29686
644,6132,219,158,155,156,155,161,607,4497,201,159,157,157,157,154,476,4657,206,188,165,164,161,159,510,2698,187,172,166,166,163,170,197,296,22397,24606,10516,13711,368,210,288,519,20660,14325,26163,25603,574,425,1220,5899,24745,31557,20486,28398,32628,26702,529,1051,7021,6685,4081,6514,8607,29689
646,6139,220,157,150,156,155,156,607,4501,198,158,156,157,156,158,479,4659,207,189,167,159,159,158,512,2701,187,176,167,165,164,170,199,296,22415,24641,10517,13735,369,208,285,519,20673,14337,26194,25647,573,427,1223,5907,24741,31565,20464,28389,32628,26703,532,1053,7018,6684,4088,6520,8604,29702
647,6148,220,158,156,157,154,155,607,4503,200,157,157,157,154,152,477,4663,206,188,164,165,164,159,512,2702,188,173,170,166,164,165,197,298,22423,24678,10518,13757,369,209,288,518,20685,14350,26228,25693,577,426,1222,5915,24732,31574,20440,28376,32631,26707,530,1053,7015,6683,4082,6521,8608,29712
647,6157,219,157,159,159,153,155,607,4509,203,155,155,155,153,155,479,4672,209,186,163,162,161,160,515,2705,191,171,160,165,163,166,198,295,22439,24715,10522,13781,374,210,287,521,20698,14369,26259,25743,574,427,1224,5925,24735,31592,20423,28381,32630,26715,531,1054,7016,6688,4082,6523,8610,29731
649,6167,218,157,155,157,156,155,610,4513,202,157,157,157,159,159,478,4674,207,188,163,159,162,161,513,2708,189,171,167,165,168,161,199,298,22446,24751,10520,13800,370,210,286,522,20702,14374,26283,25788,577,428,1222,5934,24727,31604,20410,28384,32631,26719,531,1057,7013,6687,4087,6530,8620,29749
648,6177,217,156,156,159,156,157,608,4517,201,158,157,156,159,159,477,4681,206,192,167,162,159,158,511,2711,185,174,167,165,168,170,198,299,22455,24790,10524,13826,368,210,287,524,20721,14393,26317,25839,578,428,1227,5947,24727,31623,20401,28385,32639,26726,532,1058,7013,6689,4088,6535,8619,29773
649,6185,218,158,156,159,153,155,607,4523,198,159,157,159,159,154,475,4689,206,188,161,164,161,159,511,2717,186,174,163,175,167,165,198,299,22458,24824,10522,13848,370,212,290,525,20739,14415,26353,25891,580,429,1223,5960,24723,31642,20389,28406,32642,26735,530,1061,7017,6689,4090,6540,8623,29787
648,6194,219,159,156,156,157,154,607,4526,202,158,161,153,155,157,481,4696,205,189,161,161,160,164,513,2720,187,174,162,164,165,174,198,300,22471,24857,10529,13870,371,209,290,525,20758,14430,26397,25942,580,433,1226,5971,24729,31665,20381,28411,32648,26747,538,1062,7019,6693,4095,6545,8631,29811
648,6205,222,157,155,157,150,155,606,4531,204,157,156,156,155,157,477,4700,207,189,163,158,161,161,513,2724,189,171,160,164,165,170,200,301,22481,24896,10538,13891,373,212,287,527,20773,14444,26425,25971,581,429,1224,5983,24729,31683,20387,28425,32653,26738,532,1061,7022,6699,4093,6551,8638,29831
648,6189,218,159,153,152,156,153,611,4530,200,158,157,158,157,152,477,4699,207,188,166,159,159,161,512,2722,186,172,168,163,164,168,199,299,22465,24803,10539,13797,370,209,287,524,20734,14406,26394,25864,579,427,1224,5962,24743,31655,20429,28426,32651,26723,532,1059,7036,6696,4096,6545,8635,29786
647,6176,221,159,157,153,157,156,609,4523,205,158,157,156,157,156,478,4692,208,189,164,162,161,161,513,2718,191,175,161,157,174,167,198,303,22407,24677,10518,13719,369,207,288,523,20721,14383,26325,25768,577,426,1224,5939,24730,31616,20447,28400,32649,26711,530,1056,7039,6691,4095,6537,8633,29757
647,6161,219,158,155,155,158,152,609,4517,199,157,161,155,161,157,477,4686,210,191,162,162,161,164,512,2711,191,171,163,168,167,170,202,293,22366,24585,10515,13667,369,209,285,520,20709,14363,26293,25711,577,429,1222,5921,24723,31582,20470,28386,32646,26705,531,1053,7038,6686,4092,6531,8625,29723
648,6154,218,160,158,156,156,156,610,4511,202,162,160,159,156,158,479,4679,209,188,162,162,161,161,514,2709,188,170,168,163,165,167,199,297,22343,24532,10512,13652,371,210,287,517,20698,14350,26258,25676,575,429,1220,5906,24708,31555,20486,28383,32636,26698,531,1052,7033,6683,4093,6528,8617,29705
645,6155,217,157,156,153,153,150,611,4508,202,157,157,156,152,155,478,4676,205,188,163,164,161,161,513,2709,187,171,164,168,163,169,200,299,22337,24543,10523,13667,368,212,287,518,20696,14347,26261,25687,573,425,1221,5906,24681,31533,20477,28367,32631,26691,529,1050,7023,6683,4093,6527,8620,29694
647,6157,221,158,152,155,155,154,612,4505,201,156,157,155,152,154,480,4675,207,187,164,159,158,157,515,2707,191,181,163,168,163,168,199,298,22330,24546,10530,13677,369,210,286,519,20687,14340,26255,25688,575,426,1221,5905,24667,31524,20470,28362,32625,26688,530,1051,7021,6681,4093,6527,8610,29689
645,6155,221,157,156,158,154,150,608,4507,199,154,157,156,159,157,478,4677,206,192,163,161,161,165,514,2705,187,175,165,164,165,169,197,296,22333,24563,10532,13694,369,210,287,519,20675,14338,26259,25703,577,428,1222,5909,24662,31527,20466,28356,32623,26686,532,1048,7011,6678,4091,6529,8609,29683
645,6160,220,158,153,150,154,153,608,4506,201,157,155,152,156,155,476,4678,207,189,164,161,161,160,511,2706,191,172,163,164,167,169,199,300,22336,24595,10536,13714,367,210,286,521,20684,14348,26279,25741,575,426,1221,5913,24647,31527,20447,28353,32621,26686,531,1049,7010,6682,4091,6531,8608,29693
643,6164,219,157,159,154,154,155,610,4509,199,159,157,155,155,155,477,4679,209,188,164,165,161,160,513,2707,191,172,165,167,162,169,197,296,22352,24629,10539,13733,368,208,287,525,20690,14364,26308,25780,577,427,1221,5918,24640,31540,20437,28353,32615,26690,531,1053,7007,6681,4088,6531,8611,29700
645,6169,219,160,152,152,155,154,609,4513,199,158,157,154,151,155,477,4683,205,188,166,161,160,160,513,2709,187,171,165,163,164,169,202,298,22361,24661,10543,13752,369,211,288,518,20695,14371,26321,25816,577,427,1221,5925,24630,31547,20415,28343,32610,26694,531,1053,7004,6681,4090,6536,8611,29713
646,6172,217,159,155,155,153,156,610,4511,200,156,157,156,155,156,477,4684,209,187,167,163,161,160,511,2710,185,171,168,167,165,169,199,300,22379,24693,10535,13771,370,210,287,525,20706,14383,26347,25851,577,427,1222,5931,24624,31559,20403,28353,32615,26697,531,1056,6998,6677,4091,6538,8613,29727
646,6181,218,159,160,158,154,154,608,4516,199,159,161,160,155,159,476,4689,206,191,165,163,161,164,512,2713,187,171,165,165,166,169,200,298,22382,24729,10538,13791,369,207,288,523,20716,14399,26373,25898,577,430,1222,5942,24625,31575,20395,28351,32612,26707,530,1057,6997,6678,4093,6537,8615,29739
647,6187,219,160,158,153,153,154,608,4517,200,154,156,156,155,157,478,4692,206,188,164,166,162,164,512,2715,186,172,165,168,164,168,203,299,22396,24762,10534,13808,371,209,291,525,20731,14412,26397,25931,577,432,1223,5950,24625,31595,20386,28363,32616,26714,531,1057,6998,6679,4092,6543,8621,29754
646,6191,219,158,155,155,153,155,608,4519,200,163,153,155,155,155,477,4698,207,189,163,163,159,160,513,2717,186,173,165,163,166,169,199,302,22405,24797,10538,13829,375,206,287,527,20748,14433,26417,25977,580,429,1220,5960,24622,31614,20373,28375,32617,26719,532,1059,6999,6684,4097,6550,8623,29778
647,6198,218,158,155,156,153,156,610,4523,199,159,160,156,152,155,477,4703,206,188,161,162,161,159,511,2719,187,173,164,165,162,169,195,301,22420,24837,10546,13852,371,210,287,527,20767,14443,26447,26006,579,429,1223,5973,24631,31643,20378,28397,32625,26714,531,1061,7000,6683,4096,6554,8633,29786
645,6182,219,161,155,156,154,154,609,4524,200,162,156,156,152,156,477,4693,210,188,161,161,159,162,515,2721,188,173,168,164,165,169,199,301,22405,24757,10542,13759,369,209,287,526,20743,14421,26419,25904,578,428,1221,5953,24651,31625,20422,28394,32621,26702,531,1057,7009,6683,4094,6544,8623,29744
644,6167,216,157,158,157,154,154,609,4515,198,162,159,154,154,152,476,4687,209,188,164,162,160,160,513,2716,191,173,164,165,163,166,202,299,22360,24651,10519,13689,368,209,290,524,20730,14395,26362,25823,574,428,1223,5935,24638,31598,20438,28376,32617,26691,530,1055,7012,6679,4094,6535,8624,29719
643,6152,220,156,156,154,158,160,607,4507,199,156,156,152,157,158,476,4681,205,188,163,160,161,165,514,2710,189,174,163,168,166,167,198,298,22329,24577,10515,13646,369,209,289,520,20708,14372,26318,25764,575,427,1217,5919,24631,31564,20455,28369,32608,26681,529,1053,7013,6674,4092,6532,8615,29693
645,6143,218,158,156,154,155,153,609,4500,199,160,160,157,155,156,475,4675,207,187,162,165,160,160,513,2704,205,172,163,167,164,170,198,296,22319,24540,10519,13640,367,209,285,520,20695,14356,26290,25725,574,425,1220,5906,24625,31543,20467,28357,32604,26673,530,1049,7008,6670,4091,6529,8611,29677
643,6144,219,158,155,154,154,153,607,4501,199,157,156,156,159,158,473,4673,207,188,164,163,162,164,513,2702,187,172,164,164,164,168,199,298,22317,24565,10534,13665,367,207,285,519,20685,14351,26274,25721,575,426,1220,5907,24607,31539,20459,28347,32597,26672,527,1049,7002,6670,4089,6527,8610,29673
645,6143,219,157,157,153,154,155,607,4495,199,158,157,156,154,154,476,4674,209,187,161,162,161,159,512,2699,191,172,163,167,163,167,201,297,22332,24582,10538,13675,366,208,287,518,20680,14347,26257,25715,574,424,1220,5906,24602,31547,20455,28341,32594,26669,530,1049,6996,6667,4087,6527,8606,29664
644,6147,218,158,157,155,157,156,607,4494,198,158,159,155,156,155,477,4674,206,189,167,158,160,159,516,2699,187,172,164,169,162,172,203,302,22335,24605,10543,13693,368,211,286,521,20674,14344,26243,25717,573,423,1218,5910,24591,31543,20438,28327,32590,26672,532,1050,6986,6665,4086,6529,8605,29662
641,6151,217,161,163,156,155,154,605,4494,199,159,155,157,155,155,475,4674,207,187,163,164,161,160,511,2700,189,172,163,167,165,168,201,296,22348,24647,10543,13720,373,211,287,521,20678,14355,26244,25733,571,423,1222,5914,24591,31560,20422,28326,32589,26672,530,1052,6983,6665,4085,6529,8605,29670
645,6153,217,160,159,155,155,153,607,4499,201,163,160,156,155,155,475,4675,209,189,166,162,159,160,511,2699,186,171,163,164,167,171,197,296,22364,24687,10550,13743,371,211,284,518,20683,14363,26255,25759,572,423,1219,5922,24582,31571,20401,28316,32585,26673,529,1050,6974,6665,4086,6530,8606,29681
643,6163,218,158,151,154,154,154,607,4498,202,159,156,156,157,155,476,4679,206,189,167,164,165,161,510,2702,188,175,167,166,163,168,197,299,22378,24720,10553,13769,373,210,284,518,20692,14372,26270,25789,574,424,1221,5932,24585,31593,20388,28317,32587,26682,532,1054,6977,6665,4087,6535,8607,29691
645,6166,221,159,158,158,154,157,609,4503,200,157,161,159,157,159,474,4683,207,191,164,162,164,163,510,2703,186,172,164,165,163,167,197,295,22388,24763,10557,13791,368,207,283,519,20703,14387,26284,25824,575,425,1220,5937,24586,31615,20373,28316,32591,26687,528,1056,6973,6663,4087,6537,8609,29707
645,6172,219,160,159,155,156,155,608,4504,199,155,156,156,157,155,474,4688,207,189,163,162,159,159,510,2706,186,172,165,165,165,167,197,297,22402,24799,10557,13813,367,207,280,520,20725,14407,26299,25861,574,425,1222,5949,24593,31627,20356,28323,32594,26695,530,1056,6974,6666,4087,6541,8613,29728
643,6178,219,162,156,155,162,157,609,4510,199,160,157,156,159,156,475,4689,206,187,162,162,160,160,512,2708,187,174,168,164,162,168,200,299,22418,24835,10552,13827,369,207,284,523,20746,14431,26328,25898,579,425,1220,5959,24590,31649,20343,28332,32602,26705,530,1057,6973,6667,4088,6545,8619,29745
643,6183,217,158,156,154,157,156,608,4513,200,159,157,149,159,154,475,4695,204,191,163,165,162,159,513,2715,186,175,165,168,166,168,196,299,22428,24875,10554,13846,369,208,287,524,20774,14454,26351,25939,576,423,1222,5972,24595,31669,20338,28340,32610,26712,533,1062,6981,6675,4090,6549,8623,29767
645,6193,222,159,155,153,157,154,610,4518,203,157,156,152,159,158,476,4703,206,187,163,160,161,163,511,2715,189,172,163,163,161,168,197,299,22432,24907,10561,13873,369,207,284,526,20790,14464,26373,25969,575,427,1222,5984,24597,31691,20327,28359,32614,26714,531,1061,6979,6672,4093,6553,8631,29783
642,6176,217,158,155,157,154,155,608,4518,201,159,157,155,155,156,477,4697,206,191,166,161,162,164,513,2714,186,174,167,164,163,168,198,297,22438,24847,10571,13801,371,207,284,523,20766,14441,26351,25873,575,428,1223,5967,24620,31684,20377,28365,32617,26709,533,1057,6990,6675,4092,6548,8625,29739
643,6161,219,159,156,155,156,153,610,4510,200,157,153,152,153,159,476,4690,205,187,163,159,159,165,512,2708,189,171,163,166,164,169,198,298,22395,24725,10549,13713,366,207,283,522,20751,14414,26289,25779,573,423,1220,5946,24615,31655,20409,28357,32619,26699,531,1054,6995,6671,4092,6541,8622,29715
642,6145,214,156,158,156,156,153,608,4501,199,159,157,157,160,155,473,4680,205,188,163,161,163,161,511,2703,185,172,163,164,165,168,197,296,22358,24632,10546,13668,368,211,283,518,20734,14384,26237,25702,574,422,1220,5926,24610,31615,20435,28350,32617,26688,529,1050,6990,6667,4087,6534,8618,29685
642,6135,218,161,159,153,157,154,608,4496,201,162,160,159,157,162,478,4673,210,191,162,161,161,160,512,2699,186,172,168,167,164,167,197,296,22329,24578,10550,13643,367,207,281,515,20715,14363,26201,25647,571,420,1221,5911,24601,31593,20460,28347,32610,26683,529,1049,6987,6665,4087,6529,8611,29660
640,6135,216,159,155,146,154,153,608,4490,200,155,158,157,152,152,472,4671,205,188,161,160,161,160,512,2697,186,171,163,164,162,166,197,296,22328,24585,10555,13662,366,208,282,514,20705,14354,26183,25636,569,418,1219,5910,24590,31583,20454,28343,32607,26682,529,1048,6980,6665,4087,6533,8609,29655
640,6135,220,158,157,157,154,154,607,4488,199,156,157,159,153,164,473,4671,205,187,163,161,159,163,514,2695,188,172,162,165,163,167,199,295,22325,24595,10563,13674,367,206,280,513,20686,14341,26162,25624,569,420,1219,5909,24588,31587,20455,28338,32606,26682,531,1049,6980,6661,4085,6527,8602,29642
638,6135,217,157,159,149,157,155,609,4486,202,167,156,159,155,154,473,4671,205,187,162,160,160,160,512,2693,187,172,164,165,163,169,195,303,22331,24618,10568,13691,366,206,282,514,20689,14345,26159,25631,564,421,1217,5910,24583,31588,20444,28331,32599,26682,529,1048,6973,6662,4081,6529,8602,29647
641,6140,220,159,158,155,155,154,608,4489,203,159,155,158,160,160,473,4671,207,185,160,165,161,161,508,2693,189,175,168,163,162,172,200,293,22336,24656,10569,13712,368,210,281,514,20692,14349,26165,25647,573,421,1218,5913,24578,31595,20435,28325,32601,26685,529,1049,6967,6662,4083,6525,8603,29649
641,6143,221,157,154,158,154,153,605,4490,197,158,151,159,156,153,472,4676,206,189,162,161,164,160,509,2695,185,174,165,163,162,169,198,294,22351,24687,10571,13733,368,207,282,515,20696,14358,26177,25676,569,421,1220,5919,24578,31608,20421,28326,32599,26689,531,1049,6962,6661,4083,6529,8600,29660
641,6150,218,159,160,155,155,154,605,4491,198,159,157,157,152,156,472,4677,207,191,163,164,159,162,512,2695,187,171,163,163,164,168,198,297,22361,24723,10575,13753,368,209,282,516,20703,14362,26187,25704,570,423,1220,5927,24571,31619,20401,28319,32599,26697,532,1050,6961,6660,4082,6531,8603,29670
641,6158,218,158,155,162,155,151,609,4495,199,157,158,155,156,156,471,4682,206,188,163,162,161,160,510,2698,187,171,164,165,164,168,197,297,22369,24755,10574,13771,369,207,282,517,20714,14374,26213,25737,569,422,1221,5938,24579,31633,20388,28320,32601,26699,529,1051,6958,6659,4082,6533,8607,29687
641,6163,219,159,155,151,154,154,606,4500,202,157,155,155,155,151,473,4684,206,190,163,160,158,159,509,2697,187,171,163,164,164,171,197,296,22376,24790,10575,13790,370,212,283,518,20723,14386,26231,25767,572,421,1221,5943,24570,31649,20374,28321,32607,26709,529,1054,6957,6663,4084,6538,8609,29699
