 ECG Channel 
-12387.87322
-12376.0715
-12353.92092
-12338.67703
-12337.6265
-12351.77515
-12360.31352
-12356.78194
-12362.14636
-12377.63612
-12389.37079
-12387.53794
-12391.58361
-12421.84787
-12440.51158
-12438.187
-12439.5281
-12446.85947
-12450.83808
-12442.25501
-12436.15299
-12443.86434
-12452.11213
-12450.39105
-12443.28319
-12435.48243
-12443.39495
-12462.46099
-12417.7575
-12257.16022
-11945.01811
-11635.4688
-11587.94899
-11727.58034
-11970.02971
-12271.44298
-12426.54174
-12408.30271
-12424.41832
-12448.28998
-12453.43089
-12460.67285
-12476.54259
-12489.28308
-12488.83605
-12487.22672
-12494.46869
-12501.42008
-12496.77092
-12489.05957
-12490.89241
-12496.30153
-12491.25004
-12480.4765
-12481.19175
-12490.24421
-12490.62419
-12481.52703
-12478.82247
-12486.19854
-12485.52799
-12477.43666
-12477.54842
-12486.93615
-12488.27726
-12479.47067
-12472.00519
-12477.70488
-12483.27046
-12474.57564
-12468.54066
-12476.98962
-12486.93615
-12484.54451
-12477.79429
-12479.40361
-12484.81273
-12481.05764
-12469.32298
-12465.67964
-12469.56884
-12466.86428
-12457.05187
-12453.6097
-12458.37062
-12457.09657
-12445.9654
-12439.81867
-12441.27154
-12439.19282
-12425.73707
-12414.13652
-12412.90717
-12406.8722
-12390.26486
-12373.5234
-12369.50009
-12368.98599
-12356.9384
-12342.99092
-12338.85584
-12341.94038
-12338.34175
-12330.25042
-12331.39036
-12339.01231
-12338.36411
-12331.56917
-12335.39132
-12351.86456
-12362.77221
-12366.37084
-12376.65264
-12398.19972
-12418.74098
-12428.24047
-12438.58933
-12457.67772
-12474.91091
-12480.67766
-12485.32682
-12499.34137
-12512.75242
-12512.12657
0
-11825.30216
-11819.73658
-11804.73856
-11798.10009
-11801.13993
-11798.39066
-11785.09137
-11776.17303
-11777.35767
-11774.69781
-11758.26928
-11744.00887
-11740.20907
-11735.15758
-11716.8515
-11696.64552
-11689.3365
-11683.30153
-11666.29185
-11648.16459
-11640.69911
-11635.33469
-11622.19186
-11604.82456
-11597.38142
-11597.53789
-11591.83819
-11579.23181
-11575.87905
-11582.15989
-11585.31148
-11582.00342
-11588.55249
-11613.47468
-11640.56499
-11657.39586
-11677.17715
-11708.06726
-11735.87283
-11749.95443
-11761.64439
-11783.03501
-11805.2303
-11812.98635
-11815.22153
-11826.15153
-11841.19425
-11844.85994
-11843.13885
-11851.4537
-11865.51295
-11869.40215
-11865.11062
-11869.84919
-11885.07073
-11892.53621
-11886.90357
-11883.55081
-11894.16789
-11902.54979
-11897.40889
-11891.84331
-11898.45942
-11904.18147
-11898.30296
-11890.41279
-11891.86566
-11896.9395
-11891.82095
-11883.66257
-11885.92009
-11892.24564
-11889.09404
-11875.37007
-11870.74326
-11875.63829
-11873.58193
-11862.36136
-11857.68984
-11864.21655
-11864.66358
-11854.0018
-11847.94448
-11854.04651
-11855.67818
-11845.6646
-11838.78026
-11843.20591
-11847.6092
-11838.19912
-11829.28077
-11834.26521
-11841.39542
-11835.06988
-11824.13987
-11825.8386
-11833.4829
-11829.48194
-11816.98731
-11814.8639
-11822.82112
-11823.08934
-11812.04758
-11809.52183
-11817.72492
-11818.1049
-11808.33719
-11802.50338
-11809.45478
-11813.99218
-11805.74439
-11798.99416
-11805.54322
-11810.90764
-11802.90571
-11794.36735
-11798.8824
-11808.18073
-11803.57627
-11794.63557
-11798.45772
-11809.32067
-11810.55001
-11805.09619
-11805.11854
-11814.64038
-11816.54028
-11805.63263
-11798.10009
-11802.90571
-11804.93972
-11797.04956
-11794.59087
-11803.26334
-11809.0748
-11801.40815
-11792.31099
-11795.39553
-11801.09522
-11795.70845
-11787.48301
-11791.97571
-11801.63167
-11799.24003
-11791.28281
-11793.138
-11800.24586
-11797.22837
-11787.05833
-11782.09624
-11785.69487
-11782.94561
-11770.6745
-11761.35382
-11763.23137
-11758.69396
-11736.52103
-11712.3588
-11699.43949
-11693.56098
-11680.75343
-11673.66793
-11682.74274
-11691.25875
-11690.31998
-11692.80102
-11707.50847
-11721.56772
-11733.74942
-11751.80963
-11765.26538
-11779.6599
-11785.02432
-11780.17399
-11782.43152
-11794.41205
-11798.9271
-11793.54033
-11793.16035
-11804.35858
-11807.42077
-11793.94267
-11787.75123
-11819.13308
-11822.26233
-11697.74076
-11409.78323
-11047.21559
-10911.40639
-11016.52664
-11240.69229
-11555.4272
-11786.72305
-11779.6599
-11765.71241
-11786.92422
-11809.0748
-11818.44018
-11819.26719
-11828.07378
-11843.7647
-11848.05624
-11838.42264
-11836.52274
-11845.08346
-11847.58685
-11839.29435
-11833.86288
-11839.71904
-11845.73166
-11839.9202
-11832.11944
-11835.94159
-11842.69182
-11838.10971
-11827.76085
-11831.09126
-11839.13789
-11835.85219
-11824.47515
-11822.99993
-11827.0456
-11821.79294
-11808.09132
-11802.70455
-11808.89598
-11806.77257
-11792.86978
-11784.84551
-11788.06416
-11788.75706
-11778.45291
-11768.10405
-11769.31104
-11772.19442
-11759.7445
-11747.16046
-11747.6522
-11748.50157
-11736.65514
-11721.36655
-11716.53857
-11717.63381
-11704.78156
-11685.06732
-11674.78552
-11668.79525
-11654.24426
-11632.40661
-11617.72151
-11613.83231
-11604.35517
-11584.9315
-11570.7605
-11571.11812
-11568.8159
-11554.89076
-11546.24063
-11551.02391
-11554.1755
-11546.21828
-11539.55746
-11548.54286
-11567.09481
-11576.75076
-11585.24443
-11609.40666
-11638.24041
-11655.58537
-11664.68253
-11683.70386
-11708.58135
-11721.23244
-11726.39569
-11739.67263
-11757.37521
-11766.67354
-11762.58317
-11763.45489
-11776.4189
-11788.73471
-11788.48884
-11787.70653
-11796.20019
-11804.38093
-11800.37997
-11793.47328
-11798.94946
-11809.23126
-11806.07966
-11799.10592
-11804.47034
-11815.64621
-11816.45087
-11807.28666
-11807.33136
-11815.60151
-11816.36147
-11806.41494
-11805.07383
-11815.22153
-11817.83668
-11804.85032
-11798.48007
-11808.87363
-11814.48392
-11804.0233
-11793.83091
-11797.83187
-11804.35858
-11800.827
-11795.14966
-11797.42954
-11801.72107
-11798.59183
-11790.96988
-11795.46258
-11806.54905
-11806.66081
-11796.78134
-11797.16132
-11805.275
-11804.76091
-11793.92031
-11790.85812
-11800.75995
-11802.52574
-11791.77455
-11783.12442
-11787.70653
-11792.64626
-11783.23618
-11776.15068
-11781.47039
-11788.33238
-11782.54328
-11775.65894
-11781.91743
-11792.55686
-11790.79107
-11780.41986
-11779.21287
-11786.34307
-11785.31489
-11775.18955
-11771.14389
-11780.01753
-11781.47039
-11771.12153
-11770.42863
-11778.92229
-11783.12442
-11773.62493
-11767.50055
-11774.00491
-11781.02336
-11774.60841
-11767.14292
-11773.42376
-11779.59285
-11774.29548
-11766.07004
-11768.39462
-11777.73765
-11775.52483
-11765.39949
-11767.79112
-11778.58702
-11775.99421
-11766.20415
-11764.9748
-11774.83192
-11776.21773
-11767.76877
-11765.04186
-11775.23426
-11781.13512
-11772.75321
-11767.16528
-11772.77556
-11779.27992
-11770.071
-11762.00202
-11768.7746
-11774.04961
-11763.38783
-11753.10603
-11747.33928
-11740.90198
-11722.55119
-11703.50751
-11702.09935
-11709.72129
-11714.05753
-11707.93315
-11710.57066
-11727.0886
-11742.33249
-11745.97582
-11751.72022
-11782.09624
-11800.827
-11796.53547
-11796.71428
-11810.10298
-11819.13308
-11812.76283
-11806.28083
-11809.94651
-11819.62482
-11814.03688
-11804.71621
-11802.88336
-11798.97181
-11804.53739
-11817.18848
-11772.6191
-11623.66708
-11330.38984
-11037.22436
-10983.35665
-11147.06083
-11405.82697
-11716.02448
-11808.18073
-11779.95047
-11781.64921
-11781.5598
-11786.0972
-11802.41398
-11817.5014
-11817.94844
-11815.5121
-11821.36826
-11828.65492
-11824.76572
-11817.12142
-11821.12239
-11829.25842
-11825.36922
-11813.96983
-11811.68995
-11820.74241
-11821.03298
-11812.85224
-11811.37703
-11817.25553
-11818.46253
-11810.23709
-11805.09619
-11809.723
-11811.57819
-11802.1234
-11794.09913
-11798.77064
-11801.49755
-11792.89213
-11783.61616
-11785.51606
-11791.08164
-11783.39264
-11772.48499
-11772.79792
-11777.26826
-11770.83096
-11757.17405
-11752.43548
-11755.14004
-11747.62985
-11732.85535
-11724.83107
-11727.20036
-11721.79123
-11704.69215
-11688.80006
-11687.30249
-11684.55323
-11670.40457
-11656.79236
-11653.73017
-11647.31522
-11628.96444
-11611.97711
-11608.02085
-11608.602
-11598.23079
-11583.32218
-11581.19876
-11586.76435
-11584.55152
-11574.71676
-11575.70023
-11590.09476
-11595.36977
-11593.51457
-11604.31047
-11628.07037
-11650.53387
-11664.72723
-11677.02069
-11700.57943
-11725.00989
-11734.867
-11743.36067
-11760.3927
-11777.02239
-11780.68808
-11780.17399
-11792.10982
-11804.17976
-11805.61028
-11802.39162
-11808.94069
-11820.80946
-11825.1904
-11817.30024
-11817.99314
-11827.0009
-11827.60439
-11816.74144
-11815.42269
-11824.87748
-11828.05143
-11821.32355
-11817.5014
-11824.69867
-11829.30313
-11821.68118
-11814.23805
-11817.05437
-11820.51889
-11812.24874
-11801.00582
-11801.83283
-11809.25361
-11805.38676
-11797.20602
-11799.24003
-11806.99608
-11804.22447
-11795.77551
-11795.90962
-11802.19046
-11800.69289
-11789.62878
-11784.93491
-11793.0933
-11797.42954
-11788.91352
-11784.8008
-11792.40039
-11798.99416
-11793.85326
-11787.57242
-11794.70262
-11805.54322
-11802.30222
-11794.41205
-11798.61418
-11805.81144
-11801.29639
-11790.5005
-11791.66279
-11799.35179
-11797.92128
-11788.53354
-11789.62878
-11799.39649
-11802.90571
-11793.87561
-11790.05346
-11796.9378
-11799.50825
-11794.45676
-11795.10496
-11804.82796
-11813.52279
-11808.96304
-11803.82214
-11811.30997
-11818.88721
-11815.93678
-11809.29831
-11813.99218
-11822.95523
-11823.06699
-11816.94261
-11820.09421
-11831.583
-11831.96298
-11822.41879
-11819.69187
-11823.2458
-11824.22928
-11813.07576
-11806.03496
-11811.51114
-11806.70551
-11785.49371
-11766.29356
-11759.96801
-11765.15362
-11758.24693
-11750.13325
-11760.41505
-11773.46847
-11775.59188
-11781.5598
-11800.84935
-11816.98731
-11831.42654
-11844.39055
-11850.24671
-11862.87545
-11866.56348
-11858.47215
-11854.65
-11860.68497
-11863.56835
-11856.08051
-11851.20783
-11855.54407
-11857.01929
-11840.5237
-11830.86775
-11856.34874
-11861.98138
-11751.4073
-11515.79756
-11195.72058
-11029.53536
-11108.16879
-11314.94478
-11626.39399
-11859.23211
-11847.31863
-11813.20987
-11821.63648
-11838.6238
-11849.4197
-11849.26323
-11854.78411
-11867.54696
-11872.59845
-11868.75395
-11868.93277
-11877.20291
-11883.72962
-11877.717
-11872.82197
-11880.95801
-11886.45654
-11880.8239
-11872.66551
-11876.80058
-11884.86956
-11882.38852
-11875.1689
-11878.65578
-11885.87539
-11883.52846
-11875.95122
-11877.56054
-11885.49541
-11884.78015
-11873.53723
-11870.34093
-11876.57706
-11874.38659
-11861.26612
-11852.88422
-11858.4945
-11861.42258
-11849.86673
-11839.16024
-11843.38472
-11847.13982
-11836.38863
-11823.894
-11822.93288
-11826.06212
-11819.26719
-11803.88919
-11797.25072
-11800.49173
-11793.11565
-11775.8601
-11767.63466
-11768.88636
-11760.41505
-11740.09731
-11725.81455
-11721.27714
-11713.31992
-11694.52211
-11679.97112
-11681.11106
-11680.86519
-11672.72916
-11668.52703
-11675.1655
-11684.17325
-11679.63584
-11676.4619
-11690.05176
-11709.14015
-11721.3889
-11731.22367
-11753.3966
-11784.51023
-11807.89015
-11819.60247
-11836.00865
-11856.77342
-11868.93277
-11870.25152
-11876.80058
-11891.21746
-11900.91811
-11900.20286
-11900.1358
-11909.0765
-11917.83838
-11915.58086
-11912.9657
-11921.83935
-11929.21542
-11923.24751
-11915.40204
-11918.82186
-11926.98025
-11921.01233
-11912.33986
-11912.98806
-11920.49824
-11918.44188
-11908.20478
-11904.49439
-11908.76358
-11907.7354
-11897.34184
-11893.67615
-11901.78983
-11904.33793
-11894.43611
-11887.9541
-11893.7432
-11899.53231
-11890.47985
-11883.32729
-11890.07752
-11898.97351
-11896.11249
-11889.74224
-11891.32922
-11898.2359
-11896.73834
-11889.02699
-11892.58091
-11900.62754
-11898.45942
-11887.9541
-11888.19997
-11899.93464
-11901.94629
-11891.08335
-11889.60813
-11896.58188
-11897.56535
-11889.04934
-11884.80251
-11892.22329
-11897.67711
-11893.36322
-11888.49054
-11894.77138
-11904.47204
-11901.54396
-11892.37975
-11894.05613
-11902.50509
-11900.44873
-11888.80347
-11889.36226
-11898.97351
-11900.1358
-11891.53038
-11887.3059
-11894.81609
-11898.59353
-11890.70337
-11889.33991
-11898.52648
-11902.66155
-11898.21355
-11896.73834
-11905.12024
-11910.48466
-11902.25922
-11897.29713
-11905.05319
-11912.56337
-11906.37194
-11898.97351
-11902.41568
-11911.15521
-11909.81411
-11901.27574
-11905.00848
-11913.32333
-11911.82577
-11904.24852
-11903.84619
-11911.75871
-11915.37969
-11907.64599
-11901.27574
-11908.65182
-11913.77037
-11906.28253
-11901.3875
-11907.98127
-11915.75967
-11911.31168
-11905.14259
-11911.6693
-11921.48172
-11919.51477
-11909.21061
-11907.80245
-11913.43509
-11906.79662
-11892.51386
-11889.74224
-11890.23398
-11874.87833
-11846.64808
-11830.95715
-11836.29922
-11835.60632
-11829.72781
-11829.41488
-11839.71904
-11849.59851
-11853.66653
-11860.55086
-11874.56541
-11898.30296
-11913.88213
-11914.28446
-11922.59931
-11933.01522
-11931.24943
-11923.64984
-11926.91319
-11938.4914
-11936.81502
-11927.76256
-11926.82379
-11929.99773
-11917.9725
-11913.65861
-11931.40589
-11893.92202
-11722.32768
-11376.56854
-11061.45365
-11043.90753
-11210.04804
-11462.08632
-11768.48403
-11900.15815
-11878.87929
-11882.05324
-11889.98811
-11902.79566
-11918.95597
-11924.29804
-11923.851
-11931.85293
-11943.0735
-11945.08516
-11939.8772
-11941.95592
-11951.47776
-11954.67406
-11948.52733
-11947.63326
-11958.3621
-11963.07832
-11954.40584
-11949.08612
-11955.18815
-11959.16676
-11951.9248
-11943.78876
-11948.19205
-11954.36114
-11949.98019
-11941.39712
-11944.74989
-11953.71293
-11951.05308
-11941.10655
-11941.55359
-11950.6731
-11948.79555
-11936.88207
-11932.54583
-11939.16195
-11937.21735
-11923.04634
-11916.25141
-11921.23585
-11920.02886
-11904.71791
-11891.32922
-11892.98325
-11892.53621
-11880.80154
-11868.6422
-11866.42937
-11866.00469
-11852.14661
-11833.50525
-11827.55969
-11826.21858
-11814.70744
-11795.99903
-11787.14774
-11787.14774
-11778.65407
-11761.53264
-11755.65413
-11760.77268
-11761.89026
-11754.13421
-11750.53558
-11758.71632
-11762.67257
-11756.10116
-11755.2965
-11769.93689
-11786.54424
-11795.0379
-11807.06314
-11830.13014
-11855.83465
-11870.98913
-11881.31563
-11901.81218
-11924.90154
-11933.81988
-11935.63037
-11942.73823
-11957.78095
-11964.28531
-11959.23382
-11964.48648
-11978.59043
-11984.69245
-11978.09869
-11978.12104
-11990.66037
-11999.04227
-11995.28718
-11994.23665
-12006.77598
-12017.84009
-12014.97907
-12009.18996
-12016.0743
-12025.19381
-12020.07526
-12012.85565
-12017.05778
-12026.42316
-12026.15494
-12019.94115
-12021.19285
-12030.60294
-12030.04414
-12019.53882
-12015.78373
-12023.53978
-12025.7079
-12016.6778
-12014.1744
-12023.09275
-12029.01596
-12021.1258
-12014.53203
-12021.63989
-12028.50187
-12022.93629
-12016.47663
-12022.17633
-12028.2113
-12021.70694
-12014.86731
-12018.10831
-12026.60197
-12024.3668
-12013.03446
-12014.64379
-12023.85271
-12022.64571
-12013.70502
-12013.95089
-12021.8634
-12022.24338
-12014.86731
-12011.60395
-12019.36001
-12022.19868
-12013.5262
-12008.02767
-12014.71085
-12021.19285
-12013.07917
-12002.41739
-12004.31728
-12012.25215
-12008.69823
-12000.96452
-12005.41252
-12016.58839
-12012.81095
-12001.12098
-12002.5515
-12014.62144
-12014.35322
-12004.96548
-12002.6409
-12008.80998
-12007.91592
-11998.7517
-11995.46599
-12004.16082
-12009.14526
-12002.17152
-11994.79544
-12000.85276
-12006.97714
-11999.95869
-11990.77213
-11995.48835
-12004.96548
-12002.05976
-11995.44364
-11999.19873
-12007.91592
-12007.62534
-11996.02479
-11994.68368
-12002.05976
-12001.67978
-11993.29787
-11992.89554
-12002.14916
-12005.43487
-11996.33771
-11990.86153
-11997.38824
-12001.03158
-11995.48835
-11990.68272
-11999.55636
-12007.6924
-12002.90912
-11994.81779
-11998.66229
-12005.97131
-12000.60689
-11993.29787
-11995.82362
-12005.50193
-12006.41835
-11997.54471
-11999.66812
-12008.60882
-12007.7371
-11992.94025
-11986.21237
-11988.73812
-11984.55834
-11972.57781
-11959.92672
-11953.89175
-11941.44183
-11916.83256
-11903.84619
-11910.14938
-11917.48076
-11916.98902
-11909.76941
-11920.6547
-11942.91704
-11957.46803
-11959.97142
-11975.12591
-12008.58647
-12020.567
-12014.93436
-12015.58256
-12025.03735
-12024.81383
-12015.76138
-12011.20162
-12017.72833
-12020.92463
-12014.62144
-12007.96062
-12004.38434
-12008.3853
-12026.9596
-12008.92174
-11890.74807
-11616.78274
-11252.33755
-11115.14254
-11238.05478
-11475.92205
-11792.73567
-11986.97233
-11972.24253
-11975.14826
-11992.3591
-11998.03644
-12011.55925
-12031.51936
-12041.57764
-12041.17531
-12044.30455
-12056.57566
-12062.07419
-12054.74282
-12051.03243
-12062.61063
-12071.59603
-12067.55037
-12066.72335
-12074.83704
-12085.16354
-12081.58726
-12073.96532
-12078.05569
-12087.93516
-12085.16354
-12074.16649
-12072.60186
-12080.38027
-12079.57561
-12067.32685
-12061.60481
-12068.73501
-12073.02655
-12063.99644
-12061.00131
-12071.59603
-12076.13344
-12066.0081
-12058.07323
-12062.32006
-12066.16456
-12055.8157
-12043.87987
-12045.39979
-12050.11601
-12039.49893
-12023.29392
-12020.54465
-12023.1151
-12014.19676
-12000.58454
-11997.20943
-11999.48931
-11992.13558
-11975.0812
-11964.46412
-11965.13468
-11961.11136
-11945.19692
-11931.13767
-11927.09201
-11921.77229
-11908.36125
-11901.58867
-11905.38846
-11908.69652
-11900.7393
-11891.28451
-11897.45359
-11907.04249
-11903.95795
-11900.91811
-11912.20575
-11930.66829
-11944.16874
-11952.34948
-11972.19783
-11998.50583
-12017.16954
-12024.65737
-12036.57085
-12055.23456
-12069.38321
-12070.07612
-12073.98767
-12088.35984
-12097.30054
-12091.80201
-12087.44342
-12096.09355
-12106.01772
-12104.36369
-12100.78741
-12108.3423
-12117.01478
-12113.57261
-12103.98371
-12106.48711
-12116.41128
-12116.70186
-12107.35883
-12107.55999
-12118.89233
-12121.1722
-12113.88554
-12107.53764
-12113.81848
-12116.79126
-12106.353
-12098.23931
-12102.88848
-12107.13531
-12098.19461
-12091.93612
-12098.64165
-12106.66592
-12102.19557
-12094.88655
-12097.63582
-12103.11199
-12101.12269
-12093.50074
-12095.02066
-12101.48032
-12100.22862
-12093.27723
-12092.40551
-12103.31316
-12107.11296
-12101.59208
-12099.28985
-12107.73881
-12111.20333
-12104.87778
-12099.42396
-12104.02842
-12107.67175
-12100.74271
-12094.19365
-12099.51336
-12106.353
-12101.63678
-12094.32776
-12098.28402
-12108.45406
-12107.6494
-12097.54641
-12098.19461
-12104.29664
-12102.30733
-12095.08772
-12094.55128
-12105.63774
-12106.93414
-12096.45117
-12090.03622
-12092.8749
-12094.28306
-12087.24226
-12082.14606
-12088.24808
-12093.36663
-12085.8341
-12076.9381
-12079.66501
-12085.78939
-12081.63197
-12073.76415
-12075.50759
-12078.99446
-12074.70293
-12066.47749
-12068.42209
-12077.18397
-12077.51925
-12067.84094
-12066.07515
-12075.26172
-12079.12857
-12072.31129
-12070.94783
-12079.5309
-12084.64945
-12076.51342
-12070.85843
-12076.20049
-12075.55229
-12065.09168
-12056.79918
-12056.44155
-12058.90024
-12046.2268
-12020.61171
-12004.80902
-11996.82945
-11992.71673
-11983.79838
-11983.73133
-11996.78475
-11996.91886
-11988.64871
-11998.90816
-12019.73999
-12028.05484
-12032.79341
-12048.61844
-12061.40364
-12067.77389
-12063.66117
-12059.74961
-12063.72822
-12065.87399
-12059.50374
-12054.36284
-12058.94495
-12065.98575
-12058.78849
-12037.21905
-12034.08981
-12055.83806
-12041.06355
-11917.4137
-11679.81466
-11387.69971
-11251.48818
-11347.35481
-11570.06759
-11893.0503
-12067.908
-12022.95864
-11995.53305
-12003.69144
-12015.91784
-12020.23173
-12024.88089
-12034.40273
-12041.35412
-12035.9003
-12029.75357
-12035.47562
-12042.04703
-12036.34733
-12028.43482
-12030.22296
-12038.04607
-12036.90613
-12027.49604
-12028.65833
-12038.60486
-12038.00136
-12029.10537
-12024.81383
-12030.44647
-12032.72635
-12023.04805
-12016.94602
-12023.69625
-12025.77496
-12017.43776
-12010.57577
-12018.04126
-12023.24921
-12013.97324
-12003.95966
-12004.85373
-12008.83234
-12001.12098
-11989.43102
-11990.34744
-11994.10254
-11984.40188
-11971.10259
-11966.81106
-11968.66625
-11964.41942
-11949.71197
-11938.91608
-11940.92774
-11939.49723
-11926.28734
-11913.34568
-11910.9317
-11906.23783
-11889.22815
-11872.26318
-11867.88224
-11863.47894
-11849.24088
-11833.59466
-11831.47124
-11835.3381
-11827.82791
-11817.72492
-11821.23415
-11830.15249
-11828.74433
-11821.88235
-11826.73267
-11841.8201
-11850.85021
-11854.27002
-11867.36815
-11893.56439
-11916.22906
-11926.24264
-11940.61481
-11966.36402
-11988.5593
-11996.60593
-12002.6409
-12017.99655
-12034.96153
-12038.69427
-12037.37551
-12048.99842
-12063.52706
-12062.8565
-12057.53679
-12064.44348
-12076.66988
-12078.27921
-12073.76415
-12074.92644
-12085.90115
-12089.52213
-12081.14023
-12079.79913
-12088.58336
-12093.21017
-12085.90115
-12082.50369
-12090.19269
-12095.28888
-12089.29862
-12084.82827
-12091.91377
-12098.57459
-12094.08189
-12087.84575
-12093.97013
-12103.26846
-12100.80976
-12092.76314
-12094.84185
-12105.01189
-12107.6941
-12103.64844
-12106.62122
-12116.81361
-12122.84858
-12118.02061
-12117.35006
-12128.66004
-12133.9574
-12126.55897
-12124.50261
-12137.7125
-12148.86602
-12146.58614
-12140.55117
-12146.87671
-12155.7727
-12153.7834
-12149.96125
-12159.93013
-12172.87179
-12174.10114
-12165.9651
-12170.36839
-12185.20995
-12185.92521
-12177.09627
-12177.34214
-12186.19343
-12189.56854
-12179.80083
-12173.31882
-12179.33144
-12183.1983
-12175.30813
-12166.52389
-12170.77073
-12176.67159
-12171.26246
-12163.84168
-12167.01563
-12172.49181
-12165.94275
-12155.70565
-12155.66095
-12160.60068
-12156.75618
-12148.55309
-12147.3461
-12154.4763
-12153.15755
-12141.42288
-12137.77955
-12143.34513
-12144.35096
-12135.1644
-12130.93992
-12137.93601
-12138.80773
-12128.23536
-12119.74169
-12122.96034
-12127.45304
-12119.40642
-12109.97398
-12111.94093
-12117.95355
-12114.64549
-12108.20819
-12111.58331
-12120.07697
-12118.24413
-12104.05077
-12099.69218
-12106.37535
-12100.87682
-12083.3754
-12076.53577
-12073.02655
-12057.26857
-12030.51353
-12013.39209
-12017.54952
-12019.80704
-12015.13553
-12013.23563
-12023.02569
-12036.90613
-12039.0966
-12037.48727
-12050.49599
-12082.0343
-12093.03136
-12086.12467
-12091.91377
-12104.56486
-12105.32482
-12092.2267
-12090.03622
-12098.12756
-12097.94874
-12088.60571
-12084.94003
-12085.56588
-12077.89923
-12082.97307
-12086.50465
-12012.63213
-11802.57044
-11442.37208
-11209.26573
-11263.66988
-11461.37106
-11741.59488
-12010.3299
-12051.63593
-12031.4076
-12040.79533
-12045.71271
-12055.25691
-12070.05376
-12075.55229
-12071.52898
-12075.30642
-12087.73399
-12091.35498
-12081.81078
-12080.31322
-12090.99735
-12096.13825
-12086.32583
-12081.07317
-12088.13633
-12092.74079
-12084.67181
-12079.93324
-12085.72234
-12090.12563
-12081.36375
-12072.93714
-12077.18397
-12084.00125
-12077.56395
-12064.89051
-12063.70587
-12068.46679
-12064.39877
-12049.78073
-12044.63983
-12049.44546
-12048.46198
-12036.70496
-12030.55823
-12035.945
-12034.76036
-12020.94698
-12009.18996
-12011.13457
-12011.42514
-11999.48931
-11988.20168
-11986.21237
-11986.74881
-11972.75662
-11954.18232
-11946.69449
-11942.78293
-11929.48364
-11909.38943
-11900.24756
-11899.57701
-11890.36809
-11872.10672
-11859.92501
-11859.43328
-11852.41483
-11837.3274
-11831.51595
-11839.29435
-11840.25548
-11829.57135
-11822.95523
-11830.2866
-11837.88619
-11835.53926
-11834.0864
-11848.19035
-11866.40702
-11874.65481
-11879.23692
-11897.05126
-11922.01816
-11935.78684
-11940.83833
-11956.5069
-11978.25515
-11986.34648
-11985.363
-11993.63315
-12010.12874
-12016.76721
-12013.23563
-12011.73806
-12022.08692
-12029.61946
-12025.95377
-12025.19381
-12034.71566
-12043.87987
-12039.0519
-12029.06067
-12032.63694
-12041.7341
-12038.33664
-12029.95474
-12034.91682
-12045.31038
-12041.51059
-12029.79827
-12029.44064
-12035.05093
-12032.45813
-12023.78565
-12023.51743
-12031.02762
-12031.47465
-12022.31044
-12019.96351
-12027.76426
-12032.34637
-12024.65737
-12021.05874
-12028.41246
-12034.93917
-12031.02762
-12026.3561
-12033.82159
-12043.38813
-12040.75063
-12035.40856
-12044.43867
-12059.99548
-12060.55427
-12052.66411
-12054.98869
-12065.71753
-12071.149
-12065.22579
-12066.83511
-12079.24033
-12084.87297
-12081.36375
-12081.27434
-12091.13146
-12100.92152
-12096.96526
-12094.28306
-12107.6941
-12117.99826
-12114.17611
-12110.30926
-12119.49582
-12130.38112
-12130.31407
-12125.97783
-12131.4093
-12142.78634
-12143.81452
-12137.17605
-12140.79704
-12151.36941
-12153.96221
-12148.75426
-12149.91655
-12161.00301
-12166.05451
-12159.10311
-12156.08563
-12167.12739
-12175.5987
-12170.27899
-12166.45684
-12176.40336
-12185.36641
-12182.37128
-12175.44224
-12180.60549
-12188.85329
-12188.83093
-12185.34406
-12191.64725
-12202.62196
-12201.68319
-12196.0729
-12198.79981
-12209.17102
-12211.27209
-12205.79591
-12207.47229
-12216.65886
-12218.46935
-12207.94168
-12202.73372
-12209.77452
-12214.75896
-12209.28278
-12203.89601
-12207.20407
-12208.2099
-12198.41983
-12184.94173
-12181.18664
-12183.91355
-12169.49668
-12140.61822
-12122.71447
-12114.89136
-12107.93997
-12097.59111
-12097.99345
-12109.86222
-12110.93511
-12106.33065
-12115.56192
-12130.62699
-12139.76886
-12151.95056
-12164.64635
-12175.53165
-12182.6395
-12177.05157
-12169.58608
-12171.84361
-12174.83874
-12167.64148
-12156.24209
-12157.80671
-12162.61234
-12151.16825
-12127.74362
-12137.93601
-12167.23915
-12112.70089
-11911.42343
-11548.49816
-11276.41037
-11281.59598
-11443.3332
-11712.22469
-12019.78469
-12094.55128
-12054.38519
-12059.63785
-12079.73207
-12094.50657
-12096.04884
-12097.05467
-12107.11296
-12117.283
-12113.57261
-12104.72132
-12108.38701
-12116.21012
-12114.24316
-12104.58721
-12103.7602
-12109.30343
-12107.29177
-12095.66886
-12090.10328
-12095.89238
-12095.60181
-12084.22477
-12080.20146
-12084.82827
-12082.86131
-12068.77972
-12062.07419
-12066.16456
-12068.35503
-12059.41433
-12046.76325
-12045.19862
-12050.18306
-12042.20349
-12028.74774
-12026.42316
-12032.41343
-12026.11023
-12015.20258
-12015.3814
-12021.97516
-12018.48829
-12002.79737
-11992.51556
-11992.06853
-11987.15114
-11971.48257
-11962.51952
-11963.43594
-11958.83148
-11941.48653
-11925.86266
-11920.36413
-11914.79855
-11896.98421
-11879.39338
-11874.18543
-11871.59263
-11861.57904
-11844.70348
-11839.13789
-11842.87063
-11840.16607
-11828.16319
-11827.6491
-11836.90272
-11837.08153
-11827.15736
-11824.43044
-11836.70155
-11846.62573
-11850.38082
-11861.71315
-11886.92592
-11911.6246
-11926.01912
-11941.44183
-11965.98404
-11985.69828
-11990.21333
-11992.29205
-12004.89843
-12020.90228
-12024.23269
-12021.66224
-12026.15494
-12035.87795
-12038.40369
-12032.36872
-12035.45326
-12048.46198
-12052.73116
-12043.18697
-12043.14226
-12054.04992
-12060.46487
-12052.93233
-12049.93719
-12057.15681
-12063.08002
-12056.28509
-12051.03243
-12056.19568
-12063.23648
-12055.48043
-12047.61261
-12051.18889
-12055.50278
-12048.05965
-12037.50962
-12040.03537
-12049.31135
-12044.72924
-12035.60973
-12039.90126
-12049.02077
-12048.97607
-12038.82838
-12036.99553
-12047.21028
-12048.99842
-12039.96832
-12036.21322
-12046.40562
-12052.03826
-12046.94206
-12042.76228
-12052.19472
-12061.18012
-12055.05574
-12046.7856
-12052.01591
-12060.17429
-12055.94981
-12047.88083
-12050.89832
-12059.95078
-12058.85554
-12052.01591
-12055.23456
-12065.38225
-12065.42695
-12054.85458
-12054.58636
-12065.04697
-12066.67865
-12057.98382
-12057.93912
-12069.78554
-12074.90409
-12070.21023
-12065.98575
-12071.86426
-12079.03917
-12078.01099
-12071.23841
-12072.71362
-12081.18493
-12080.35792
-12073.36182
-12072.60186
-12080.00029
-12078.05569
-12071.26076
-12072.66892
-12083.62127
-12086.12467
-12079.66501
-12077.29573
-12085.65528
-12091.19851
-12084.76121
-12080.35792
-12086.39289
-12091.86907
-12085.32001
-12080.24616
-12080.98377
-12084.06831
-12075.86522
-12063.19178
-12064.86816
-12066.25397
-12048.99842
-12021.34931
-12008.09473
-12013.68267
-12011.5816
-12004.11612
-12008.3853
-12018.55535
-12023.1598
-12024.63502
-12030.66999
-12043.76811
-12068.39974
-12072.51246
-12071.55133
-12081.72138
-12092.24905
-12088.27044
-12083.9342
-12089.41038
-12097.74758
-12091.48909
-12079.91088
-12081.85549
-12085.25295
-12061.40364
-12049.49016
-12064.17526
-12045.44449
-11911.33403
-11646.97995
-11375.58506
-11305.35588
-11448.54116
-11684.03914
-11992.89554
-12105.50363
-12061.24718
-12031.78758
-12026.3114
-12038.87308
-12052.50765
-12053.53583
-12051.54652
-12059.90607
-12070.61256
-12067.08098
-12059.07906
-12061.76127
-12070.29963
-12069.74084
-12061.5601
-12062.32006
-12072.02072
-12073.58534
-12064.33172
-12061.42599
-12069.07029
-12071.08194
-12062.14125
-12055.45808
-12058.72143
-12059.16847
-12049.73603
-12041.22001
-12043.5446
-12049.11018
-12044.841
-12035.69913
-12036.88378
-12040.9965
-12033.41926
-12021.14815
-12021.14815
-12028.09954
-12022.84688
-12010.50872
-12004.98784
-12007.6924
-12002.73031
-11988.62636
-11979.14922
-11981.11617
-11978.43396
-11962.2513
-11951.83539
-11952.93062
-11950.04725
-11932.56818
-11919.24654
-11917.45841
-11913.54685
-11897.52065
-11878.38756
-11869.62567
-11865.78117
-11852.41483
-11833.37114
-11829.34783
-11832.32061
-11828.11848
-11816.78615
-11817.38965
-11823.98341
-11825.16805
-11821.63648
-11829.77251
-11850.24671
-11868.23986
-11877.85111
-11891.46333
-11918.68775
-11944.45931
-11954.94228
-11963.23478
-11983.21724
-12003.35616
-12008.43001
-12014.93436
-12027.45134
-12040.86239
-12043.18697
-12038.96249
-12045.77977
-12056.4639
-12056.08392
-12048.59609
-12050.6301
-12060.8672
-12061.64951
-12050.85362
-12046.69619
-12054.20638
-12057.29092
-12046.53973
-12039.61069
-12046.98676
-12049.73603
-12039.63304
-12028.8595
-12032.79341
-12038.64956
-12033.19574
-12023.69625
-12027.16077
-12033.48631
-12027.87602
-12016.65545
-12016.85661
-12026.73608
-12024.76913
-12013.23563
-12012.58743
-12022.13162
-12022.19868
-12011.98393
-12011.22397
-12020.16467
-12022.98099
-12014.44262
-12012.72154
-12022.91394
-12030.66999
-12025.59614
-12017.95185
-12024.92559
-12030.40177
-12023.62919
-12014.53203
-12017.59422
-12024.92559
-12020.94698
-12011.44749
-12014.42027
-12023.80801
-12023.1151
-12014.26381
-12014.15205
-12025.77496
-12029.5077
-12019.00238
-12016.32017
-12026.53492
-12032.81576
-12026.51257
-12023.74095
-12032.94987
-12039.36482
-12034.35803
-12030.22296
-12036.92848
-12044.8857
-12040.46005
-12033.73218
-12036.36969
-12044.10339
-12039.23071
-12030.40177
-12032.59224
-12043.36578
-12044.1928
-12034.15686
-12030.44647
-12036.36969
-12035.63208
-12020.72346
-12015.33669
-12014.64379
-12004.5408
-11981.49615
-11965.82758
-11973.00249
-11977.91987
-11972.08607
-11971.30376
-11981.74202
-11997.03062
-12005.30076
-12009.27937
-12022.5116
-12052.82057
-12067.9974
-12063.79528
-12067.86329
-12082.36958
-12085.56588
-12078.7933
-12076.49107
-12082.77191
-12083.64363
-12073.31712
-12070.43374
-12073.6524
-12063.03532
-12057.20151
-12073.63004
-12050.0266
-11912.3175
-11627.1763
-11326.79121
-11265.97211
-11425.20594
-11667.5212
-11976.13173
-12100.07216
-12063.81763
-12049.71368
-12046.98676
-12057.60384
-12076.42401
-12085.72234
-12083.15189
-12085.40941
-12096.87586
-12100.5639
-12090.43856
-12088.44925
-12098.84281
-12105.88361
-12100.09451
-12096.1159
-12102.35204
-12109.12461
-12104.54251
-12096.83115
-12101.99441
-12108.09643
-12103.08964
-12095.33359
-12099.3569
-12110.1975
-12107.24707
-12096.27236
-12095.26653
-12100.13921
-12097.38995
-12086.97404
-12083.91185
-12090.68442
-12090.12563
-12076.91575
-12067.23744
-12071.41722
-12071.1043
-12059.95078
-12050.83126
-12052.64176
-12054.4299
-12044.05869
-12030.96056
-12028.41246
-12030.1112
-12018.24242
-11999.3552
-11992.78378
-11991.64385
-11977.65165
-11957.62449
-11947.4768
-11945.75571
-11935.56332
-11916.40787
-11903.91325
-11901.3875
-11893.87731
-11877.44878
-11866.89876
-11869.58097
-11872.4867
-11864.70829
-11859.56739
-11869.62567
-11881.60621
-11879.75101
-11882.25441
-11901.27574
-11925.34857
-11940.436
-11953.13179
-11977.65165
-12005.99366
-12024.38915
-12032.16756
-12046.98676
-12068.75736
-12080.31322
-12079.91088
-12081.20729
-12094.216
-12101.905
-12098.03815
-12098.23931
-12110.46572
-12119.1382
-12116.81361
-12115.51721
-12125.6649
-12136.19258
-12130.82816
-12123.65325
-12128.23536
-12136.23728
-12134.29268
-12126.02253
-12127.83302
-12134.91853
-12132.81746
-12123.83206
-12124.30145
-12133.80094
-12136.01376
-12126.73779
-12121.86511
-12127.67656
-12130.04585
-12120.21108
-12114.44433
-12120.03227
-12125.68726
-12119.1829
-12111.71742
-12117.35006
-12126.08959
-12123.20621
-12116.05365
-12119.24995
-12127.5648
-12125.17317
-12117.12654
-12118.24413
-12126.46957
-12126.55897
-12116.72421
-12114.62314
-12125.03906
-12129.04002
-12124.05558
-12124.83789
-12136.17022
-12143.07691
-12136.10317
-12131.92339
-12137.95836
-12143.88158
-12138.60656
-12132.16926
-12137.53368
-12142.9428
-12136.75137
-12127.4754
-12130.29172
-12138.20423
-12134.27033
-12124.83789
-12126.00018
-12135.99141
-12136.10317
-12127.22953
-12127.07306
-12137.73485
-12138.15953
-12129.06237
-12127.11777
-12134.94088
-12139.67945
-12133.24215
-12128.8612
-12135.56673
-12141.42288
-12136.37139
-12129.01767
-12134.29268
-12142.11579
-12137.08665
-12128.03419
-12131.3646
-12139.03125
-12138.78538
-12130.29172
-12130.98462
-12140.41706
-12140.66293
-12131.3646
-12128.79415
-12138.94184
-12141.69111
-12132.59395
-12128.92826
-12135.18675
-12140.55117
-12133.80094
-12124.30145
-12123.20621
-12125.6202
-12117.95355
-12103.22375
-12098.57459
-12098.1052
-12079.64266
-12051.85944
-12035.31915
-12033.08398
-12026.93725
-12019.02473
-12027.31723
-12040.41535
-12043.65635
-12043.5446
-12053.60288
-12068.13151
-12080.82731
-12097.09938
-12105.34717
-12116.50069
-12126.33546
-12122.3792
-12115.89719
-12119.42877
-12123.89912
-12117.90885
-12111.76212
-12116.36658
-12123.0721
-12112.76795
-12100.6533
-12124.90495
-12136.79607
-12029.99944
-11765.13127
-11399.59084
-11236.28899
-11327.37235
-11532.47196
-11829.50429
-12082.74956
-12095.11007
-12073.36182
-12086.4823
-12103.60373
-12119.40642
-12123.34032
-12125.73196
-12138.07012
-12149.2907
-12147.48021
-12142.98751
-12149.3354
-12157.65025
-12153.24696
-12143.68041
-12144.39567
-12150.92238
-12148.75426
-12140.05943
-12141.95933
-12148.46368
-12148.28487
-12139.54534
-12137.01959
-12144.73094
-12146.42968
-12138.13718
-12133.93505
-12141.26642
-12145.13327
-12136.28198
-12128.25771
-12133.73388
-12137.95836
-12130.47053
-12120.23343
-12122.60272
-12127.74362
-12118.62411
-12105.61539
-12104.85543
-12110.21985
-12105.43658
-12090.86324
-12084.64945
-12086.50465
-12081.9896
-12067.9974
-12058.16264
-12059.50374
-12055.0781
-12038.96249
-12024.29974
-12023.40567
-12019.18119
-12003.2444
-11987.64288
-11982.79255
-11977.98693
-11962.76539
-11947.49915
-11944.95105
-11948.48263
-11942.96175
-11933.73048
-11933.79753
-11939.63134
-11939.8325
-11932.90346
-11935.11628
-11951.79068
-11964.8441
-11971.95196
-11987.2629
-12017.19189
-12040.05772
-12051.61358
-12065.42695
-12088.51631
-12107.85056
-12112.49973
-12117.17124
-12133.59977
-12149.22364
-12150.14006
-12145.17798
-12150.20712
-12160.8242
-12162.56763
-12157.98553
-12161.89708
-12173.18471
-12173.83291
-12166.07686
-12169.54138
-12180.87371
-12184.44999
-12174.50347
-12171.93302
-12182.37128
-12187.33337
-12179.10793
-12174.97285
-12182.32658
-12187.0875
-12179.97964
-12173.07295
-12180.0467
-12188.18273
-12184.4947
-12174.74934
-12177.72212
-12184.20412
-12180.42668
-12171.32952
-12171.01659
-12178.37032
-12178.63854
-12165.71923
-12158.9243
-12167.23915
-12171.48598
-12163.84168
-12161.24888
-12167.9097
-12170.16723
-12161.29359
-12154.18573
-12158.8796
-12164.624
-12159.72896
-12154.29749
-12161.31594
-12171.1507
-12166.88152
-12156.64442
-12160.51127
-12170.4578
-12170.99424
-12160.48892
-12159.23722
-12167.79794
-12169.02729
-12162.56763
-12163.32759
-12175.06226
-12180.85136
-12174.21289
-12170.83778
-12179.55496
-12185.52288
-12179.04087
-12174.81639
-12184.00296
-12191.33433
-12184.76292
-12178.88441
-12185.90286
-12195.64822
-12192.34016
-12183.33241
-12187.44513
-12196.87756
-12195.80468
-12187.1322
-12188.13803
-12197.50341
-12200.00681
-12190.03793
-12185.8358
-12192.42957
-12192.49662
-12183.31005
-12178.05739
-12185.34406
-12190.73083
-12183.44416
-12176.8057
-12183.57827
-12191.49079
-12186.484
-12177.25273
-12181.45486
-12186.72987
-12182.036
-12172.62592
-12173.11766
-12178.99617
-12177.76682
-12169.72019
-12168.26733
-12172.00007
-12171.21776
-12165.09338
-12165.07103
-12175.30813
-12180.38198
-12169.96606
-12165.56277
-12173.11766
-12179.19733
-12174.57052
-12168.71436
-12175.84457
-12183.04183
-12179.86789
-12175.06226
-12179.57731
-12188.09333
-12185.45582
-12176.47042
-12178.30326
-12182.01365
-12178.70559
-12169.25081
-12163.59582
-12165.85334
-12161.24888
-12136.95254
-12116.52304
-12108.31995
-12101.72619
-12091.10911
-12085.32001
-12094.93126
-12104.22958
-12102.48615
-12106.46476
-12127.34129
-12143.05456
-12147.50256
-12162.65704
-12175.84457
-12187.19926
-12187.98157
-12182.43834
-12186.88633
-12194.62004
-12193.65891
-12184.89703
-12185.07584
-12193.34599
-12193.18952
-12174.16819
-12160.8689
-12187.24396
-12205.19241
-12119.40642
-11888.80347
-11525.47586
-11296.77281
-11340.35872
-11530.34854
-11832.63353
-12119.98756
-12150.5871
-12124.21204
-12142.67458
-12164.17696
-12174.61523
-12178.1021
-12187.60159
-12201.32556
-12203.35957
-12195.26824
-12196.18466
-12207.42759
-12209.81922
-12202.24198
-12199.55977
-12204.27599
-12209.52865
-12204.58891
-12200.34208
-12205.72885
-12209.41689
-12205.03595
-12198.97863
-12205.23712
-12210.66859
-12202.89018
-12191.80372
-12191.24492
-12197.23519
-12192.45192
-12180.51609
-12180.06905
-12188.09333
-12185.36641
-12171.86596
-12166.14391
-12172.06713
-12171.24011
-12160.75714
-12154.16338
-12156.08563
-12156.84559
-12144.17215
-12134.73971
-12138.00307
-12139.59004
-12128.45887
-12112.1868
-12106.12948
-12105.25776
-12091.24322
-12075.26172
-12073.13831
-12071.90896
-12060.88955
-12043.74576
-12033.37455
-12030.46883
-12019.02473
-11997.05297
-11984.93832
-11986.05591
-11983.46311
-11969.80619
-11962.56423
-11969.76149
-11973.29306
-11966.90046
-11962.34071
-11969.82854
-11982.01024
-11983.73133
-11988.42519
-12008.9441
-12036.21322
-12051.9265
-12062.54358
-12083.15189
-12106.42005
-12118.37824
-12125.35198
-12135.79025
-12153.26931
-12156.80088
-12153.53753
-12158.29845
-12170.90484
-12173.96702
-12166.5686
-12163.28289
-12171.57539
-12179.82318
-12176.26925
-12173.87762
-12179.97964
-12186.4393
-12181.72308
-12175.50929
-12182.14776
-12191.17787
-12189.32267
-12180.87371
-12184.47234
-12193.5248
-12190.932
-12179.19733
-12178.43737
-12186.55106
-12184.27118
-12172.60357
-12168.58025
-12174.92815
-12175.77752
-12167.9097
-12163.72993
-12169.1614
-12172.17889
-12163.03702
-12156.24209
-12162.09825
-12169.27316
-12165.56277
-12158.65608
-12162.09825
-12167.93205
-12165.80864
-12158.09729
-12161.04772
-12172.93884
-12176.2469
-12169.69784
-12170.14488
-12177.40919
-12178.59384
-12173.0506
-12173.36353
-12181.61132
-12182.30423
-12174.9505
-12174.57052
-12187.7357
-12194.01654
-12183.66768
-12176.02339
-12182.88537
-12192.56368
-12186.05932
-12177.85623
-12181.32075
-12190.68613
-12188.78623
-12182.66185
-12185.7911
-12197.07873
-12197.43636
-12190.17204
-12190.82024
-12199.55977
-12201.99611
-12195.62586
-12193.18952
-12202.59961
-12204.09718
-12195.75998
-12191.93783
-12198.0175
-12202.4208
-12195.75998
-12188.16038
-12190.79789
-12194.97766
-12189.65795
-12180.7396
-12183.39946
-12193.01071
-12190.84259
-12183.8465
-12186.10402
-12196.63169
-12198.93392
-12188.02627
-12184.29353
-12191.73666
-12193.21188
-12184.44999
-12179.15263
-12187.02044
-12194.1283
-12188.4286
-12180.96312
-12183.62298
-12188.20509
-12180.15846
-12165.69688
-12166.47919
-12167.06034
-12150.87767
-12124.86024
-12111.24803
-12115.58427
-12111.80682
-12100.92152
-12106.08478
-12115.89719
-12114.80196
-12115.51721
-12126.8272
-12142.51812
-12162.54528
-12175.62105
-12179.19733
-12189.38973
-12195.24589
-12187.84746
-12183.06418
-12188.76388
-12194.66474
-12189.0768
-12182.70656
-12187.53453
-12192.60838
-12174.68228
-12158.83489
-12175.84457
-12181.27604
-12081.76608
-11857.7569
-11562.31154
-11404.30706
-11471.92108
-11666.44831
-11971.48257
-12192.67543
-12176.09044
-12133.06333
-12128.03419
-12144.2392
-12160.55598
-12163.23819
-12164.40048
-12176.04574
-12185.85815
-12183.51122
-12179.64437
-12186.19343
-12195.89409
-12191.35668
-12182.61715
-12187.02044
-12196.43053
-12192.45192
-12182.79596
-12182.88537
-12190.55202
-12188.24979
-12178.30326
-12178.88441
-12187.75805
-12186.57341
-12176.98451
-12171.35187
-12175.53165
-12177.4539
-12168.35674
-12158.25375
-12163.50641
-12170.56956
-12165.11573
-12155.66095
-12156.86794
-12162.52293
-12157.18086
-12147.79313
-12146.7426
-12150.67651
-12145.08857
-12129.57646
-12121.79805
-12123.0274
-12117.50652
-12102.10617
-12091.60085
-12088.71747
-12083.82244
-12068.13151
-12053.93816
-12052.6194
-12049.13253
-12032.99457
-12018.95768
-12016.61074
-12014.86731
-12001.14334
-11982.39022
-11978.59043
-11979.43979
-11972.4884
-11961.98308
-11962.69834
-11973.31541
-11975.12591
-11970.16382
-11978.43396
-11998.41642
-12014.21911
-12021.95281
-12038.00136
-12068.95853
-12094.8195
-12108.45406
-12123.7203
-12147.74843
-12169.54138
-12175.37518
-12178.86206
-12194.06124
-12207.15937
-12207.87462
-12207.18172
-12216.30123
-12228.34882
-12228.41587
-12223.40908
-12227.65591
-12237.82596
-12239.56939
-12230.89692
-12229.89109
-12238.22829
-12239.23412
-12232.75211
-12229.10878
-12235.47903
-12238.49651
-12230.80751
-12227.32064
-12234.89788
-12239.12236
-12231.50041
-12223.14086
-12226.04659
-12232.19332
-12227.34299
-12216.14477
-12217.12824
-12223.69966
-12219.00579
-12207.13701
-12205.97472
-12215.07188
-12217.10589
-12208.81339
-12207.36053
-12216.32358
-12216.88237
-12208.16519
-12204.96889
-12212.792
-12217.55293
-12208.56752
-12198.21867
-12203.49368
-12208.88045
-12203.8066
-12195.96114
-12199.67153
-12204.4101
-12197.63752
-12189.09916
-12192.1837
-12199.8727
-12199.24685
-12187.57924
-12181.70073
-12186.46165
-12186.26048
-12174.97285
-12171.84361
-12179.37615
-12181.83484
-12173.83291
-12170.43545
-12177.96799
-12181.20899
-12169.47432
-12162.96997
-12170.27899
-12174.10114
-12167.39561
-12161.00301
-12166.43449
-12173.22942
-12167.97676
-12161.07007
-12165.62982
-12173.83291
-12173.85527
-12168.93788
-12171.32952
-12181.16429
-12180.38198
-12168.78142
-12166.97093
-12177.18568
-12179.08557
-12168.37909
-12163.4617
-12171.7095
-12177.34214
-12170.5025
-12165.62982
-12174.16819
-12181.09723
-12177.36449
-12173.72116
-12179.33144
-12188.20509
-12185.20995
-12177.5433
-12182.34893
-12192.76484
-12191.91548
-12181.9466
-12182.39363
-12190.48496
-12186.90868
-12172.9612
-12160.89125
-12157.27027
-12145.73677
-12125.17317
-12120.45695
-12130.00114
-12141.53464
-12142.00403
-12142.16049
-12157.11381
-12178.34797
-12184.74057
-12185.81345
-12212.36732
-12240.82109
-12243.03391
-12238.60827
-12243.39154
-12253.94157
-12256.08733
-12248.80066
-12246.31962
-12252.91339
-12254.74623
-12244.82205
-12238.09418
-12233.57913
-12240.23995
-12252.51105
-12206.68998
-12052.06061
-11741.63958
-11428.20107
-11375.58506
-11533.58955
-11792.35569
-12095.06537
-12206.86879
-12173.07295
-12181.00782
-12189.21091
-12191.55785
-12204.25364
-12222.55972
-12226.71714
-12216.74826
-12216.36828
-12227.25358
-12228.66174
-12217.82115
-12213.97665
-12221.66565
-12223.78906
-12213.86489
-12205.90767
-12211.83088
-12216.23417
-12207.24877
-12197.68223
-12200.31973
-12204.87949
-12197.19049
-12185.32171
-12184.40529
-12188.40625
-12184.27118
-12175.30813
-12176.49277
-12184.56175
-12181.87954
-12170.34604
-12164.69105
-12166.81447
-12162.00884
-12149.20129
-12141.75816
-12145.20033
-12147.88254
-12138.53951
-12128.8612
-12132.6163
-12135.79025
-12123.42973
-12109.30343
-12108.18584
-12112.05269
-12101.77089
-12086.99639
-12081.67667
-12081.36375
-12068.95853
-12050.6301
-12042.20349
-12040.66122
-12028.9042
-12009.99463
-12000.15986
-12000.49514
-11995.08601
-11980.57973
-11974.47771
-11980.04329
-11982.23376
-11973.85186
-11968.12981
-11974.94709
-11983.79838
-11983.66427
-11984.46894
-12001.54567
-12025.30557
-12039.29776
-12047.25499
-12066.6563
-12093.67956
-12107.0012
-12111.42684
-12122.87094
-12141.37818
-12149.91655
-12144.798
-12150.25182
-12165.80864
-12173.38588
-12169.74254
-12171.57539
-12184.74057
-12190.06028
-12183.64533
-12176.96216
-12182.90772
-12191.11081
-12184.56175
-12177.85623
-12184.22648
-12192.31781
-12187.31102
-12177.36449
-12181.67838
-12192.49662
-12189.09916
-12176.44807
-12175.97868
-12185.20995
-12184.33823
-12170.25663
-12164.7134
-12171.7095
-12172.13418
-12164.624
-12162.00884
-12169.8096
-12172.98355
-12165.33925
-12158.70078
-12163.39465
-12168.60261
-12164.95927
-12158.94665
-12164.69105
-12170.34604
-12165.16044
-12156.80088
-12161.04772
-12171.30717
-12168.82612
-12159.08076
-12160.08659
-12170.90484
-12173.63175
-12165.47336
-12163.61817
-12173.6094
-12177.85623
-12170.5025
-12167.32856
-12175.554
-12180.44903
-12172.55886
-12164.57929
-12172.53651
-12179.19733
-12172.87179
-12162.7241
-12164.17696
-12170.14488
-12165.22749
-12154.94569
-12156.84559
-12164.28872
-12162.7241
-12152.57641
-12151.52587
-12162.7688
-12164.19931
-12152.84463
-12149.76009
-12160.01954
-12166.38978
-12160.19835
-12157.65025
-12165.85334
-12171.24011
-12166.27802
-12161.58416
-12167.01563
-12173.45293
-12169.69784
-12163.50641
-12166.5686
-12172.53651
-12168.78142
-12159.77367
-12162.43352
-12170.83778
-12168.17792
-12157.73966
-12158.83489
-12168.31203
-12168.53555
-12157.91847
-12155.728
-12165.56277
-12171.39657
-12164.37813
-12160.53363
-12167.77559
-12175.21872
-12168.69201
-12160.89125
-12165.40631
-12170.39075
-12163.43935
-12154.27514
-12156.64442
-12164.35577
-12162.79115
-12155.90682
-12157.00205
-12165.11573
-12165.18279
-12156.80088
-12156.17504
-12163.48406
-12164.08755
-12158.05258
-12158.07493
-12166.88152
-12170.92719
-12160.55598
-12148.53074
-12153.40342
-12155.34802
-12139.27712
-12127.31893
-12122.82623
-12114.01965
-12093.09841
-12069.33851
-12062.99061
-12069.00323
-12070.97019
-12066.52219
-12070.94783
-12084.87297
-12094.32776
-12095.28888
-12098.84281
-12123.0274
-12147.86019
-12146.49673
-12144.88741
-12155.32567
-12161.60651
-12152.10702
-12145.13327
-12152.33054
-12158.52197
-12152.5317
-12146.63084
-12149.9389
-12146.22851
-12144.88741
-12159.46074
-12139.54534
-11999.84694
-11676.79717
-11333.6979
-11266.84383
-11419.0145
-11665.75541
-11964.82175
-12119.42877
-12102.03911
-12109.90692
-12118.78057
-12123.96617
-12139.67945
-12150.27418
-12148.91072
-12148.46368
-12158.70078
-12168.62496
-12166.81447
-12163.4617
-12169.87666
-12178.61619
-12173.6094
-12168.04381
-12172.29064
-12180.42668
-12178.30326
-12169.87666
-12169.40727
-12176.8504
-12175.26343
-12166.45684
-12166.5686
-12177.29743
-12179.86789
-12171.32952
-12167.59678
-12172.11183
-12175.03991
-12166.41213
-12157.49379
-12163.75228
-12167.48502
-12155.88446
-12143.52395
-12146.83201
-12152.24113
-12146.89906
-12133.75624
-12132.21397
-12136.37139
-12128.97296
-12112.54443
-12104.47545
-12104.4084
-12096.92056
-12077.5416
-12067.39391
-12069.11499
-12063.77292
-12046.38327
-12035.36386
-12035.83324
-12030.22296
-12011.84982
-11994.37076
-11992.06853
-11989.49808
-11976.75758
-11962.07249
-11962.83245
-11970.85672
-11967.48161
-11958.42915
-11962.18425
-11970.96848
-11968.30862
-11961.37958
-11967.3922
-11986.54765
-11999.10933
-12005.34546
-12020.36584
-12047.99259
-12069.36086
-12076.69223
-12087.48813
-12108.2976
-12126.9166
-12131.43165
-12134.5162
-12150.65416
-12165.69688
-12167.3062
-12163.97579
-12169.04964
-12178.45973
-12175.39754
-12166.72506
-12169.89901
-12180.67255
-12179.66672
-12171.66479
-12171.95537
-12179.55496
-12182.88537
-12176.78334
-12174.39171
-12183.55592
-12188.45095
-12182.88537
-12180.78431
-12190.17204
-12194.97766
-12187.91451
-12180.002
-12186.79693
-12193.68126
-12188.56271
-12181.63367
-12185.94756
-12191.98253
-12187.19926
-12177.14097
-12177.43154
-12185.45582
-12184.85232
-12172.44711
-12172.53651
-12182.75126
-12183.2877
-12173.72116
-12171.26246
-12178.66089
-12180.06905
-12169.02729
-12161.31594
-12165.71923
-12171.55304
-12165.00398
-12159.19252
-12163.84168
-12170.4578
-12166.03216
-12157.53849
-12160.19835
-12168.35674
-12166.97093
-12158.18669
-12160.71244
-12172.9612
-12170.61426
-12160.31011
-12158.29845
-12167.66383
-12171.30717
-12163.12643
-12161.27123
-12172.33535
-12175.71046
-12165.58512
-12161.96414
-12169.87666
-12178.03504
-12174.07878
-12169.34021
-12176.2022
-12184.07001
-12178.92911
-12169.42962
-12172.00007
-12180.0467
-12176.87275
-12169.2061
-12172.33535
-12180.42668
-12183.04183
-12171.7095
-12169.00494
-12175.97868
-12175.30813
-12167.88735
-12165.42866
-12172.58122
-12175.35283
-12168.17792
-12162.21001
-12171.17306
-12177.92328
-12173.63175
-12168.42379
-12174.19054
-12181.2984
-12174.77169
-12165.89804
-12164.35577
-12171.97772
-12172.71533
-12164.73575
-12165.74158
-12174.347
-12173.76586
-12160.176
-12156.01857
-12164.55694
-12167.79794
-12159.17017
-12155.45978
-12164.624
-12168.33438
-12160.13129
-12150.94473
-12152.82227
-12158.14199
-12152.10702
-12141.06526
-12141.93697
-12140.26059
-12120.76987
-12094.46187
-12081.78843
-12085.74469
-12083.62127
-12076.8934
-12081.67667
-12090.48326
-12092.3161
-12095.62416
-12106.10713
-12120.50165
-12139.97002
-12151.8388
-12153.15755
-12162.00884
-12172.51416
-12164.98162
-12157.96318
-12161.83003
-12164.98162
-12160.13129
-12153.85045
-12155.34802
-12157.96318
-12142.2946
-12127.38599
-12146.51908
-12148.41898
-12041.35412
-11803.82214
-11497.715
-11358.39657
-11450.03873
-11652.88081
-11964.1959
-12173.07295
-12153.7834
-12120.99339
-12117.46181
-12136.01376
-12150.72121
-12151.8835
-12154.3869
-12164.13226
-12173.45293
-12171.66479
-12167.03798
-12172.33535
-12180.67255
-12178.7503
-12167.79794
-12169.45197
-12177.81152
-12175.19637
-12165.29455
-12164.51224
-12171.62009
-12171.41893
-12161.71827
-12158.79019
-12169.04964
-12172.13418
-12163.05937
-12157.0244
-12162.83586
-12167.48502
-12157.69495
-12148.50839
-12153.7834
-12156.48796
-12149.38011
-12140.48411
-12139.47828
-12144.46272
-12138.13718
-12123.34032
-12119.38406
-12124.12263
-12117.19359
-12101.32386
-12091.84672
-12093.09841
-12086.90698
-12069.98671
-12058.72143
-12057.93912
-12052.6194
-12036.81672
-12024.81383
-12023.04805
-12020.11997
-12004.31728
-11989.49808
-11983.64192
-11980.84795
-11967.43691
-11951.34365
-11948.19205
-11951.65657
-11946.40391
-11934.95982
-11934.33397
-11943.74406
-11944.74989
-11938.78197
-11940.83833
-11954.5623
-11965.73817
-11969.26975
-11982.70315
-12006.4407
-12027.02666
-12038.78367
-12052.48529
-12075.46289
-12092.65138
-12099.11103
-12102.77672
-12117.66298
-12132.16926
-12133.37626
-12129.57646
-12135.74554
-12146.00499
-12144.61918
-12139.27712
-12142.65223
-12154.34219
-12157.47144
-12149.9389
-12148.37428
-12156.28679
-12157.85142
-12148.12841
-12143.16632
-12150.81062
-12155.05745
-12146.18381
-12140.28295
-12145.69207
-12150.81062
-12143.16632
-12134.38209
-12136.34904
-12140.3053
-12131.99045
-12118.80292
-12117.30535
-12121.64159
-12116.27717
-12105.1013
-12105.66009
-12114.80196
-12114.19846
-12105.32482
-12107.29177
-12117.41711
-12119.42877
-12111.24803
-12108.3423
-12117.50652
-12120.63576
-12114.10905
-12110.64453
-12119.1382
-12124.03323
-12115.69603
-12108.07408
-12110.64453
-12116.6348
-12111.27038
-12101.74854
-12104.78838
-12113.03617
-12110.91275
-12102.77672
-12105.68245
-12112.7456
-12111.96329
-12103.11199
-12102.66496
-12111.58331
-12117.26065
-12111.09157
-12108.11879
-12115.56192
-12118.95938
-12111.35979
-12105.88361
-12110.04104
-12118.71351
-12116.23247
-12110.86805
-12116.94772
-12122.75918
-12119.29466
-12112.72324
-12114.28787
-12121.68629
-12120.03227
-12111.62801
-12113.77378
-12125.10611
-12127.74362
-12120.12167
-12118.17707
-12126.46957
-12127.90008
-12117.41711
-12112.0974
-12121.59689
-12126.13429
-12115.89719
-12109.48224
-12117.84179
-12122.80388
-12112.43267
-12100.20627
-12091.53379
-12079.41915
-12058.67673
-12045.75742
-12050.40658
-12059.41433
-12062.32006
-12055.45808
-12055.30161
-12074.21119
-12089.92447
-12090.86324
-12102.28498
-12131.20814
-12141.82522
-12135.74554
-12135.38791
-12144.50743
-12149.40246
-12141.89227
-12133.93505
-12140.46176
-12149.22364
-12143.72511
-12134.11386
-12128.30241
-12123.25092
-12131.56577
-12131.61047
-12055.54748
-11871.36911
-11562.98209
-11337.49769
-11367.06905
-11562.40094
-11848.63738
-12104.78838
-12120.45695
-12090.19269
-12094.46187
-12094.68539
-12101.3015
-12117.95355
-12129.48705
-12126.89425
-12120.07697
-12126.00018
-12134.67266
-12131.63282
-12124.972
-12128.59298
-12135.23145
-12134.78442
-12126.35781
-12127.67656
-12135.2538
-12133.84564
-12123.7203
-12124.72613
-12132.90687
-12131.16343
-12122.60272
-12119.16055
-12126.55897
-12129.12943
-12120.79222
-12114.46668
-12120.524
-12125.77666
-12119.04879
-12111.18097
-12114.33257
-12117.12654
-12110.08574
-12099.51336
-12101.2121
-12106.66592
-12102.77672
-12092.2267
-12087.57753
-12090.28209
-12081.87784
-12064.44348
-12057.00035
-12060.9566
-12054.80987
-12036.39204
-12024.3668
-12022.73512
-12017.39305
-11998.46113
-11982.18906
-11977.31638
-11971.61668
-11952.93062
-11933.84223
-11928.16489
-11926.84614
-11913.54685
-11898.75
-11896.55952
-11902.92977
-11900.31462
-11893.18441
-11897.16302
-11908.18243
-11913.09982
-11913.77037
-11925.95207
-11949.60021
-11969.09093
-11979.97623
-11996.13655
-12024.70208
-12046.11505
-12051.94885
-12057.98382
-12077.5416
-12096.1606
-12101.01093
-12100.63095
-12111.47155
-12125.21787
-12124.72613
-12119.38406
-12125.37433
-12134.49384
-12133.37626
-12125.10611
-12127.5648
-12136.95254
-12138.58421
-12131.16343
-12129.44235
-12137.91366
-12138.65127
-12127.85538
-12122.93799
-12132.32572
-12135.41027
-12125.95548
-12118.28883
-12122.93799
-12127.00601
-12120.41224
-12112.96911
-12115.3384
-12121.66394
-12115.74073
-12102.97788
-12106.01772
-12115.02547
-12113.70672
-12106.46476
-12107.71645
-12115.27134
-12116.38893
-12108.63288
-12104.38604
-12111.87388
-12114.95842
-12105.1013
-12100.42979
-12108.83404
-12115.62897
-12108.78934
-12103.98371
-12114.60079
-12122.55801
-12116.79126
-12111.15862
-12115.40545
-12121.06045
-12118.78057
-12112.87971
-12116.56774
-12123.87677
-12120.12167
-12111.5386
-12111.40449
-12121.70865
-12123.89912
-12116.90302
-12117.64063
-12127.18482
-12128.92826
-12120.63576
-12116.16541
-12122.87094
-12127.07306
-12120.27813
-12113.10322
-12119.51818
-12128.36947
-12124.52497
-12115.58427
-12119.94286
-12129.24118
-12123.78736
-12112.65619
-12115.13723
-12126.80484
-12127.92243
-12121.03809
-12122.78153
-12132.21397
-12135.29851
-12126.58133
-12124.03323
-12132.63865
-12134.18092
-12124.59202
-12120.70282
-12129.64352
-12136.28198
-12127.85538
-12119.07114
-12124.56967
-12131.34225
-12127.07306
-12117.52887
-12121.90981
-12128.97296
-12124.99435
-12114.44433
-12113.93024
-12122.3792
-12124.05558
-12115.51721
-12114.44433
-12123.51914
-12126.33546
-12116.6795
-12112.72324
-12119.8758
-12120.81458
-12106.62122
-12096.47353
-12099.33455
-12097.50171
-12085.69999
-12071.70779
-12065.38225
-12055.05574
-12035.60973
-12024.45621
-12027.40664
-12039.61069
-12041.26472
-12033.21809
-12041.30942
-12063.72822
-12075.21702
-12072.53481
-12089.56684
-12120.21108
-12127.05071
-12120.32284
-12119.8311
-12130.58229
-12132.72806
-12123.96617
-12119.07114
-12126.55897
-12131.87869
-12126.89425
-12117.35006
-12110.46572
-12114.93607
-12130.24701
-12092.49492
-11944.45931
-11639.358
-11305.08766
-11224.73314
-11367.82901
-11624.15881
-11937.91025
-12085.2753
-12057.0674
-12065.78458
-12082.079
-12084.44829
-12090.81854
-12106.91179
-12117.37241
-12114.80196
-12112.29856
-12122.64742
-12130.47053
-12125.91077
-12119.58523
-12124.05558
-12131.27519
-12128.07889
-12120.70282
-12125.68726
-12137.1984
-12135.67849
-12127.54245
-12127.78832
-12137.1984
-12140.52881
-12131.43165
-12130.38112
-12140.55117
-12143.94863
-12136.30434
-12134.04681
-12142.04873
-12143.68041
-12134.5162
-12128.14595
-12130.60464
-12130.91756
-12121.66394
-12110.42102
-12109.45989
-12111.29273
-12103.04494
-12091.37733
-12090.30445
-12092.53962
-12083.75538
-12064.42112
-12055.56983
-12057.82736
-12049.62427
-12030.55823
-12018.04126
-12017.05778
-12010.8887
-11992.62732
-11978.56807
-11976.31055
-11969.71678
-11950.89661
-11931.56236
-11925.86266
-11926.04148
-11915.5138
-11905.05319
-11906.81897
-11911.55754
-11905.00848
-11897.02891
-11901.25339
-11912.25045
-11913.32333
-11911.26697
-11922.62166
-11947.63326
-11966.98987
-11978.70218
-11997.87998
-12025.14911
-12045.86918
-12056.59801
-12068.77972
-12086.39289
-12099.11103
-12097.97109
-12096.85351
-12108.96815
-12121.61924
-12120.65811
-12116.18777
-12124.41321
-12133.73388
-12130.91756
-12122.60272
-12126.76014
-12138.13718
-12139.94767
-12133.48802
-12132.75041
-12141.44524
-12144.798
-12137.17605
-12133.82329
-12142.2052
-12145.31209
-12135.92436
-12131.16343
-12136.57256
-12138.76303
-12128.92826
-12120.30049
-12122.53566
-12126.13429
-12117.77474
-12106.95649
-12109.68341
-12116.16541
-12112.0974
-12101.07799
-12099.9157
-12104.65427
-12101.45797
-12091.33263
-12090.72913
-12101.05563
-12101.70383
-12093.38899
-12092.53962
-12099.87099
-12103.53668
-12099.75923
-12097.21113
-12106.17418
-12111.42684
-12103.7602
-12095.78062
-12101.14504
-12108.83404
-12103.26846
-12095.06537
-12098.26167
-12107.76116
-12106.73298
-12098.35107
-12100.09451
-12111.5386
-12113.84083
-12105.30247
-12103.42492
-12110.2869
-12110.53277
-12100.6086
-12095.40064
-12103.08964
-12105.59304
-12096.00414
-12091.19851
-12097.68052
-12102.48615
-12096.54058
-12091.04205
-12096.13825
-12101.74854
-12095.55711
-12087.33166
-12089.41038
-12095.82533
-12091.60085
-12081.14023
-12080.20146
-12089.25391
-12090.3715
-12082.74956
-12085.2306
-12094.43952
-12093.65721
-12083.3307
-12080.51438
-12089.54449
-12095.78062
-12089.25391
-12084.35888
-12092.40551
-12097.23349
-12090.70678
-12083.82244
-12090.63972
-12099.9157
-12095.84768
-12088.56101
-12094.30541
-12105.95067
-12104.38604
-12095.93708
-12096.83115
-12108.2529
-12108.11879
-12097.97109
-12097.54641
-12108.96815
-12111.4492
-12102.88848
-12101.27915
-12108.63288
-12115.15958
-12109.57165
-12103.60373
-12110.8904
-12116.29952
-12108.69993
-12099.58042
-12105.32482
-12116.29952
-12113.93024
-12101.81559
-12102.24028
-12110.1975
-12104.22958
-12092.65138
-12088.73982
-12084.38123
-12069.38321
-12047.05382
-12034.96153
-12041.17531
-12048.79726
-12049.3337
-12049.93719
-12064.44348
-12083.26365
-12093.03136
-12097.4123
-12115.45016
-12148.46368
-12156.44326
-12153.15755
-12162.96997
-12173.49764
-12170.61426
-12163.77463
-12168.93788
-12178.68324
-12176.2469
-12169.42962
-12172.04477
-12174.23525
-12167.19445
-12176.2469
-12183.39946
-12102.24028
-11860.64027
-11472.99397
-11259.95949
-11337.98943
-11546.82178
-11832.36531
-12087.62224
-12117.86415
-12107.29177
-12119.58523
-12127.34129
-12144.37331
-12163.66287
-12164.89222
-12158.70078
-12161.78532
-12173.45293
-12174.27995
-12164.10991
-12163.66287
-12172.11183
-12174.05643
-12162.36647
-12157.5832
-12161.87473
-12162.25471
-12154.25279
-12148.97777
-12155.0798
-12158.03023
-12150.09536
-12141.557
-12145.62501
-12148.46368
-12138.29364
-12128.23536
-12128.90591
-12133.3539
-12124.12263
-12112.76795
-12114.66785
-12119.7864
-12111.35979
-12096.60764
-12090.3715
-12096.1159
-12094.93126
-12081.52021
-12076.31225
-12079.24033
-12078.74859
-12061.24718
-12049.66897
-12051.01008
-12049.69133
-12034.33568
-12019.36001
-12015.35905
-12014.30851
-11999.17638
-11978.76924
-11969.44856
-11966.22991
-11955.12109
-11934.7363
-11926.3544
-11927.58375
-11919.49241
-11903.15329
-11897.18537
-11901.4322
-11899.86758
-11888.91523
-11883.12613
-11890.21163
-11892.60327
-11886.36713
-11884.7131
-11901.20869
-11919.71593
-11926.84614
-11938.37964
-11960.59727
-11986.97233
-12002.75266
-12012.14039
-12031.02762
-12051.2336
-12059.012
-12061.62716
-12070.14317
-12083.30835
-12086.86228
-12082.12371
-12082.10135
-12090.52796
-12091.75731
-12086.79522
-12087.33166
-12096.27236
-12101.45797
-12096.51823
-12092.36081
-12100.09451
-12108.07408
-12105.21306
-12097.59111
-12100.45214
-12107.47058
-12107.11296
-12100.13921
-12102.86613
-12113.81848
-12112.23151
-12104.43075
-12105.54833
-12116.61245
-12119.98756
-12110.37631
-12108.07408
-12116.54539
-12120.41224
-12112.43267
-12110.35396
-12121.55218
-12129.15178
-12124.43556
-12122.49096
-12129.71057
-12137.31016
-12132.45984
-12125.32963
-12129.84468
-12138.89714
-12133.89035
-12121.06045
-12123.60854
-12132.45984
-12131.47636
-12126.9166
-12128.92826
-12136.63961
-12138.3607
-12128.52593
-12126.46957
-12132.41513
-12135.52202
-12131.85634
-12127.11777
-12133.77859
-12137.06429
-12125.88842
-12117.9759
-12128.07889
-12135.65613
-12131.76693
-12125.97783
-12131.67752
-12141.48994
-12141.91462
-12135.18675
-12139.18771
-12143.34513
-12140.26059
-12132.03515
-12132.41513
-12140.08178
-12140.43941
-12131.18579
-12132.6163
-12142.2946
-12148.19546
-12143.27808
-12140.37235
-12150.34123
-12157.87377
-12151.39176
-12146.6979
-12153.00109
-12159.70661
-12159.12547
-12152.91168
-12157.13616
-12162.18766
-12158.79019
-12152.03996
-12155.75035
-12163.90874
-12157.96318
-12148.6425
-12149.38011
-12159.88543
-12164.17696
-12156.13033
-12151.32471
-12159.34898
-12161.78532
-12147.79313
-12139.16536
-12147.56961
-12148.32957
-12131.76693
-12120.38989
-12114.19846
-12106.42005
-12084.60475
-12065.31519
-12069.00323
-12075.99933
-12073.16066
-12067.01393
-12072.4007
-12086.50465
-12100.18392
-12101.18974
-12111.4939
-12147.14493
-12164.35577
-12155.97387
-12154.83393
-12167.14974
-12173.49764
-12167.88735
-12165.56277
-12175.86692
-12184.31588
-12178.25856
-12170.25663
-12171.21776
-12166.79211
-12161.09242
-12167.93205
-12150.47534
-12036.36969
-11794.9932
-11517.83157
-11416.77933
-11541.68088
-11770.47333
-12078.86035
-12225.68896
-12193.5248
-12169.67549
-12159.39369
-12167.10504
-12190.61907
-12204.34305
-12205.12536
-12207.38288
-12217.86585
-12229.04172
-12225.91248
-12220.05632
-12225.86778
-12233.40031
-12229.84639
-12221.06215
-12223.0291
-12228.84056
-12225.51015
-12215.09423
-12215.92125
-12224.41491
-12222.02328
-12213.44021
-12213.57432
-12221.7327
-12219.76575
-12209.77452
-12207.42759
-12213.86489
-12217.95526
-12209.68511
-12202.28668
-12206.28765
-12209.28278
-12202.75607
-12196.74345
-12199.42566
-12203.13605
-12196.60934
-12186.12637
-12186.46165
-12190.932
-12182.75126
-12167.70854
-12161.94179
-12160.08659
-12149.13424
-12129.73292
-12118.98173
-12116.97008
-12108.16349
-12092.2267
-12080.87201
-12079.66501
-12074.65822
-12056.4639
-12035.69913
-12028.97126
-12025.10441
-12009.45819
-11992.26969
-11990.34744
-11998.39407
-11996.8518
-11988.11227
-11991.30857
-11999.62342
-11999.10933
-11993.96843
-12002.08211
-12020.38819
-12036.90613
-12046.36092
-12064.93522
-12093.47839
-12115.20429
-12122.84858
-12129.71057
-12147.07788
-12160.53363
-12164.0652
-12163.84168
-12175.12932
-12183.39946
-12177.14097
-12172.82709
-12180.42668
-12189.23327
-12183.08654
-12172.82709
-12174.07878
-12183.82414
-12184.4947
-12174.21289
-12173.81056
-12181.72308
-12179.4432
-12168.60261
-12164.89222
-12171.50833
-12174.79404
-12168.69201
-12164.53459
-12173.0506
-12181.20899
-12178.48208
-12174.61523
-12183.01948
-12191.93783
-12187.60159
-12180.94077
-12185.81345
-12197.23519
-12196.65405
-12191.89312
-12197.414
-12209.48395
-12212.52378
-12209.32748
-12213.03787
-12227.49945
-12235.47903
-12232.88622
-12234.85318
-12244.62089
-12249.33711
-12242.51982
-12240.66463
-12250.52175
-12257.65196
-12249.49357
-12242.22925
-12247.996
-12253.40512
-12245.60437
-12234.24968
-12234.69671
-12239.59175
-12232.618
-12219.45282
-12218.5364
-12223.54319
-12216.61415
-12201.07969
-12196.58699
-12202.97959
-12201.79495
-12188.69682
-12183.35476
-12187.26631
-12185.65699
-12173.6094
-12169.34021
-12177.14097
-12182.57245
-12168.73672
-12152.73287
-12158.63373
-12171.17306
-12169.89901
-12160.60068
-12164.40048
-12172.46946
-12168.71436
-12158.54432
-12157.98553
-12163.21584
-12153.67164
-12135.07499
-12125.24022
-12121.37337
-12108.81169
-12089.56684
-12081.27434
-12085.05179
-12082.97307
-12070.34434
-12063.21413
-12069.62908
-12077.38514
-12073.29477
-12064.97992
-12066.92452
-12074.9488
-12071.64074
-12062.32006
-12065.78458
-12068.89147
-12054.36284
-12029.48535
-12019.44942
-12028.47952
-12028.05484
-12021.774
-12027.74191
-12042.35995
-12057.00035
-12065.42695
-12073.11595
-12087.59988
-12111.38214
-12123.25092
-12125.50844
-12136.37139
-12146.85436
-12143.94863
-12136.43845
-12141.08761
-12149.42481
-12144.61918
-12135.18675
-12137.84661
-12145.02152
-12131.02932
-12118.24413
-12135.49967
-12133.24215
-12017.21424
-11759.85626
-11434.68308
-11303.36658
-11409.9397
-11619.532
-11927.82961
-12132.88452
-12112.0974
-12081.09553
-12080.80495
-12094.99831
-12112.36562
-12113.93024
-12113.99729
-12123.98852
-12132.19161
-12128.45887
-12121.57454
-12124.99435
-12132.03515
-12126.31311
-12113.50556
-12110.80099
-12116.74656
-12113.14793
-12102.10617
-12097.32289
-12103.71549
-12101.8603
-12089.1198
-12080.40262
-12083.66598
-12083.88949
-12072.37835
-12061.94008
-12065.11403
-12066.32102
-12051.323
-12037.73314
-12037.66609
-12041.46588
-12035.20739
-12023.27156
-12021.46107
-12025.52909
-12017.61657
-12003.51262
-11995.91303
-11995.80127
-11987.08409
-11968.39803
-11957.60214
-11957.55743
-11950.29312
-11930.40007
-11914.39622
-11910.64112
-11899.93464
-11880.19805
-11864.8871
-11861.75786
-11858.69567
-11840.61311
-11821.97175
-11815.5568
-11811.86876
-11798.16715
-11780.12929
-11775.05544
-11777.02239
-11768.79695
-11755.83294
-11755.3412
-11767.65701
-11771.72503
-11766.09239
-11769.93689
-11788.51119
-11804.49269
-11813.29928
-11832.38767
-11864.70829
-11892.24564
-11906.64016
-11923.33691
-11950.47193
-11975.86351
-11985.83239
-11990.03452
-12004.18317
-12020.67876
-12024.88089
-12022.31044
-12031.13938
-12046.33856
-12051.36771
-12046.1374
-12049.80308
-12062.87885
-12067.72918
-12063.32589
-12063.77292
-12073.80886
-12077.85452
-12071.68544
-12068.28798
-12075.14996
-12080.26851
-12073.49593
-12068.28798
-12074.43471
-12082.14606
-12075.12761
-12064.28701
-12063.92939
-12067.9527
-12063.54941
-12053.20055
-12055.10045
-12064.97992
-12060.97896
-12050.5854
-12051.09949
-12061.85067
-12065.38225
-12058.18499
-12059.39198
-12072.93714
-12077.34043
-12070.47845
-12066.23162
-12072.4901
-12075.84287
-12067.55037
-12060.2637
-12065.33755
-12072.64657
-12066.38808
-12057.78266
-12063.05767
-12068.89147
-12061.80597
-12051.07713
-12053.93816
-12063.43765
-12059.74961
-12048.37257
-12047.16558
-12055.1228
-12055.90511
-12048.95372
-12048.35022
-12056.84388
-12059.83902
-12050.36188
-12045.69036
-12052.30648
-12057.24622
-12050.13836
-12043.14226
-12051.45711
-12060.08489
-12054.76517
-12046.62914
-12051.03243
-12060.77779
-12056.50861
-12046.49503
-12047.85848
-12057.53679
-12057.22386
-12048.0373
-12046.8303
-12056.17333
-12056.28509
-12046.11505
-12043.70106
-12053.71464
-12059.30258
-12050.45128
-12046.53973
-12056.03922
-12063.03532
-12055.48043
-12048.05965
-12055.30161
-12065.04697
-12059.30258
-12048.59609
-12051.81474
-12060.37546
-12057.80501
-12048.37257
-12050.6748
-12058.72143
-12057.73795
-12047.56791
-12048.23846
-12057.84971
-12060.84485
-12049.78073
-12045.95858
-12055.83806
-12059.45904
-12051.68063
-12048.66315
-12057.62619
-12061.87303
-12051.05478
-12041.62235
-12046.58443
-12051.03243
-12043.36578
-12033.19574
-12037.8002
-12048.95372
-12050.33953
-12044.21515
-12044.63983
-12053.53583
-12054.11697
-12042.62817
-12039.34247
-12047.23263
-12048.88666
-12040.57181
-12037.55433
-12044.81865
-12048.39492
-12040.37065
-12033.53101
-12035.38621
-12042.96345
-12038.26958
-12027.5631
-12026.93725
-12024.88089
-12005.16665
-11979.84212
-11966.54284
-11966.81106
-11959.6585
-11951.83539
-11957.98212
-11971.01318
-11975.90822
-11972.95779
-11979.73037
-11994.01313
-12004.29493
-12015.4708
-12024.29974
-12034.87212
-12043.81282
-12041.51059
-12036.70496
-12041.95762
-12046.8303
-12040.66122
-12032.83811
-12036.05676
-12042.56112
-12030.78175
-12012.58743
-12034.0004
-12050.0266
-11950.80721
-11690.07411
-11321.51619
-11146.88202
-11231.32691
-11432.42555
-11724.40639
-11989.45337
-12017.54952
-11997.94704
-12011.40279
-12030.58058
-12043.20932
-12045.37744
-12047.16558
-12058.78849
-12070.14317
-12068.15387
-12060.68838
-12066.47749
-12077.09456
-12073.31712
-12061.24718
-12061.35894
-12071.43957
-12072.08777
-12063.23648
-12063.10237
-12074.18884
-12077.67571
-12070.18788
-12067.50567
-12074.09943
-12076.55812
-12067.3492
-12062.87885
-12071.7525
-12077.4969
-12067.48331
-12057.73795
-12062.40947
-12068.28798
-12063.30354
-12055.50278
-12058.11793
-12066.87982
-12063.63881
-12051.18889
-12049.95955
-12055.54748
-12051.01008
-12037.62138
-12031.78758
-12037.33081
-12034.6486
-12019.8741
-12011.17927
-12014.085
-12010.84399
-11995.57775
-11982.41257
-11982.0773
-11981.16088
-11967.21339
-11952.79651
-11951.43306
-11951.99185
-11939.49723
-11924.00747
-11923.71689
-11929.88598
-11921.99581
-11908.94239
-11907.35542
-11916.162
-11914.70914
-11904.36028
-11906.90838
-11918.93362
-11926.57792
-11928.41076
-11939.72074
-11967.3922
-11986.92763
-11996.62828
-12011.89453
-12039.23071
-12064.30937
-12072.4007
-12077.22867
-12093.79132
-12108.40936
-12107.44823
-12101.07799
-12106.95649
-12120.65811
-12121.55218
-12112.65619
-12115.53956
-12124.68143
-12126.24605
-12121.01574
-12124.3685
-12136.08082
-12140.70763
-12134.69501
-12132.45984
-12141.42288
-12146.6979
-12140.57352
-12136.5055
-12142.2052
-12147.83784
-12141.24407
-12131.61047
-12134.85147
-12142.27225
-12137.7125
-12129.79998
-12133.06333
-12141.44524
-12135.902
-12122.55801
-12122.96034
-12131.09638
-12126.38016
-12114.98077
-12112.56678
-12121.1275
-12124.48026
-12117.61828
-12112.92441
-12118.19942
-12121.75335
-12112.49973
-12103.87195
-12108.16349
-12113.23733
-12107.58234
-12100.58625
-12104.43075
-12111.38214
-12105.50363
-12094.1713
-12096.56293
-12105.32482
-12104.31899
-12094.97596
-12096.98762
-12107.0459
-12107.35883
-12097.38995
-12096.27236
-12106.01772
-12107.89527
-12097.90404
-12093.88072
-12102.28498
-12105.25776
-12096.22766
-12089.70095
-12095.49005
-12100.11686
-12091.7126
-12081.83313
-12085.1859
-12090.90794
-12084.98473
-12074.81469
-12074.85939
-12083.35305
-12081.02847
-12071.23841
-12071.01489
-12081.18493
-12084.22477
-12076.78164
-12073.94297
-12083.24129
-12086.54935
-12076.26755
-12073.51828
-12084.87297
-12089.99152
-12082.25782
-12077.5863
-12087.24226
-12094.48422
-12085.85645
-12077.67571
-12083.3754
-12090.99735
-12083.55422
-12073.6524
-12075.39583
-12084.82827
-12084.18007
-12075.88757
-12075.30642
-12083.10718
-12086.43759
-12077.98863
-12075.93227
-12085.16354
-12092.29375
-12085.05179
-12077.85452
-12084.64945
-12092.42786
-12086.45995
-12079.79913
-12084.38123
-12090.95265
-12086.90698
-12080.49203
-12083.26365
-12088.22573
-12081.96724
-12074.05473
-12075.93227
-12083.48716
-12082.16841
-12074.3453
-12072.11013
-12082.48133
-12084.49299
-12073.38417
-12069.8973
-12077.83217
-12079.19563
-12072.08777
-12069.74084
-12080.42497
-12083.91185
-12072.69127
-12065.56106
-12069.69614
-12071.35017
-12063.70587
-12050.36188
-12039.49893
-12024.29974
-12002.75266
-11987.97816
-11986.92763
-11995.08601
-11999.66812
-11992.94025
-11995.13072
-12013.4815
-12026.3114
-12021.57283
-12029.10537
-12063.72822
-12078.86035
-12073.78651
-12073.60769
-12082.77191
-12085.8788
-12078.05569
-12071.88661
-12080.35792
-12088.44925
-12081.52021
-12070.81372
-12063.03532
-12063.14708
-12077.80982
-12071.7972
-11982.56904
-11766.96411
-11421.00381
-11207.23173
-11271.09066
-11478.35839
-11780.84454
-12031.18408
-12043.16462
-12027.76426
-12036.97318
-12038.13547
-12045.08687
-12063.59411
-12078.70389
-12076.80399
-12073.42888
-12079.4415
-12087.28696
-12085.76704
-12079.08387
-12081.58726
-12087.57753
-12083.19659
-12074.3453
-12074.09943
-12084.00125
-12082.6378
-12067.908
-12065.60577
-12073.49593
-12076.3346
-12071.03724
-12067.81859
-12074.43471
-12078.94976
-12070.97019
-12066.52219
-12072.02072
-12073.94297
-12061.67186
-12050.13836
-12049.89249
-12054.13932
-12045.01981
-12032.48048
-12033.59807
-12037.55433
-12029.39594
-12012.85565
-12004.80902
-12009.50289
-12006.82068
-11991.42033
-11982.83726
-11985.13949
-11978.99276
-11960.70903
-11948.23676
-11946.69449
-11942.4253
-11927.06966
-11912.38456
-11908.74122
-11904.13677
-11884.55664
-11867.45755
-11864.68594
-11862.71898
-11849.86673
-11835.22634
-11833.32644
-11838.98143
-11837.2827
-11831.42654
-11833.54996
-11846.13399
-11848.10094
-11842.82593
-11847.47509
-11868.53044
-11885.47306
-11894.52552
-11910.70818
-11938.98314
-11961.40193
-11969.2921
-11981.94319
-12002.41739
-12019.15884
-12022.84688
-12026.22199
-12039.67774
-12054.60871
-12055.94981
-12051.70298
-12057.0674
-12068.53385
-12071.59603
-12062.1189
-12063.4153
-12074.14413
-12077.11692
-12070.56785
-12069.29381
-12076.53577
-12079.30739
-12070.00906
-12062.36476
-12068.62325
-12074.41235
-12065.58342
-12058.60967
-12062.02949
-12069.8526
-12063.90703
-12056.44155
-12059.88372
-12066.23162
-12061.80597
-12055.79335
-12058.34145
-12070.03141
-12072.37835
-12066.79041
-12070.5008
-12084.33653
-12087.10815
-12077.5863
-12075.95463
-12083.42011
-12084.5824
-12071.37252
-12063.25883
-12072.17718
-12078.30156
-12068.17622
-12057.98382
-12061.18012
-12063.86233
-12055.59219
-12048.17141
-12051.99356
-12057.17916
-12050.74186
-12042.53877
-12044.41631
-12052.15002
-12052.75351
-12044.14809
-12042.09173
-12050.09366
-12053.35701
-12043.90222
-12037.42022
-12043.96928
-12048.75255
-12040.01302
-12034.93917
-12043.09756
-12048.30552
-12041.75646
-12035.49797
-12043.03051
-12046.27151
-12040.72828
-12033.3522
-12037.01789
-12043.09756
-12040.16948
-12031.02762
-12029.93238
-12036.16852
-12034.06746
-12024.45621
-12024.59032
-12034.24627
-12035.81089
-12024.45621
-12020.49995
-12029.19478
-12033.57572
-12026.13259
-12020.96933
-12027.13842
-12031.58641
-12025.03735
-12017.3707
-12023.02569
-12028.97126
-12023.42803
-12015.80608
-12019.13649
-12026.75844
-12024.4115
-12016.29782
-12016.76721
-12025.95377
-12023.36097
-12009.07821
-12006.66422
-12014.44262
-12009.01115
-11993.76726
-11980.98206
-11974.81298
-11961.04431
-11941.0395
-11932.92581
-11937.12794
-11941.19596
-11937.53027
-11932.34467
-11941.91121
-11962.31836
-11972.4437
-11973.69539
-11994.72839
-12020.58935
-12021.68459
-12015.4261
-12017.72833
-12027.07136
-12026.37846
-12018.26477
-12016.94602
-12024.9703
-12027.76426
-12019.96351
-12013.86148
-12006.86538
-12002.81972
-12007.98297
-11996.87415
-11903.15329
-11690.20822
-11390.22546
-11236.40075
-11329.45106
-11546.12887
-11849.57616
-12041.86821
-12022.4222
-12001.67978
-12000.0928
-12000.56219
-12012.47567
-12031.18408
-12039.52128
-12035.14034
-12038.82838
-12052.73116
-12062.49887
-12062.52123
-12064.93522
-12075.41818
-12080.62614
-12076.08874
-12073.56299
-12082.95072
-12092.09258
-12089.34332
-12085.40941
-12092.20434
-12101.52502
-12099.78158
-12091.19851
-12093.36663
-12102.91083
-12101.97206
-12093.29958
-12096.02649
-12103.78255
-12102.64261
-12092.40551
-12089.34332
-12095.66886
-12094.1713
-12080.42497
-12071.59603
-12074.76998
-12075.21702
-12061.89538
-12048.61844
-12049.91484
-12052.26178
-12040.90709
-12025.90907
-12024.4115
-12027.5631
-12017.21424
-12000.42808
-11995.93538
-11997.70117
-11986.88292
-11967.25809
-11958.67502
-11962.2066
-11954.94228
-11937.48557
-11925.95207
-11927.02495
-11924.16393
-11908.22713
-11897.18537
-11902.84036
-11908.36125
-11902.39333
-11898.2359
-11907.60129
-11918.79951
-11919.49241
-11921.99581
-11942.60412
-11969.91795
-11986.05591
-11995.82362
-12017.9295
-12047.90319
-12066.0081
-12073.78651
-12087.89046
-12110.42102
-12124.25674
-12124.05558
-12129.53176
-12145.4462
-12154.18573
-12149.22364
-12148.01665
-12157.20322
-12164.22166
-12158.969
-12153.96221
-12161.33829
-12167.23915
-12163.61817
-12157.69495
-12163.55111
-12171.66479
-12168.53555
-12157.71731
-12154.61041
-12159.37134
-12154.14103
-12142.42871
-12141.53464
-12148.93307
-12146.00499
-12134.00211
-12127.81067
-12133.48802
-12136.90783
-12127.00601
-12120.74752
-12127.14012
-12130.31407
-12120.50165
-12111.5386
-12114.7349
-12118.55705
-12111.20333
-12102.48615
-12104.65427
-12111.76212
-12108.58817
-12098.68635
-12098.1052
-12105.1013
-12105.34717
-12097.3676
-12094.52892
-12103.53668
-12104.05077
-12093.43369
-12088.71747
-12095.40064
-12098.08285
-12088.4269
-12082.86131
-12089.47743
-12092.3161
-12082.88367
-12075.30642
-12079.12857
-12082.74956
-12075.46289
-12066.41043
-12070.05376
-12078.25685
-12074.47941
-12063.97409
-12062.02949
-12069.13734
-12069.09264
-12059.97313
-12057.26857
-12065.98575
-12069.29381
-12059.34728
-12054.5193
-12062.8565
-12065.82928
-12058.29675
-12049.51251
-12053.96051
-12058.3638
-12049.93719
-12041.97997
-12045.86918
-12053.64758
-12047.83613
-12036.72731
-12038.60486
-12044.77394
-12040.97415
-12029.30653
-12026.17729
-12033.08398
-12030.13355
-12020.07526
-12020.74582
-12031.22878
-12033.57572
-12025.32792
-12021.05874
-12028.43482
-12032.07815
-12023.58449
-12016.94602
-12021.50578
-12027.02666
-12018.08596
-12009.88287
-12014.91201
-12020.90228
-12012.20745
-11995.66716
-11995.06366
-12001.23274
-11994.37076
-11979.77507
-11968.77801
-11963.07832
-11946.35921
-11923.60513
-11919.24654
-11925.6615
-11929.88598
-11925.90736
-11923.29221
-11937.99966
-11955.814
-11958.27269
-11955.63518
-11979.86448
-12011.29103
-12013.45915
-12010.15109
-12019.02473
-12027.98778
-12022.86923
-12012.67684
-12013.36974
-12022.77983
-12023.31627
-12015.89549
-12011.35808
-12006.08307
-12002.88677
-12011.82747
-11991.6662
-11871.86085
-11605.4504
-11265.25685
-11145.51856
-11272.07414
-11506.65569
-11807.59958
-11987.53112
-11969.49327
-11962.16189
-11967.77218
-11971.48257
-11986.81587
-12005.25606
-12010.86635
-12009.39113
-12013.92853
-12021.70694
-12022.64571
-12014.88966
-12015.20258
-12027.29488
-12028.92655
-12016.58839
-12012.45332
-12020.58935
-12023.09275
-12016.25312
-12013.34739
-12021.84105
-12027.76426
-12020.65641
-12012.25215
-12017.88479
-12024.54561
-12018.28712
-12009.72641
-12013.25798
-12021.48342
-12020.25408
-12011.11221
-12012.16275
-12018.91297
-12013.28033
-12000.02575
-11996.76239
-12004.87608
-12006.70892
-11994.57192
-11987.8664
-11990.74978
-11991.0627
-11977.53989
-11964.37472
-11963.61476
-11963.4583
-11950.00255
-11935.07158
-11934.51279
-11935.31745
-11919.58182
-11901.85689
-11894.70433
-11891.28451
-11877.51584
-11856.99694
-11847.31863
-11846.29045
-11837.72973
-11822.99993
-11817.79198
-11823.894
-11824.29633
-11814.37216
-11811.80171
-11820.92122
-11828.52081
-11822.57525
-11821.9047
-11839.54022
-11858.67332
-11867.32344
-11877.0241
-11900.20286
-11924.72272
-11936.70326
-11945.37573
-11962.45247
-11981.00441
-11988.71577
-11987.8217
-11996.67299
-12012.54273
-12017.90714
-12011.51455
-12013.92853
-12026.60197
-12032.6593
-12025.77496
-12023.69625
-12030.62529
-12034.08981
-12028.8148
-12024.25504
-12032.23461
-12038.26958
-12032.61459
-12026.33375
-12029.97709
-12037.30846
-12031.78758
-12023.87506
-12028.32306
-12037.152
-12032.63694
-12024.09858
-12023.1598
-12030.42412
-12027.83132
-12016.49898
-12013.19093
-12019.09179
-12019.44942
-12009.05585
-12004.83137
-12011.29103
-12013.97324
-12002.61855
-11994.57192
-12000.29397
-12006.82068
-12000.96452
-11992.44851
-11998.59524
-12007.71475
-12004.07141
-11994.50487
-11998.48348
-12009.32407
-12008.69823
-11999.42225
-11997.87998
-12007.33477
-12009.90522
-12003.82555
-12003.53497
-12013.57091
-12016.20841
-12007.11125
-12003.66908
-12011.80512
-12016.81191
-12009.90522
-12002.57385
-12007.58064
-12011.96158
-12005.05489
-11996.87415
-12000.6516
-12008.47471
-12003.95966
-11995.77892
-11999.24344
-12007.49123
-12004.18317
-11995.5554
-11993.40963
-12000.15986
-11999.55636
-11988.06757
-11984.44658
-11991.86736
-11995.04131
-11986.97233
-11980.8703
-11986.77116
-11991.21916
-11984.17836
-11977.38343
-11983.17253
-11990.83918
-11986.41354
-11978.61278
-11982.34552
-11992.51556
-11989.78865
-11981.04912
-11985.74298
-11994.9072
-11995.13072
-11987.30761
-11989.47573
-12000.02575
-12000.83041
-11991.97912
-11989.98982
-11997.90233
-12000.11516
-11991.44268
-11987.28525
-11996.91886
-12003.46792
-11996.40477
-11990.01217
-11994.2143
-12000.60689
-11997.25413
-11991.88971
-11998.32702
-12008.54176
-12006.10542
-11998.43878
-12000.71865
-12010.35226
-12010.77694
-12000.31632
-11998.84111
-12007.55829
-12009.52524
-12000.0928
-11996.71769
-12005.97131
-12010.84399
-12001.61272
-11992.78378
-11998.08115
-12001.38921
-11988.20168
-11973.06955
-11972.93543
-11967.54866
-11946.24745
-11921.92875
-11915.64791
-11921.95111
-11921.39231
-11918.35247
-11925.57209
-11940.83833
-11946.94036
-11950.1143
-11956.99864
-11973.24836
-11999.10933
-12003.53497
-12002.28328
-12014.46498
-12021.70694
-12015.3814
-12009.23467
-12014.1744
-12021.95281
-12016.54369
-12011.26868
-12016.54369
-12014.1297
-11996.98591
-12001.23274
-12018.37653
-11951.61187
-11723.44526
-11345.65608
-11121.46808
-11183.56123
-11375.22744
-11644.23068
-11917.72663
-11971.57198
-11950.15901
-11956.4175
-11964.46412
-11983.61957
-11998.50583
-11996.2483
-11993.34258
-12004.56315
-12013.72737
-12008.87704
-12005.07724
-12009.83817
-12016.83426
-12013.5262
-12004.98784
-12009.41348
-12021.14815
-12021.2152
-12014.37557
-12017.19189
-12028.1666
-12028.256
-12017.99655
-12016.18606
-12024.50091
-12024.76913
-12014.75555
-12009.56994
-12015.02377
-12017.25894
-12008.00532
-12000.45043
-12007.20066
-12013.79442
-12007.75945
-11998.25996
-11999.62342
-12003.31146
-11997.61176
-11985.69828
-11984.80421
-11990.16863
-11986.5253
-11973.89656
-11969.20269
-11972.10842
-11965.69347
-11950.36017
-11941.84416
-11947.09682
-11943.94522
-11926.06383
-11912.49632
-11911.55754
-11908.78593
-11890.79277
-11872.66551
-11869.64802
-11869.13393
-11858.22628
-11844.9717
-11844.79288
-11849.97849
-11846.13399
-11838.33323
-11840.41194
-11848.168
-11844.77053
-11834.57814
-11837.3274
-11853.2642
-11866.0941
-11869.64802
-11882.1203
-11908.11538
-11929.52835
-11939.20665
-11951.45541
-11977.47284
-11998.84111
-12003.57968
-12006.19483
-12019.38236
-12032.25696
-12031.63112
-12029.77592
-12040.16948
-12051.45711
-12050.51834
-12047.00912
-12053.89345
-12064.68935
-12066.0528
-12059.07906
-12063.68352
-12077.87688
-12081.54256
-12071.7972
-12068.42209
-12076.55812
-12078.05569
-12067.908
-12062.25301
-12068.10916
-12074.56882
-12066.701
-12057.1121
-12062.92356
-12066.29867
-12058.74378
-12049.11018
-12053.60288
-12059.86137
-12054.34049
-12043.27637
-12041.71175
-12048.88666
-12047.83613
-12039.27541
-12036.05676
-12043.00815
-12040.75063
-12032.14521
-12030.1559
-12037.44257
-12039.67774
-12029.41829
-12021.57283
-12027.74191
-12031.78758
-12024.88089
-12019.3153
-12020.85758
-12026.84784
-12020.27643
-12009.72641
-12013.05682
-12018.04126
-12011.84982
-12000.40573
-12001.948
-12012.25215
-12012.09569
-12003.1997
-12001.56802
-12007.67005
-12006.28424
-11996.27066
-11991.50973
-11999.82458
-12001.07628
-11992.4038
-11987.2182
-11992.00147
-11997.81293
-11987.8664
-11979.66331
-11985.85474
-11993.92372
-11989.90041
-11981.83143
-11987.41937
-11996.09184
-11994.77309
-11987.50877
-11989.09575
-11998.52818
-11999.19873
-11990.99564
-11990.61566
-11998.41642
-12000.27162
-11991.50973
-11990.12393
-11998.17055
-12001.9927
-11994.01313
-11989.92276
-11998.28231
-12002.84207
-11993.27552
-11987.48642
-11995.98008
-12005.01019
-12004.11612
-11997.18708
-12001.16569
-12010.10639
-12007.60299
-11997.85763
-12001.16569
-12012.8333
-12015.13553
-12007.60299
-12008.67587
-12018.93533
-12023.7186
-12019.40471
-12019.82939
-12028.54658
-12031.11703
-12017.52717
-12011.04516
-12016.14136
-12020.16467
-12008.89939
-11996.98591
-11992.3591
-11987.15114
-11965.62641
-11943.16291
-11941.93357
-11949.86843
-11951.29895
-11947.36504
-11950.42723
-11966.27462
-11982.39022
-11985.58652
-11991.91207
-12022.95864
-12043.36578
-12041.01885
-12040.95179
-12050.25012
-12057.64855
-12049.84779
-12044.75159
-12053.04409
-12059.45904
-12053.8711
-12043.99163
-12043.5893
-12036.74967
-12027.49604
-12033.93335
-12015.35905
-11896.60423
-11637.86043
-11342.61624
-11247.93425
-11380.07776
-11607.70793
-11912.42926
-12051.43476
-12018.39888
-11999.69047
-11989.31926
-11992.80614
-12009.05585
-12019.82939
-12018.28712
-12017.66128
-12024.3221
-12028.92655
-12021.57283
-12013.95089
-12021.30461
-12030.29001
-12027.98778
-12021.23755
-12024.18798
-12031.22878
-12029.66416
-12021.75164
-12018.84592
-12024.34445
-12024.63502
-12016.99072
-12015.4261
-12023.31627
-12025.6185
-12018.39888
-12015.4261
-12023.69625
-12026.62433
-12018.86827
-12010.08403
-12015.22494
-12022.75747
-12013.68267
-11999.66812
-11999.66812
-12005.32311
-11996.91886
-11982.85961
-11979.37274
-11982.61374
-11976.91405
-11963.34654
-11954.49525
-11954.02586
-11946.8733
-11931.13767
-11922.57695
-11923.91806
-11918.24072
-11900.58284
-11886.0095
-11884.26606
-11878.81224
-11860.50616
-11840.5237
-11835.22634
-11835.11458
-11820.56359
-11803.9786
-11801.18463
-11805.9232
-11803.64332
-11796.35665
-11798.68124
-11806.59375
-11807.66664
-11803.35275
-11808.49365
-11826.33034
-11839.58493
-11848.48092
-11867.25639
-11897.20772
-11919.09008
-11927.6508
-11938.82667
-11958.78678
-11977.13756
-11981.04912
-11982.56904
-11995.39894
-12007.6924
-12006.03837
-12003.35616
-12009.77111
-12020.49995
-12018.6224
-12011.33573
-12013.5262
-12025.52909
-12027.11606
-12019.38236
-12020.23173
-12028.9042
-12029.5077
-12021.08109
-12019.04708
-12025.75261
-12028.72539
-12020.32113
-12012.92271
-12017.21424
-12021.57283
-12015.4708
-12008.47471
-12013.59326
-12021.774
-12016.49898
-12006.59716
-12008.60882
-12014.68849
-12010.66518
-12002.66326
-12003.87025
-12010.8887
-12008.76528
-11996.42712
-11995.22012
-12004.29493
-12004.56315
-11995.75657
-11992.44851
-12001.12098
-12003.51262
-11993.02965
-11988.82753
-11995.35423
-11998.77405
-11991.88971
-11984.20071
-11988.89458
-11994.68368
-11989.65454
-11979.17157
-11982.03259
-11990.95094
-11989.00634
-11978.43396
-11978.9257
-11986.43589
-11984.64775
-11975.57294
-11975.55059
-11981.89848
-11982.05495
-11972.30959
-11970.02971
-11978.8363
-11983.12783
-11975.21531
-11970.47674
-11979.14922
-11982.41257
-11973.65069
-11964.17355
-11969.00153
-11976.44466
-11970.61085
-11959.45733
-11959.94907
-11965.55936
-11962.2066
-11951.94715
-11951.14248
-11959.81496
-11961.11136
-11953.33296
-11953.69058
-11961.33488
-11960.59727
-11947.25328
-11940.436
-11945.6216
-11944.12404
-11932.65759
-11915.40204
-11905.79079
-11894.9502
-11879.30398
-11869.67038
-11870.36328
-11878.52167
-11876.62177
-11868.6869
-11878.61107
-11902.81801
-11910.30585
-11909.1212
-11931.78587
-11954.07056
-11959.54674
-11955.7693
-11957.95977
-11968.55449
-11972.86838
-11964.57588
-11961.08901
-11968.50979
-11973.51658
-11964.59823
-11954.5623
-11947.83443
-11956.4622
-11966.56519
-11928.18724
-11797.31778
-11542.19497
-11256.65143
-11174.15114
-11318.87869
-11567.94418
-11877.47113
-11991.80031
-11944.68283
-11936.32328
-11938.5808
-11937.97731
-11946.33686
-11965.69347
-11975.52824
-11970.34263
-11972.06372
-11982.18906
-11987.88875
-11982.97137
-11979.37274
-11985.51947
-11992.3144
-11987.01703
-11978.90335
-11983.77603
-11991.88971
-11985.51947
-11974.14243
-11975.23766
-11981.74202
-11976.19879
-11964.68764
-11965.20173
-11974.23184
-11976.64582
-11968.37568
-11966.81106
-11973.51658
-11974.9918
-11966.65459
-11958.00447
-11964.28531
-11966.52048
-11954.62936
-11944.34755
-11948.8179
-11952.90827
-11944.30285
-11930.04244
-11930.64593
-11934.60219
-11925.28152
-11910.70818
-11907.06484
-11907.84716
-11899.93464
-11880.64508
-11870.60915
-11870.87737
-11861.91432
-11841.95421
-11825.32451
-11822.15057
-11816.04854
-11797.07191
-11781.40334
-11779.45873
-11776.4189
-11763.52194
-11752.23431
-11753.28484
-11755.78824
-11748.56862
-11740.20907
-11744.52296
-11757.35286
-11760.97384
-11761.55499
-11781.47039
-11811.73465
-11833.08057
-11846.11164
-11868.30692
-11897.45359
-11917.81603
-11927.06966
-11940.88303
-11961.82662
-11976.66818
-11976.08703
-11976.55642
-11989.78865
-11999.73518
-11996.1589
-11992.71673
-12001.54567
-12012.07334
-12010.55342
-12002.05976
-12003.73614
-12011.96158
-12009.88287
-12003.33381
-12006.19483
-12014.1297
-12012.16275
-12001.3445
-11999.3999
-12008.00532
-12010.62048
-12001.23274
-11996.60593
-12003.49027
-12007.02185
-11998.57289
-11992.58262
-11998.81876
-12003.51262
-11997.83528
-11990.50391
-11994.84014
-12000.67395
-11995.86832
-11986.43589
-11988.93928
-11996.96356
-11994.68368
-11982.83726
-11981.71967
-11990.4592
-11992.06853
-11983.73133
-11982.21141
-11989.29691
-11992.53791
-11986.25707
-11982.32317
-11988.49225
-11991.46503
-11981.18323
-11975.0365
-11982.34552
-11987.2182
-11979.4845
-11971.68374
-11975.97527
-11985.63123
-11981.5185
-11969.87325
-11971.21435
-11982.97137
-11984.91597
-11978.16574
-11978.99276
-11988.98399
-11989.83335
-11980.37857
-11979.43979
-11989.36397
-11991.28622
-11981.49615
-11975.14826
-11981.87613
-11986.14532
-11978.43396
-11974.23184
-11983.64192
-11989.65454
-11981.74202
-11972.86838
-11976.19879
-11983.26194
-11978.9257
-11970.67791
-11971.7955
-11978.52337
-11977.5846
-11967.90629
-11965.58171
-11971.92961
-11969.49327
-11958.60797
-11957.53508
-11965.62641
-11969.60503
-11964.39707
-11960.9996
-11967.79453
-11973.49423
-11966.63224
-11960.93255
-11969.96265
-11976.39996
-11970.38734
-11963.39124
-11968.15216
-11976.06468
-11972.77897
-11965.46995
-11967.10163
-11976.71288
-11975.19296
-11962.74304
-11958.74208
-11966.1405
-11962.92185
-11947.67796
-11939.8772
-11935.47391
-11922.17462
-11897.11832
-11880.98036
-11886.613
-11891.53038
-11890.97159
-11889.71989
-11899.73347
-11914.97736
-11922.97929
-11922.17462
-11932.21056
-11961.40193
-11975.10355
-11970.05206
-11977.20462
-11988.31344
-11987.55348
-11978.32221
-11977.29403
-11987.75464
-11990.43685
-11981.96554
-11979.95388
-11984.0219
-11973.76245
-11972.22018
-11989.27456
-11951.00837
-11777.24591
-11425.69768
-11120.77518
-11109.88988
-11279.94195
-11532.65077
-11830.73364
-11952.0142
-11934.53514
-11941.75475
-11948.19205
-11959.77026
-11979.70801
-11989.36397
-11986.43589
-11991.1074
-12004.07141
-12010.03933
-12002.73031
-12000.91982
-12009.90522
-12012.69919
-12003.57968
-11997.58941
-12002.90912
-12007.82651
-12002.05976
-11994.46016
-11999.06462
-12006.15013
-12002.41739
-11994.14724
-11995.98008
-12001.16569
-11995.01896
-11981.71967
-11980.19975
-11986.03356
-11985.51947
-11974.41065
-11971.50492
-11979.39509
-11981.16088
-11971.50492
-11965.13468
-11971.08024
-11971.32611
-11960.17259
-11949.4661
-11949.4214
-11948.59439
-11936.18917
-11922.88988
-11920.47589
-11919.64888
-11903.8909
-11883.32729
-11877.6723
-11876.55471
-11865.06592
-11847.67626
-11838.66851
-11836.83566
-11824.81042
-11804.26917
-11793.96502
-11791.77455
-11783.30323
-11764.46071
-11753.4413
-11756.72701
-11760.23623
-11753.84364
-11748.63568
-11754.91652
-11760.90679
-11757.1964
-11754.6483
-11768.8193
-11790.5452
-11802.50338
-11812.964
-11837.77444
-11867.4799
-11884.78015
-11896.76069
-11917.01137
-11943.96757
-11958.87619
-11962.22895
-11971.50492
-11988.73812
-11999.60107
-11998.0588
-11997.36589
-12010.26285
-12020.81287
-12019.44942
-12020.16467
-12033.79924
-12046.76325
-12046.7856
-12047.74672
-12061.38129
-12077.78747
-12082.19076
-12081.07317
-12087.89046
-12099.24514
-12101.8603
-12099.9604
-12109.30343
-12123.78736
-12128.30241
-12120.76987
-12120.09932
-12131.87869
-12138.65127
-12135.23145
-12136.28198
-12147.27904
-12154.45395
-12150.29653
-12146.85436
-12155.99622
-12167.48502
-12166.36743
-12164.0652
-12172.82709
-12183.9359
-12185.27701
-12180.89607
-12186.72987
-12203.31487
-12211.83088
-12211.51796
-12221.10685
-12238.9659
-12250.29823
-12253.1369
-12261.07177
-12277.34384
-12288.54207
-12287.42448
-12292.36421
-12309.57506
-12322.62848
-12323.70136
-12326.11535
-12341.44865
-12356.31256
-12356.49137
-12354.97145
-12366.05792
-12382.97819
-12386.37565
-12384.87809
-12397.61858
-12415.00824
-12418.33865
-12411.65548
-12415.56703
-12427.3911
-12431.57088
-12426.40763
-12428.70986
-12441.51741
-12444.28902
-12435.66125
-12431.45912
-12437.89642
-12443.75258
-12436.3765
-12430.43094
-12436.08593
-12442.88086
-12437.38233
-12428.41928
-12430.65446
-12438.11994
-12432.97904
-12421.44554
-12422.60783
-12428.79926
-12422.40666
-12407.4757
-12403.47474
-12408.88386
-12407.54275
-12393.14823
-12384.4534
-12388.54377
-12388.81199
-12376.33972
-12366.68377
-12367.86841
-12364.29213
-12351.08225
-12338.63233
-12339.10171
-12341.44865
-12329.91515
-12315.92295
-12312.6149
-12314.98418
-12306.84815
-12289.79376
-12284.5411
-12289.83847
-12284.02701
-12268.5149
-12260.40122
-12262.34582
-12257.42844
-12239.79291
-12227.38769
-12227.20888
-12225.89013
-12213.90959
-12203.78425
-12206.80174
-12208.09814
-12194.70944
-12178.88441
-12175.30813
-12176.17985
-12167.03798
-12151.95056
-12149.15659
-12152.62111
-12146.80966
-12132.59395
-12128.97296
-12132.99628
-12129.10707
-12116.83597
-12112.43267
-12113.88554
-12109.28108
-12090.975
-12075.6864
-12075.93227
-12069.11499
-12042.24819
-12016.54369
-12004.78667
-11995.5554
-11981.02677
-11974.25419
-11985.07243
-11994.8625
-11989.63219
-11980.89266
-11991.018
-12003.13264
-12003.2891
-12012.45332
-12029.73122
-12038.96249
-12036.99553
-12025.81966
-12021.61753
-12026.08788
-12025.55144
-12015.64962
-12012.2298
-12019.69528
-12022.64571
-12009.6817
-11991.44268
-12007.84886
-12035.63208
-11977.91987
-11775.10014
-11416.13113
-11139.0589
-11140.40001
-11306.2276
-11578.87418
-11886.68005
-11973.20366
-11937.41851
-11952.21537
-11976.71288
-11987.2629
-11987.41937
-11994.79544
-12009.83817
-12015.71667
-12008.51941
-12003.91495
-12012.98976
-12018.19772
-12011.11221
-12003.51262
-12006.4854
-12011.82747
-12005.1443
-11997.70117
-12000.91982
-12008.92174
-12006.06072
-11996.8518
-11998.48348
-12007.42418
-12007.62534
-11996.38241
-11991.17446
-11998.72935
-11997.00826
-11982.7255
-11976.71288
-11984.40188
-11986.70411
-11976.64582
-11970.99083
-11977.5846
-11979.99859
-11968.84507
-11961.02196
-11962.36306
-11962.40776
-11951.18719
-11938.87138
-11936.45739
-11939.02784
-11928.2543
-11913.83742
-11911.06581
-11911.69166
-11902.5945
-11886.74711
-11877.40408
-11880.44392
-11872.30788
-11853.44301
-11840.27783
-11836.05335
-11826.95619
-11806.75021
-11789.80759
-11787.9971
-11788.06416
-11777.22356
-11766.83
-11769.62397
-11774.5637
-11765.75712
-11755.58707
-11759.85626
-11770.0263
-11771.88149
-11772.19442
-11790.52285
-11815.5568
-11829.6384
-11838.89202
-11856.57225
-11884.15431
-11902.77331
-11907.31071
-11917.74898
-11938.71491
-11948.97436
-11945.64395
-11946.89565
-11960.28435
-11968.5992
-11964.1512
-11958.38445
-11963.48065
-11968.10746
-11962.8995
-11955.34461
-11958.25034
-11966.00639
-11962.02778
-11953.08709
-11954.15997
-11963.74887
-11961.26782
-11954.13762
-11953.89175
-11962.34071
-11964.17355
-11955.38932
-11953.57882
-11962.18425
-11963.39124
-11951.47776
-11945.75571
-11952.0142
-11958.69737
-11952.68475
-11944.90635
-11950.0249
-11954.31643
-11946.58273
-11935.40686
-11938.31258
-11950.1143
-11946.53802
-11937.61968
-11939.47487
-11947.76737
-11944.83929
-11932.50113
-11928.70133
-11939.7878
-11942.26884
-11931.71882
-11927.24847
-11937.59733
-11943.05115
-11934.91512
-11933.68577
-11943.34173
-11949.86843
-11943.92287
-11936.43504
-11940.59246
-11946.918
-11942.44766
-11933.26109
-11935.74213
-11945.08516
-11943.0735
-11933.77518
-11934.95982
-11944.70518
-11945.48749
-11937.68673
-11937.12794
-11947.5215
-11952.55064
-11944.77224
-11941.86651
-11949.48845
-11952.84122
-11947.85678
-11947.07447
-11955.41167
-11963.39124
-11957.0657
-11950.78486
-11954.45054
-11959.50204
-11955.34461
-11946.53802
-11950.80721
-11962.05014
-11960.01613
-11949.53316
-11951.41071
-11960.79844
-11963.4583
-11956.93159
-11955.03169
-11963.86063
-11964.21825
-11956.66336
-11954.80817
-11962.38541
-11969.8956
-11962.49717
-11955.72459
-11962.63128
-11969.00153
-11960.37375
-11956.03752
-11964.82175
-11972.68957
-11967.03457
-11957.55743
-11959.94907
-11969.00153
-11965.91699
-11954.40584
-11956.70807
-11965.58171
-11963.36889
-11953.89175
-11951.366
-11961.46899
-11965.62641
-11958.13858
-11949.89079
-11952.48359
-11958.49621
-11946.40391
-11935.2951
-11937.08324
-11932.88111
-11910.48466
-11884.82486
-11880.62273
-11885.45071
-11880.73449
-11874.67717
-11881.4721
-11889.8987
-11890.23398
-11892.49151
-11906.64016
-11923.94041
-11947.02976
-11954.67406
-11953.80234
-11966.85576
-11970.5438
-11961.11136
-11956.68572
-11966.00639
-11972.01901
-11962.72069
-11958.87619
-11966.63224
-11970.16382
-11951.12013
-11937.41851
-11955.72459
-11949.28729
-11832.8794
-11592.86637
-11312.53079
-11195.09473
-11293.84473
-11502.00653
-11813.83572
-11995.80127
-11963.07832
-11924.25334
-11918.0619
-11933.90929
-11947.29798
-11945.6216
-11947.58856
-11959.14441
-11965.08997
-11961.46899
-11959.09971
-11967.66042
-11974.45535
-11970.83437
-11962.72069
-11965.58171
-11973.71775
-11968.53214
-11958.42915
-11958.85384
-11966.0958
-11963.32418
-11951.07543
-11946.42627
-11953.69058
-11954.31643
-11944.36991
-11940.25718
-11945.5322
-11946.24745
-11935.13864
-11928.47782
-11933.75283
-11937.2844
-11927.67315
-11917.57016
-11920.16297
-11924.4545
-11917.52546
-11908.3836
-11909.65765
-11914.50797
-11903.73443
-11888.19997
-11883.79668
-11889.38461
-11884.53429
-11868.93277
-11860.86379
-11860.81908
-11853.59947
-11835.67337
-11821.03298
-11816.94261
-11810.32649
-11793.58504
-11780.48692
-11775.61423
-11768.28286
-11750.33441
-11733.28003
-11728.78733
-11728.69792
-11719.489
-11707.50847
-11707.8661
-11717.20913
-11716.73974
-11709.52013
-11714.88455
-11731.20132
-11744.85823
-11751.11672
-11769.40045
-11799.15062
-11820.80946
-11832.54413
-11846.67043
-11870.98913
-11889.40697
-11893.31852
-11897.5877
-11912.49632
-11924.61096
-11923.56043
-11921.12409
-11930.64593
-11941.7771
-11937.9326
-11931.07062
-11937.70909
-11949.08612
-11949.15318
-11943.677
-11945.33103
-11955.52343
-11957.78095
-11948.21441
-11945.39809
-11953.75764
-11954.04821
-11944.57107
-11941.48653
-11952.6177
-11955.59048
-11945.06281
-11937.53027
-11943.56524
-11947.92383
-11941.35242
-11934.22221
-11938.20082
-11943.7217
-11937.2397
-11926.26499
-11929.34953
-11936.74796
-11934.15516
-11924.34274
-11925.16976
-11933.08227
-11930.8471
-11920.92293
-11917.81603
-11924.07452
-11925.57209
-11917.369
-11915.5138
-11924.05217
-11926.08618
-11918.75481
-11913.94918
-11920.09591
-11926.68968
-11921.61583
-11913.90448
-11917.88309
-11926.26499
-11922.75577
-11915.40204
-11917.61487
-11924.05217
-11920.47589
-11911.04345
-11911.87047
-11920.14061
-11919.22419
-11909.27767
-11908.20478
-11919.53712
-11924.07452
-11917.81603
-11914.68679
-11922.26403
-11925.01329
-11917.88309
-11911.53519
-11917.90544
-11925.058
-11918.57599
-11910.90934
-11916.7208
-11925.90736
-11922.37579
-11911.93752
-11914.48562
-11925.058
-11924.94624
-11916.36317
-11917.34665
-11926.08618
-11926.55557
-11918.39718
-11919.20184
-11929.03661
-11932.12115
-11923.62749
-11920.27472
-11927.91902
-11933.12698
-11925.68385
-11921.23585
-11925.52738
-11926.68968
-11919.20184
-11909.63529
-11906.46135
-11909.61294
-11895.53134
-11871.65968
-11857.28751
-11853.89004
-11851.3643
-11841.2166
-11844.34585
-11858.33804
-11863.5907
-11862.78604
-11874.61011
-11894.79374
-11903.3321
-11915.17853
-11929.03661
-11941.15125
-11949.01907
-11945.39809
-11938.4914
-11942.64882
-11946.35921
-11943.00645
-11938.42434
-11943.47584
-11951.56717
-11943.60995
-11920.52059
-11923.1134
-11953.75764
-11930.66829
-11786.27602
-11510.34373
-11210.83036
-11125.82667
-11252.51636
-11481.82291
-11801.25169
-11955.36696
-11908.18243
-11887.59647
-11902.16981
-11918.0172
-11921.03468
-11922.71107
-11933.59636
-11944.14639
-11941.21831
-11935.47391
-11941.88886
-11952.81886
-11951.61187
-11942.29119
-11942.44766
-11947.02976
-11943.69935
-11933.4399
-11934.42338
-11945.46514
-11946.09099
-11934.89277
-11931.65176
-11940.65952
-11942.73823
-11933.41755
-11928.43311
-11936.01035
-11940.19013
-11933.21639
-11927.44963
-11935.00452
-11943.05115
-11937.32911
-11925.84031
-11926.3097
-11932.76935
-11927.06966
-11913.05511
-11910.79759
-11914.1727
-11908.07067
-11891.97742
-11886.32243
-11889.87635
-11884.15431
-11867.97164
-11856.72872
-11857.51103
-11854.42649
-11840.63546
-11829.45959
-11826.82208
-11821.74824
-11803.64332
-11784.46553
-11777.60354
-11769.93689
-11750.245
-11730.70958
-11725.81455
-11725.47927
-11714.63868
-11700.2665
-11698.61248
-11708.69311
-11710.16833
-11702.97107
-11705.13918
-11719.55606
-11731.626
-11735.26934
-11749.10507
-11777.62589
-11802.52574
-11816.58498
-11831.38184
-11856.14757
-11877.717
-11885.87539
-11892.4468
-11908.62947
-11925.97442
-11930.42242
-11929.21542
-11938.5808
-11952.81886
-11953.15414
-11945.24162
-11948.28146
-11959.23382
-11960.9102
-11953.69058
-11954.69641
-11966.00639
-11970.67791
-11960.32905
-11957.35627
-11966.78871
-11970.47674
-11960.88784
-11955.54578
-11963.07832
-11971.12494
-11964.91116
-11957.22216
-11963.07832
-11971.61668
-11967.81689
-11959.27852
-11962.60893
-11971.90725
-11968.66625
-11959.21146
-11960.41846
-11969.00153
-11968.17451
-11957.57979
-11953.9141
-11961.44664
-11962.98891
-11955.8587
-11950.85191
-11953.77999
-11956.59631
-11948.52733
-11942.84999
-11947.05211
-11950.44958
-11942.26884
-11930.04244
-11930.8918
-11935.58567
-11930.93651
-11922.66636
-11924.00747
-11932.61289
-11928.50017
-11919.00068
-11919.51477
-11928.05313
-11927.58375
-11917.90544
-11917.43605
-11926.06383
-11929.14837
-11920.98998
-11916.34082
-11923.1581
-11928.41076
-11920.81117
-11914.7762
-11922.35344
-11929.01426
-11922.44284
-11914.73149
-11921.16879
-11931.42825
-11927.96373
-11920.61
-11923.22516
-11932.27761
-11932.36702
-11924.96859
-11927.13671
-11937.2397
-11939.56428
-11931.65176
-11930.69064
-11938.08907
-11939.31841
-11930.66829
-11926.91319
-11933.73048
-11937.03853
-11929.5954
-11925.23681
-11934.57984
-11942.55941
-11936.90442
-11929.26013
-11933.77518
-11943.94522
-11943.11821
-11933.14933
-11934.55749
-11943.74406
-11943.0288
-11933.32814
-11935.63037
-11947.63326
-11950.1143
-11942.80528
-11940.81598
-11949.62257
-11954.42819
-11950.31547
-11945.84512
-11953.8694
-11958.09388
-11945.64395
-11935.25039
-11934.57984
-11936.07741
-11926.19794
-11909.30002
-11898.41472
-11889.58578
-11872.10672
-11858.02512
-11856.59461
-11871.10089
-11875.57124
-11869.58097
-11877.78406
-11900.71695
-11911.26697
-11905.232
-11918.48659
-11950.38252
-11957.89271
-11949.75668
-11946.94036
-11957.19981
-11961.22312
-11952.0142
-11944.95105
-11952.72946
-11959.16676
-11953.46707
-11941.71005
-11934.02105
-11940.65952
-11962.72069
-11941.1289
-11814.2604
-11530.79558
-11173.81587
-11049.76369
-11169.05495
-11407.27984
-11710.79418
-11904.78497
-11890.32339
-11894.23494
-11914.99971
-11916.13965
-11919.64888
-11935.65273
-11946.35921
-11943.52054
-11940.61481
-11948.25911
-11958.02682
-11956.55161
-11950.51664
-11954.87523
-11963.77122
-11958.58561
-11946.76154
-11948.30381
-11956.97629
-11953.77999
-11942.47001
-11940.59246
-11946.49332
-11944.52637
-11934.66925
-11932.85876
-11941.50888
-11945.24162
-11935.80919
-11927.58375
-11932.00939
-11936.85972
-11929.10366
-11919.80534
-11922.86753
-11929.23777
-11922.21933
-11912.9657
-11913.83742
-11917.52546
-11910.3729
-11895.5537
-11891.59744
-11895.75486
-11889.83165
-11873.2243
-11863.76952
-11865.55765
-11860.14853
-11844.01057
-11832.63353
-11832.25356
-11826.88914
-11810.23709
-11796.60252
-11793.96502
-11789.65113
-11772.73086
-11753.3519
-11747.27222
-11747.27222
-11735.53756
-11721.09833
-11721.43361
-11727.49093
-11723.31115
-11712.04587
-11711.59884
-11721.3442
-11725.56868
-11722.99823
-11731.29073
-11752.97192
-11771.00978
-11778.83289
-11794.30029
-11826.06212
-11853.55477
-11866.11645
-11876.68882
-11896.44777
-11913.77037
-11918.12896
-11921.70524
-11933.68577
-11945.21927
-11943.52054
-11936.6362
-11941.41948
-11952.6177
-11954.38349
-11947.07447
-11948.41557
-11960.59727
-11963.4583
-11955.07639
-11953.89175
-11963.27948
-11966.63224
-11960.44081
-11957.24451
-11967.14633
-11974.67887
-11967.19104
-11960.03848
-11967.32515
-11975.52824
-11968.77801
-11958.38445
-11960.82079
-11967.66042
-11960.9996
-11950.04725
-11950.60604
-11957.40097
-11956.23868
-11946.8733
-11947.96854
-11956.77512
-11955.79165
-11944.14639
-11941.33007
-11952.573
-11956.79748
-11947.5215
-11945.17457
-11954.27173
-11960.15024
-11954.42819
-11949.53316
-11958.18328
-11965.82758
-11962.51952
-11957.42332
-11961.73721
-11972.06372
-11970.27558
-11964.24061
-11967.3028
-11975.6847
-11976.01998
-11966.56519
-11967.16868
-11975.41648
-11976.64582
-11968.88977
-11967.48161
-11975.88587
-11981.54086
-11973.22601
-11969.02388
-11979.84212
-11986.25707
-11979.10452
-11973.33777
-11978.45632
-11983.73133
-11976.9811
-11968.15216
-11971.95196
-11979.10452
-11974.52241
-11964.50883
-11966.85576
-11977.47284
-11977.96458
-11968.28627
-11967.10163
-11976.69053
-11979.81977
-11972.33194
-11971.30376
-11977.53989
-11976.15409
-11965.89464
-11961.98308
-11970.5438
-11977.07051
-11970.5438
-11964.41942
-11972.24253
-11978.79159
-11973.1366
-11967.07928
-11974.07537
-11984.80421
-11983.70898
-11975.30472
-11976.9811
-11988.06757
-11988.82753
-11980.55738
-11981.63026
-11990.90624
-11992.73908
-11984.37953
-11980.44562
-11989.36397
-11993.81196
-11986.6147
-11982.18906
-11989.85571
-11993.38728
-11983.4184
-11974.74593
-11978.99276
-11986.01121
-11981.04912
-11972.80132
-11975.66235
-11984.37953
-11980.7809
-11971.192
-11971.28141
-11981.09382
-11981.5185
-11966.31932
-11961.89367
-11966.98987
-11961.22312
-11943.78876
-11932.27761
-11924.90154
-11908.98709
-11883.03672
-11868.19516
-11874.38659
-11883.32729
-11883.26024
-11878.29815
-11885.83069
-11900.40402
-11909.56824
-11909.79176
-11920.47589
-11953.62353
-11965.31349
-11958.3621
-11962.8548
-11974.90239
-11974.03067
-11961.82662
-11961.51369
-11972.26488
-11973.65069
-11965.00057
-11961.31253
-11963.57005
-11958.71973
-11963.43594
-11975.57294
-11916.89961
-11705.38505
-11327.61822
-11083.2019
-11132.82277
-11323.17022
-11598.38725
-11872.37494
-11924.23098
-11911.31168
-11925.57209
-11931.29414
-11944.12404
-11963.61476
-11974.88004
-11971.7955
-11974.41065
-11986.57
-11993.07436
-11986.19002
-11983.30664
-11994.10254
-11998.93051
-11991.12975
-11983.9772
-11991.62149
-11998.7964
-11990.28039
-11982.03259
-11989.67689
-11996.27066
-11991.6662
-11982.88196
-11983.68662
-11992.18029
-11988.38049
-11976.10938
-11975.12591
-11981.74202
-11979.66331
-11965.29114
-11960.37375
-11966.34167
-11965.20173
-11955.67989
-11948.66144
-11952.84122
-11953.69058
-11942.04532
-11932.07645
-11933.10463
-11933.97634
-11922.88988
-11907.93656
-11906.61781
-11908.87534
-11899.71112
-11883.81903
-11878.25345
-11881.5615
-11871.95025
-11851.43135
-11841.14955
-11840.74722
-11828.9455
-11806.66081
-11795.21671
-11791.32751
-11783.21383
-11765.5783
-11758.35869
-11762.42671
-11763.11961
-11753.77658
-11744.96999
-11750.49087
-11756.21292
-11749.52975
-11743.00304
-11756.07881
-11775.54718
-11786.41013
-11795.10496
-11814.50627
-11844.47996
-11861.82491
-11873.58193
-11891.03864
-11914.88795
-11928.67898
-11929.97538
-11934.66925
-11949.80138
-11957.87036
-11952.93062
-11952.08126
-11961.89367
-11968.80036
-11960.21729
-11955.25521
-11963.48065
-11971.75079
-11966.07345
-11959.7032
-11969.53797
-11982.43493
-11981.40675
-11970.87907
-11970.61085
-11981.40675
-11982.05495
-11973.31541
-11976.06468
-11985.67593
-11985.78769
-11977.49519
-11974.58946
-11982.56904
-11984.98303
-11974.29889
-11967.19104
-11974.72357
-11980.08799
-11971.16965
-11958.71973
-11962.13954
-11969.62738
-11963.30183
-11956.86453
-11964.8441
-11972.28723
-11967.90629
-11959.77026
-11960.17259
-11966.744
-11965.51466
-11958.13858
-11956.26103
-11964.57588
-11965.73817
-11956.05987
-11951.79068
-11958.96559
-11961.67016
-11951.70128
-11943.34173
-11949.64492
-11954.45054
-11947.09682
-11937.91025
-11940.77127
-11946.51567
-11939.98896
-11937.35146
-11941.15125
-11948.03559
-11945.68866
-11934.55749
-11934.46808
-11943.40878
-11941.0395
-11928.92485
-11926.82379
-11935.51861
-11936.23387
-11926.91319
-11922.93458
-11931.40589
-11936.47974
-11926.77908
-11921.39231
-11928.65663
-11935.02688
-11930.13184
-11925.99677
-11931.27178
-11937.73144
-11934.0881
-11926.51086
-11931.40589
-11940.10072
-11936.21152
-11930.04244
-11934.71395
-11942.9841
-11941.7324
-11932.76935
-11931.31649
-11939.65369
-11943.31937
-11933.05992
-11933.05992
-11944.63813
-11949.08612
-11940.30189
-11931.22708
-11935.78684
-11939.45252
-11929.03661
-11918.53129
-11919.9171
-11920.69941
-11901.87924
-11874.67717
-11860.17088
-11865.28943
-11863.32248
-11855.92405
-11860.90849
-11869.82684
-11870.96678
-11874.31954
-11888.62465
-11904.74026
-11923.33691
-11936.07741
-11938.98314
-11951.34365
-11960.77609
-11954.24938
-11946.98506
-11951.09778
-11956.37279
-11950.78486
-11943.65465
-11948.57203
-11954.98698
-11939.25136
-11917.4137
-11925.72855
-11942.91704
-11874.36424
-11687.81658
-11408.24096
-11211.21034
-11227.01302
-11397.17685
-11672.0586
-11950.0696
-11974.25419
-11918.35247
-11904.67321
-11914.66444
-11927.91902
-11927.85197
-11933.12698
-11947.40974
-11954.74111
-11948.52733
-11942.20179
-11948.25911
-11957.51273
-11954.69641
-11948.23676
-11951.29895
-11959.32322
-11957.98212
-11947.76737
-11945.5322
-11953.17649
-11951.09778
-11938.42434
-11935.78684
-11944.2805
-11947.27563
-11938.02201
-11931.83058
-11938.93843
-11943.40878
-11934.33397
-11927.02495
-11932.81405
-11936.12211
-11927.02495
-11918.46423
-11920.49824
-11923.60513
-11916.45258
-11905.2767
-11902.5945
-11904.67321
-11899.33114
-11885.42836
-11877.6276
-11878.56637
-11875.57124
-11861.6014
-11850.98432
-11850.53728
-11844.90464
-11827.49263
-11813.6569
-11812.3605
-11807.19725
-11784.97962
-11763.47724
-11758.38104
-11753.37425
-11736.69985
-11719.93604
-11715.42099
-11716.00213
-11706.81557
-11694.05272
-11695.50558
-11705.09448
-11703.84278
-11696.64552
-11698.76894
-11714.9069
-11726.82038
-11731.98363
-11746.53462
-11774.58605
-11798.68124
-11813.92512
-11828.74433
-11853.42066
-11873.40312
-11879.21457
-11885.11543
-11900.76165
-11913.74802
-11912.47397
-11907.40012
-11913.36804
-11922.5099
-11922.24168
-11914.68679
-11917.01137
-11928.27665
-11929.506
-11919.64888
-11919.53712
-11928.81309
-11930.1542
-11921.59348
-11915.67027
-11921.817
-11922.77812
-11914.01624
-11909.09885
-11915.89378
-11922.15227
-11916.00554
-11909.88116
-11913.68096
-11918.12896
-11911.33403
-11902.77331
-11906.01431
-11911.91517
-11907.31071
-11893.45263
-11890.77042
-11897.67711
-11893.36322
-11883.21553
-11883.66257
-11891.99977
-11891.7539
-11881.87443
-11881.87443
-11892.4021
-11898.07944
-11889.2058
-11884.89191
-11894.9055
-11902.43803
-11895.26312
-11888.5129
-11892.46915
-11900.20286
-11895.44194
-11886.23302
-11890.14457
-11896.76069
-11893.16206
-11884.6684
-11888.64701
-11900.00169
-11899.59936
-11891.1504
-11890.34574
-11896.8948
-11901.02987
-11891.77625
-11886.38948
-11891.32922
-11893.02795
-11883.66257
-11877.09115
-11884.7131
-11890.18928
-11881.71797
-11873.93956
-11878.00758
-11884.82486
-11880.75684
-11873.35841
-11878.14169
-11886.0542
-11882.79085
-11873.24665
-11874.83363
-11883.59551
-11883.26024
-11875.99592
-11874.81128
-11881.67326
-11879.97453
-11869.31275
-11865.26708
-11871.95025
-11872.97843
-11859.7909
-11843.34002
-11834.82401
-11823.87165
-11806.48199
-11796.04373
-11800.24586
-11809.34302
-11807.8231
-11801.76578
-11810.39355
-11829.41488
-11835.87454
-11835.3828
-11857.95806
-11880.98036
-11884.80251
-11881.22623
-11884.55664
-11894.50316
-11894.48081
-11882.38852
-11880.15334
-11890.92688
-11894.54787
-11885.78598
-11878.78989
-11873.96191
-11877.09115
-11889.74224
-11870.51974
-11757.39756
-11516.9375
-11216.39594
-11100.83742
-11224.10729
-11454.06204
-11757.86695
-11907.86951
-11870.25152
-11858.78508
-11861.42258
-11856.84047
-11863.07661
-11879.59455
-11888.06586
-11882.36617
-11878.18639
-11885.69658
-11891.53038
-11883.32729
-11876.51001
-11881.18152
-11886.0542
-11879.08046
-11870.54209
-11876.46531
-11885.65187
-11880.8686
-11872.12907
-11872.71021
-11881.5168
-11878.87929
-11869.62567
-11869.89389
-11878.3652
-11876.10768
-11864.06009
-11859.12035
-11865.62471
-11864.41772
-11852.88422
-11846.71513
-11853.66653
-11856.05816
-11844.94935
-11835.78513
-11839.20495
-11841.01544
-11832.25356
-11819.22249
-11819.33425
-11823.73754
-11812.87459
-11795.12731
-11791.46162
-11794.85909
-11786.36542
-11769.84748
-11761.57734
-11762.11378
-11753.17308
-11734.01764
-11719.91369
-11716.8515
-11707.28495
-11685.62611
-11672.03625
-11671.58922
-11667.67766
-11652.92551
-11641.92845
-11644.36479
-11649.75156
-11644.87888
-11636.78755
-11641.34731
-11652.23261
-11653.84193
-11656.16651
-11672.68445
-11700.19945
-11721.63477
-11734.46467
-11753.91069
-11784.57728
-11805.11854
-11811.19821
-11820.78711
-11840.41194
-11854.6053
-11855.49937
-11857.13105
-11871.3244
-11880.98036
-11875.45948
-11872.86668
-11881.76267
-11890.41279
-11885.02602
-11875.45948
-11878.81224
-11888.95993
-11887.66353
-11880.19805
-11883.61786
-11891.93271
-11891.39627
-11882.18735
-11880.89095
-11891.68684
-11894.16789
-11886.23302
-11883.30494
-11890.59161
-11893.54204
-11883.50611
-11876.86764
-11885.02602
-11889.74224
-11879.37103
-11869.24569
-11873.15725
-11878.45461
-11873.2243
-11865.06592
-11869.35745
-11877.717
-11873.91721
-11863.92598
-11866.49643
-11876.46531
-11876.64412
-11869.84919
-11871.45852
-11880.80154
-11881.49445
-11873.2243
-11872.19612
-11882.50028
-11887.19414
-11879.37103
-11875.32537
-11883.95314
-11890.03281
-11881.20388
-11871.68203
-11875.99592
-11885.24954
-11882.67909
-11875.88416
-11882.88026
-11892.96089
-11890.25633
-11883.32729
-11887.3059
-11897.83357
-11897.36419
-11888.80347
-11887.84234
-11897.18537
-11896.51482
-11885.62952
-11881.89678
-11891.41862
-11893.72085
-11884.84721
-11880.71214
-11888.66936
-11897.07361
-11893.36322
-11888.95993
-11893.095
-11897.72181
-11889.02699
-11877.26997
-11880.75684
-11889.76459
-11888.17762
-11879.66161
-11880.53332
-11890.03281
-11890.59161
-11885.38365
-11886.88122
-11896.44777
-11900.64989
-11894.43611
-11893.20676
-11900.53813
-11904.60615
-11896.67128
-11891.23981
-11900.71695
-11910.01527
-11905.85785
-11900.31462
-11907.35542
-11914.28446
-11910.68583
-11904.29323
-11907.69069
-11916.02789
-11914.70914
-11904.15912
-11904.67321
-11915.13382
-11916.63139
-11906.97544
-11903.55562
-11910.55172
-11912.83159
-11906.19313
-11905.34376
-11913.77037
-11917.369
-11909.63529
-11904.15912
-11910.41761
-11914.128
-11906.12607
-11896.26895
-11896.73834
-11900.85106
-11890.30104
-11867.63637
-11854.5606
-11848.61503
-11833.34879
-11820.40713
-11821.23415
-11838.22147
-11842.3789
-11836.7239
-11841.64129
-11861.91432
-11875.45948
-11870.27387
-11882.27676
-11912.45161
-11922.82282
-11916.98902
-11913.36804
-11921.43702
-11929.30483
-11922.53225
-11914.88795
-11919.9171
-11929.14837
-11926.17559
-11913.05511
-11902.28157
-11905.38846
-11922.73342
-11890.97159
-11750.60263
-11462.33218
-11126.94426
-11026.47317
-11152.91699
-11393.44411
-11703.84278
-11880.53332
-11859.41092
-11867.97164
-11890.65866
-11894.43611
-11897.45359
-11912.00458
-11926.64497
-11926.26499
-11923.13575
-11933.3952
-11944.79459
-11943.29702
-11937.08324
-11940.97244
-11949.24259
-11946.35921
-11936.23387
-11933.12698
-11940.90539
-11943.34173
-11933.41755
-11929.52835
-11937.64203
-11937.08324
-11928.88015
-11923.73925
-11929.21542
-11933.55166
-11925.23681
-11917.57016
-11923.1134
-11928.70133
-11919.53712
-11906.12607
-11907.7801
-11913.85977
-11907.1319
-11896.8948
-11896.40306
-11901.54396
-11895.03961
-11879.5722
-11872.79962
-11872.77727
-11864.57418
-11848.79385
-11839.33906
-11841.95421
-11836.88037
-11818.17196
-11802.74925
-11798.2342
-11791.95336
-11775.43542
-11759.27511
-11755.36355
-11753.4413
-11736.74455
-11717.74557
-11711.95647
-11711.0624
-11698.43366
-11682.9439
-11681.13341
-11687.90599
-11686.40842
-11675.67959
-11673.86909
-11683.16742
-11687.12368
-11682.96625
-11687.68247
-11711.0624
-11730.70958
-11741.66194
-11758.15752
-11786.23131
-11810.75118
-11821.07768
-11830.26425
-11847.89978
-11866.67524
-11872.39729
-11873.06784
-11882.90261
-11895.57605
-11897.11832
-11892.82678
-11899.57701
-11910.64112
-11912.09399
-11904.20382
-11903.42151
-11913.36804
-11917.9725
-11911.84812
-11911.33403
-11919.58182
-11923.73925
-11915.53616
-11908.54006
-11915.04442
-11922.30873
-11917.83838
-11913.05511
-11919.82769
-11928.83544
-11924.38745
-11912.85395
-11914.01624
-11922.84518
-11919.98415
-11910.75288
-11912.11634
-11921.2135
-11919.44771
-11909.70235
-11909.97057
-11920.76646
-11923.1581
-11913.05511
-11908.62947
-11916.58669
-11921.2582
-11914.01624
-11909.47883
-11917.16783
-11924.07452
-11917.86074
-11910.14938
-11914.23975
-11922.57695
-11918.59834
-11910.52936
-11914.88795
-11925.90736
-11924.99094
-11917.79368
-11920.36413
-11929.84127
-11929.03661
-11919.42536
-11918.03955
-11927.33788
-11927.78491
-11916.47493
-11912.42926
-11920.58765
-11923.40397
-11913.30098
-11907.15425
-11914.30681
-11919.71593
-11913.16687
-11905.29906
-11911.40108
-11920.63235
-11917.68192
-11910.26114
-11915.55851
-11927.6508
-11927.87432
-11919.24654
-11919.80534
-11929.32718
-11928.54487
-11917.86074
-11915.5138
-11924.90154
-11925.48268
-11917.25724
-11916.60904
-11926.73438
-11931.4953
-11922.17462
-11914.61973
-11922.64401
-11930.78004
-11923.13575
-11915.33499
-11922.35344
-11933.50696
-11931.47295
-11924.4545
-11927.6955
-11939.38547
-11938.44669
-11925.54974
-11926.57792
-11938.42434
-11939.49723
-11929.75186
-11929.14837
-11939.00549
-11942.31355
-11935.51861
-11931.94234
-11938.5361
-11942.44766
-11932.50113
-11926.08618
-11930.71299
-11938.80432
-11936.09976
-11932.16585
-11939.36311
-11948.63909
-11944.72753
-11938.82667
-11947.67796
-11964.86646
-11983.15018
-12015.4708
-12043.36578
-12058.38615
-12058.45321
-12048.43963
-12044.75159
-12049.71368
-12047.54556
-12033.08398
-12022.77983
-12026.89255
-12028.65833
-12017.39305
-12007.37947
-12006.50776
-12007.89356
-11996.94121
-11976.86934
-11969.9403
-11963.79357
-11941.7324
-11913.45744
-11898.57118
-11893.85496
-11885.20484
-11874.94539
-11884.62369
-11903.06388
-11908.76358
-11902.32627
-11908.74122
-11925.46033
-11930.8918
-11938.62551
-11957.02099
-11971.54963
-11979.68566
-11977.0258
-11973.60599
-11979.88683
-11987.2629
-11982.6808
-11975.21531
-11978.25515
-11989.02869
-11981.69732
-11958.09388
-11962.05014
-11995.93538
-11971.61668
-11812.69578
-11487.5673
-11156.11329
-11088.00752
-11218.11702
-11457.10188
-11775.14485
-11941.17361
-11909.61294
-11909.16591
-11936.68091
-11955.1658
-11960.48551
-11963.14537
-11975.23766
-11986.03356
-11985.18419
-11981.18323
-11987.75464
-11996.74004
-11996.11419
-11987.08409
-11987.64288
-11996.42712
-11993.47669
-11980.84795
-11977.80812
-11986.03356
-11986.19002
-11976.44466
-11973.47188
-11981.4291
-11982.50198
-11974.74593
-11972.37664
-11980.44562
-11984.55834
-11975.0812
-11965.87228
-11971.21435
-11974.36595
-11964.70999
-11952.68475
-11956.52925
-11965.87228
-11959.6585
-11945.50984
-11944.9287
-11950.53899
-11943.677
-11929.64011
-11921.01233
-11921.72759
-11917.25724
-11903.48856
-11893.78791
-11894.01143
-11889.76459
-11872.28553
-11859.90266
-11857.8016
-11852.16896
-11834.17581
-11817.03202
-11810.52766
-11806.75021
-11788.28767
-11767.85818
-11761.06325
-11760.3927
-11751.83198
-11738.28682
-11735.31404
-11740.27613
-11740.36553
-11730.88839
-11728.385
-11738.48799
-11744.03122
-11744.25474
-11754.78241
-11777.33532
-11797.76481
-11808.76187
-11823.37991
-11850.47023
-11874.4313
-11884.22136
-11891.88801
-11912.20575
-11932.83641
-11936.23387
-11931.36119
-11937.2397
-11949.91314
-11950.33782
-11942.76058
-11943.25232
-11953.98116
-11954.80817
-11946.29216
-11947.07447
-11958.60797
-11962.45247
-11953.69058
-11950.1143
-11957.66919
-11964.50883
-11957.87036
-11948.86261
-11955.63518
-11965.58171
-11959.14441
-11949.89079
-11955.43402
-11963.57005
-11957.31157
-11949.33199
-11952.17066
-11960.59727
-11957.1551
-11947.14152
-11948.14735
-11956.90923
-11956.4622
-11946.51567
-11942.82764
-11950.78486
-11954.07056
-11945.17457
