 EMG Channel 
1597.456824
1596.160423
1579.038987
1580.245981
1598.976743
1592.964124
1588.516127
1586.12449
1584.515164
1575.932095
1577.966103
1580.961237
1571.26058
1581.922362
1581.922362
1578.457842
1572.177001
1573.294589
1580.089519
1584.313999
1580.469499
1574.143955
1571.886429
1575.10508
1577.384958
1570.679435
1578.05551
1576.043853
1574.859211
1573.428699
1573.585161
1584.001074
1594.439339
1586.817394
1588.739644
1580.804775
1568.578371
1581.072996
1586.213897
1579.776595
1570.679435
1568.801888
1581.676493
1580.648313
1575.172135
1579.307208
1580.625961
1585.833917
1577.720234
1568.287798
1569.539496
1578.614304
1579.754243
1581.922362
1587.778519
1583.621095
1578.279028
1588.113795
1594.037008
1583.889316
1583.285818
1593.858194
1594.998133
1584.157537
1578.837821
1587.398539
1591.153633
1584.604571
1583.330522
1592.852365
1592.539441
1586.660932
1586.12449
1580.134223
1579.597781
1579.664836
1583.554039
1579.262504
1585.565696
1586.236249
1586.482118
1592.517089
1593.791138
1581.184755
1573.04872
1580.022464
1577.273199
1572.311112
1573.205182
1577.273199
1580.514202
1587.66676
1588.918458
1582.503507
1586.683284
1593.053531
1590.304266
1582.14588
1576.803813
1576.781461
1579.620132
1579.083691
1581.430624
1577.831993
1581.609438
1584.470461
1576.692054
1577.943752
1586.035083
1577.161441
1594.394635
1594.394635
1585.118662
1575.172135
1575.753281
1586.348007
1591.131281
1581.452975
1572.221705
1575.015673
1573.138127
1573.227533
1581.072996
1578.323731
0.0
1589.432548
1577.742586
1578.234324
1599.714351
1600.027275
1581.944714
1571.998188
1579.553077
1592.137109
1597.345066
1585.833917
1595.936906
1603.782368
1591.108929
1571.77467
1584.33635
1605.570508
1602.955354
1602.217746
1606.129301
1585.163365
1569.070109
1571.662911
1580.424795
1582.771728
1576.51324
1577.429661
1580.514202
1590.572487
1580.536554
1580.961237
1586.571525
1595.154595
1604.8329
1604.341162
1593.075883
1597.412121
1595.512223
1581.564734
1574.479231
1592.852365
1604.207051
1598.753226
1588.694941
1592.025351
1604.810548
1587.286781
1578.703711
1580.648313
1581.698845
1586.549173
1586.951505
1585.6104
1587.934981
1577.206144
1582.190583
1588.158499
1580.245981
1591.019522
1599.110854
1597.076845
1592.807662
1586.012731
1586.795042
1584.828089
1580.201278
1586.236249
1581.698845
1578.301379
1577.094385
1582.950542
1582.682321
1581.587086
1576.89322
1574.300417
1571.193525
1575.976798
1578.301379
1581.028292
1581.140051
1574.188658
1580.022464
1587.107967
1584.872792
1580.849478
1582.995246
1583.665798
1577.787289
1576.982627
1577.340254
1575.663874
1558.855362
1563.70569
1573.383996
1588.471423
1586.057435
1580.581257
1572.266408
1558.184809
1554.943807
1586.683284
1586.415063
1591.824185
1584.604571
1577.899048
1569.986531
1560.419984
1563.683339
1561.872847
1572.311112
1566.119679
1564.264484
1554.98851
1552.306301
1555.435545
1545.667833
1536.838894
1540.303414
1559.011824
1557.402498
1564.21978
1567.617246
1561.738737
1550.138181
1558.005996
1564.420946
1568.712481
1560.285873
1541.91274
1546.383088
1547.053641
1550.898141
1560.084708
1559.615321
1556.173152
1549.914664
1549.266463
1545.533722
1549.579388
1563.884504
1567.93017
1557.603664
1544.594949
1552.596873
1565.315016
1550.696975
1545.310205
1550.562865
1569.628903
1561.246998
1559.838839
1557.402498
1552.753336
1553.468591
1564.97974
1550.339347
1538.135295
1554.653234
1567.661949
1566.499658
1559.257693
1563.169248
1554.09444
1551.993376
1558.073051
1559.324748
1556.106097
1542.136257
1563.258655
1559.056528
1561.045833
1566.834935
1558.45303
1547.567731
1557.491905
1567.237266
1563.996263
1559.838839
1564.152725
1566.700824
1576.714406
1577.273199
1582.436452
1563.772746
1581.855307
1601.88247
1603.514147
1602.77654
1598.753226
1587.823223
1599.803758
1608.632697
1580.514202
1576.155612
1582.771728
1593.388807
1595.065188
1600.161386
1594.595801
1573.428699
1570.321807
1583.129356
1594.014656
1586.146842
1574.434528
1588.04674
1592.897069
1580.693016
1591.75713
1592.27122
1593.053531
1594.305229
1589.387845
1601.189566
1595.847499
1578.971932
1578.904877
1586.169194
1591.354798
1602.664781
1584.559868
1585.275124
1606.911612
1598.529708
1587.219726
1590.125452
1589.991342
1601.234269
1601.860118
1581.564734
1565.091499
1572.80285
1589.365493
1589.164327
1593.455862
1586.660932
1578.748414
1574.501583
1571.707615
1580.245981
1581.452975
1580.156574
1583.397577
1583.554039
1578.614304
1581.609438
1571.908781
1573.138127
1566.544362
1577.966103
1594.573449
1591.310095
1594.059359
1584.20224
1568.801888
1572.66874
1567.214914
1575.172135
1589.030217
1589.857231
1585.006903
1590.237211
1595.311057
1579.418967
1572.467574
1569.874772
1585.945676
1591.690074
1593.81349
1587.107967
1580.804775
1575.99915
1587.353836
1586.035083
1588.404368
1581.743548
1578.882525
1582.682321
1591.131281
1580.178926
1573.540458
1575.350949
1581.25181
1587.242077
1578.5696
1582.257638
1592.897069
1577.429661
1571.12647
1577.340254
1580.178926
1575.261542
1571.975836
1573.160478
1567.192562
1564.666815
1578.122566
1581.117699
1566.656121
1566.14203
1564.689167
1563.482173
1578.077862
1579.955409
1570.74649
1566.991397
1567.349025
1570.008882
1576.379129
1566.879638
1568.064281
1572.378167
1572.624036
1566.119679
1567.55019
1573.31694
1572.311112
1573.629865
1570.902952
1566.790231
1566.432603
1557.760126
1577.228496
1591.690074
1587.175022
1567.55019
1552.194542
1564.778574
1567.460783
1575.306246
1583.039949
1572.758147
1563.57158
1569.785365
1565.247961
1562.364586
1576.89322
1576.692054
1573.451051
1577.474365
1566.790231
1570.165344
1565.292664
1555.033214
1564.063318
1571.573504
1570.142993
1572.847554
1570.075938
1555.346138
1563.370414
1571.864077
1573.942789
1572.624036
1560.867019
1550.294644
1565.605589
1563.795097
1555.256731
1560.867019
1561.090536
1559.391804
1560.174115
1564.778574
1558.609493
1562.185772
1574.367472
1575.865039
1568.399557
1551.926321
1551.099306
1550.965196
1561.403461
1567.125507
1563.281007
1576.535592
1582.928191
1576.960275
1580.916534
1571.26058
1584.872792
1594.662856
1592.159461
1594.349932
1580.447147
1590.371321
1588.896106
1570.768842
1572.489926
1589.879583
1596.786272
1588.918458
1586.951505
1586.348007
1590.259563
1593.589973
1591.555964
1587.510298
1576.89322
1572.244057
1595.109891
1600.876641
1593.902897
1592.651199
1585.811566
1582.14588
1589.07492
1590.527784
1589.477252
1585.275124
1579.687188
1582.14588
1594.931077
1600.764883
1584.381054
1582.65997
1583.419929
1585.789214
1595.668685
1604.989362
1609.124435
1593.142938
1591.75713
1596.942734
1599.647295
1602.597726
1598.082673
1586.973856
1576.89322
1582.190583
1588.806699
1588.180851
1590.639542
1589.030217
1589.298438
1585.878621
1597.680342
1590.86306
1582.369397
1589.477252
1583.486984
1583.554039
1588.650237
1586.079787
1586.191545
1582.771728
1589.097272
1586.817394
1598.216784
1600.496662
1581.810603
1575.932095
1582.27999
1588.449071
1596.272182
1589.566659
1582.995246
1590.326618
1590.326618
1588.851403
1594.439339
1586.884449
1580.536554
1586.660932
1595.780444
1596.518051
1598.395598
1592.91942
1589.030217
1592.897069
1590.930115
1587.510298
1580.380092
1587.845574
1581.877659
1586.392711
1591.980647
1586.325656
1591.332446
1598.194432
1598.239136
1586.772691
1582.235287
1592.293572
1584.917496
1581.497679
1582.65997
1582.928191
1573.518106
1569.986531
1561.984606
1570.992359
1573.831031
1562.565751
1569.070109
1558.184809
1547.545379
1541.242187
1537.263577
1542.091553
1549.35587
1561.537571
1553.714461
1557.223684
1558.385975
1545.198446
1542.762106
1545.444315
1547.768897
1544.840818
1543.410306
1546.830123
1559.190638
1554.809696
1542.203312
1535.76601
1550.026423
1553.625054
1546.27133
1538.045888
1553.356833
1546.606606
1546.27133
1547.768897
1547.344213
1544.974928
1547.008937
1548.282987
1543.119734
1533.419077
1544.304376
1555.435545
1557.067222
1549.177056
1539.275234
1540.951614
1552.149838
1556.486077
1545.399612
1546.248978
1561.448164
1548.059469
1541.085725
1538.247053
1539.543455
1542.18096
1546.986585
1549.445277
1549.266463
1547.67949
1546.02546
1551.233417
1555.480248
1556.486077
1541.309242
1533.866112
1542.248016
1558.765955
1555.212027
1557.894237
1564.152725
1564.666815
1566.186734
1583.799909
1589.07492
1581.475327
1586.906801
1578.077862
1589.879583
1603.782368
1599.177909
1593.81349
1592.047702
1597.300362
1603.916479
1604.229403
1602.307153
1600.362551
1590.728949
1588.247906
1589.298438
1596.473348
1587.800871
1589.320789
1605.145825
1602.53067
1603.827072
1600.675476
1595.981609
1599.44613
1586.415063
1590.036045
1602.374208
1597.121548
1585.453938
1587.577353
1589.477252
1587.979685
1598.797929
1603.894127
1599.468481
1598.797929
1595.109891
1598.954391
1598.976743
1592.964124
1587.353836
1595.758092
1600.250793
1593.701731
1595.668685
1595.802795
1586.549173
1580.469499
1590.751301
1590.460728
1590.751301
1584.246944
1583.710502
1582.369397
1584.20224
1588.449071
1581.162403
1566.544362
1581.229458
1597.769749
1594.171118
1578.033159
1582.727025
1591.37715
1588.180851
1586.057435
1595.623981
1597.836804
1586.727987
1575.820336
1580.424795
1585.923324
1586.660932
1580.514202
1570.008882
1579.46367
1591.600667
1591.265391
1589.991342
1582.14588
1579.173098
1575.730929
1569.85242
1578.077862
1592.002999
1601.010752
1594.037008
1585.520993
1583.934019
1572.758147
1574.054548
1585.6104
1583.978723
1591.51126
1582.905839
1581.430624
1586.325656
1588.672589
1579.46367
1586.303304
1581.810603
1575.440356
1587.264429
1586.884449
1578.502545
1570.344158
1587.107967
1595.959258
1587.890278
1586.660932
1583.755205
1583.866964
1583.218763
1596.987438
1592.047702
1578.122566
1589.83488
1590.594839
1589.432548
1586.616228
1580.424795
1579.642484
1575.216839
1581.095348
1596.24983
1598.239136
1590.527784
1592.382978
1591.935944
1574.166307
1573.115775
1586.683284
1590.304266
1598.954391
1592.181813
1587.890278
1579.575429
1571.595856
1570.120641
1575.708577
1571.148821
1578.167269
1571.797022
1565.136202
1561.895199
1564.175077
1568.734833
1568.757185
1566.499658
1556.039042
1547.098344
1571.081766
1584.023426
1562.431641
1565.762051
1572.266408
1571.014711
1555.256731
1553.245074
1577.049682
1577.988455
1567.326673
1558.475382
1569.964179
1575.440356
1567.729004
1564.867981
1569.070109
1580.73772
1572.914609
1561.694033
1557.402498
1562.5434
1574.389824
1567.125507
1572.758147
1570.813545
1569.33833
1572.579333
1576.446185
1572.378167
1562.632807
1562.811621
1563.437469
1579.955409
1586.549173
1564.108022
1558.274216
1568.44426
1567.349025
1574.479231
1578.502545
1566.209086
1579.351911
1585.029255
1570.657083
1573.004016
1579.061339
1575.172135
1574.032196
1578.748414
1579.396615
1569.025406
1569.003054
1585.409234
1582.257638
1578.860173
1579.46367
1573.026368
1568.846592
1569.360682
1567.863115
1570.768842
1582.257638
1578.346083
1568.779536
1574.032196
1576.446185
1571.797022
1579.620132
1573.093423
1568.220743
1571.64056
1575.038025
1575.887391
1580.402443
1577.116737
1573.942789
1576.736757
1577.899048
1568.690129
1577.250847
1576.021502
1568.220743
1564.97974
1567.840763
1569.584199
1574.814507
1585.565696
1582.883487
1579.955409
1563.750394
1550.406402
1555.212027
1565.605589
1581.855307
1591.935944
1582.436452
1564.197429
1572.311112
1566.00792
1557.380147
1569.695958
1586.996208
1582.861135
1570.388862
1562.275179
1569.740661
1566.678472
1562.208123
1572.467574
1575.462708
1573.831031
1571.573504
1565.136202
1569.271275
1574.389824
1574.59099
1580.290685
1584.33635
1581.542382
1568.399557
1560.129411
1560.688205
1565.270312
1565.426775
1581.967066
1582.257638
1573.383996
1567.840763
1556.351966
1561.291702
1579.97776
1576.960275
1568.44426
1561.694033
1566.186734
1568.600722
1556.441373
1571.573504
1578.033159
1562.409289
1565.672644
1575.10508
1576.110909
1577.899048
1575.10508
1558.229513
1563.750394
1583.263467
1585.006903
1584.001074
1583.218763
1586.370359
1587.890278
1574.166307
1581.654141
1575.842688
1568.667778
1574.97097
1570.791193
1565.717347
1572.914609
1571.372339
1570.925304
1572.445222
1575.306246
1575.462708
1574.658045
1583.866964
1588.292609
1574.814507
1572.735795
1567.974874
1558.877714
1555.971987
1579.508374
1586.12449
1572.445222
1566.723176
1571.037063
1570.388862
1577.228496
1571.908781
1563.258655
1555.212027
1554.943807
1562.386937
1575.462708
1583.241115
1574.836859
1563.012786
1555.144972
1552.68628
1553.133315
1549.467629
1557.626016
1560.419984
1565.62794
1559.3471
1558.050699
1560.844667
1555.860228
1566.879638
1570.254751
1561.202295
1566.432603
1572.534629
1564.555057
1547.411269
1543.231492
1560.867019
1576.289722
1575.283894
1560.419984
1556.553132
1563.772746
1558.520086
1569.047757
1570.075938
1560.911722
1557.111926
1566.298493
1574.948618
1563.370414
1559.637673
1566.3879
1566.611417
1563.906856
1564.197429
1571.595856
1575.61917
1569.763013
1565.449126
1552.082783
1557.760126
1565.762051
1564.555057
1568.332501
1560.665853
1564.59976
1566.723176
1557.827182
1558.676548
1571.752318
1572.087595
1563.728042
1559.235341
1552.306301
1562.766917
1572.422871
1570.142993
1565.225609
1570.344158
1576.89322
1580.290685
1569.137164
1564.555057
1574.702749
1575.082728
1567.349025
1569.047757
1566.477307
1566.745528
1569.114813
1578.390786
1587.510298
1574.993321
1566.119679
1574.143955
1576.781461
1566.365548
1558.050699
1568.82424
1561.626978
1567.952522
1576.826164
1584.33635
1587.733816
1574.21101
1574.59099
1581.743548
1569.673606
1561.984606
1575.708577
1580.648313
1572.512278
1565.315016
1569.383033
1580.022464
1571.014711
1566.030272
1573.629865
1568.913647
1578.882525
1575.932095
1569.561847
1566.097327
1569.226571
1578.793118
1571.819374
1562.051661
1572.020539
1572.15465
1571.77467
1568.511315
1572.422871
1568.377205
1567.281969
1563.079842
1554.049737
1566.052624
1577.899048
1585.051606
1576.110909
1572.109946
1567.281969
1560.978778
1565.918513
1583.218763
1573.406347
1568.95835
1565.382071
1562.208123
1569.561847
1572.713443
1569.897124
1565.002092
1557.626016
1571.193525
1571.327635
1572.244057
1569.539496
1568.511315
1565.940865
1565.605589
1580.313036
1577.876696
1569.561847
1564.778574
1570.075938
1561.470516
1562.968083
1574.233362
1576.110909
1580.693016
1574.658045
1575.328597
1570.075938
1559.525914
1570.187696
1568.243094
1574.166307
1578.860173
1577.854345
1565.694996
1565.158554
1573.138127
1579.016635
1565.359719
1560.75526
1566.611417
1573.249885
1573.808679
1569.405385
1571.238228
1578.882525
1570.925304
1565.605589
1566.700824
1585.878621
1583.911667
1576.066205
1576.736757
1570.321807
1562.431641
1564.376243
1571.931132
1568.578371
1573.875734
1580.625961
1575.820336
1571.349987
1561.761089
1562.923379
1567.885467
1570.634731
1572.646388
1573.383996
1565.024443
1565.694996
1569.271275
1566.253789
1559.615321
1576.379129
1577.228496
1569.427737
1568.421908
1556.843705
1559.21299
1575.887391
1579.038987
1567.237266
1572.087595
1578.05551
1573.540458
1568.041929
1577.876696
1586.392711
1579.173098
1572.534629
1557.022519
1559.660025
1565.49383
1569.33833
1569.517144
1562.766917
1559.950597
1549.668795
1555.659062
1572.020539
1579.307208
1572.15465
1552.395708
1548.886484
1557.80483
1562.632807
1561.850496
1552.082783
1560.956426
1572.28876
1569.181868
1563.929208
1568.466612
1565.292664
1558.564789
1556.284911
1549.691147
1558.721251
1567.729004
1563.839801
1562.67751
1560.844667
1560.040004
1566.432603
1560.24117
1561.224647
1561.26935
1569.964179
1570.411214
1552.149838
1555.815525
1564.97974
1563.012786
1571.975836
1569.740661
1557.313091
1554.519123
1561.805792
1566.432603
1567.661949
1565.940865
1571.014711
1571.506449
1562.744565
1546.114867
1552.395708
1572.556981
1567.863115
1561.246998
1562.319882
1556.374318
1550.920493
1567.0361
1569.517144
1566.231437
1565.829106
1574.054548
1573.205182
1565.426775
1562.16342
1578.167269
1572.601685
1574.345121
1565.87381
1557.335443
1562.096365
1573.607513
1584.20224
1580.804775
1568.176039
1558.542437
1563.750394
1580.022464
1579.97776
1580.581257
1569.181868
1567.192562
1573.428699
1575.574467
1553.692109
1563.95156
1576.826164
1573.540458
1561.023481
1567.125507
1566.700824
1563.437469
1561.448164
1570.187696
1565.382071
1569.695958
1566.633769
1554.317958
1557.894237
1571.685263
1577.295551
1583.866964
1572.244057
1571.595856
1576.356778
1577.586124
1571.573504
1580.268333
1600.317848
1586.415063
1569.47244
1567.438432
1580.290685
1575.820336
1587.01856
1590.796005
1581.229458
1570.835897
1583.151708
1590.639542
1590.103101
1591.935944
1583.777557
1580.938885
1583.263467
1587.689112
1583.062301
1581.095348
1584.738682
1580.335388
1581.698845
1586.683284
1583.330522
1580.067167
1579.642484
1590.371321
1585.386882
1575.61917
1581.162403
1587.353836
1584.783385
1586.549173
1584.492813
1576.446185
1584.001074
1580.380092
1588.56083
1591.734778
1584.448109
1566.589065
1573.026368
1588.113795
1584.761034
1574.032196
1575.507411
1585.453938
1588.627885
1590.080749
1587.66676
1578.279028
1585.297475
1588.113795
1585.118662
1579.575429
1572.914609
1583.352874
1587.66676
1582.704673
1577.720234
1581.542382
1575.306246
1578.726063
1584.33635
1582.704673
1574.836859
1569.092461
1569.003054
1562.588103
1568.690129
1564.264484
1562.923379
1569.47244
1582.637618
1566.879638
1556.843705
1564.488001
1573.942789
1574.859211
1571.528801
1558.296568
1571.618208
1576.155612
1554.541475
1567.237266
1585.565696
1576.580295
1563.817449
1574.658045
1574.546286
1569.695958
1559.056528
1573.607513
1577.384958
1567.773708
1559.816487
1568.511315
1570.634731
1567.840763
1557.223684
1565.87381
1581.967066
1588.292609
1574.993321
1560.464687
1565.896161
1574.434528
1583.665798
1577.675531
1581.542382
1571.953484
1560.017653
1566.119679
1566.90199
1570.299455
1569.986531
1572.959313
1556.150801
1553.088612
1558.050699
1555.994339
1567.594894
1562.16342
1557.223684
1555.815525
1558.095402
1562.744565
1558.028347
1559.548266
1564.309187
1569.785365
1564.488001
1562.811621
1559.950597
1558.408327
1564.97974
1579.955409
1572.132298
1564.555057
1571.551153
1576.021502
1569.85242
1577.966103
1591.89124
1586.727987
1572.758147
1571.238228
1581.855307
1588.113795
1588.806699
1594.282877
1586.102138
1571.148821
1566.969045
1594.864022
1610.398485
1600.653124
1586.996208
1592.114758
1590.237211
1586.079787
1596.227479
1590.728949
1600.764883
1601.658952
1599.379074
1595.512223
1579.418967
1591.600667
1606.75515
1600.60842
1597.166252
1602.39656
1587.353836
1584.559868
1598.954391
1595.08754
1596.62981
1582.883487
1590.930115
1594.394635
1585.051606
1569.807717
1584.269295
1590.259563
1582.995246
1577.273199
1572.646388
1569.137164
1574.948618
1569.628903
1561.224647
1580.648313
1582.436452
1571.975836
1564.800926
1571.864077
1560.531743
1565.203257
1579.798946
1576.51324
1569.003054
1562.856324
1556.374318
1560.665853
1572.713443
1571.707615
1565.404423
1560.218818
1576.669702
1589.83488
1572.847554
1543.07503
1558.073051
1575.686225
1571.238228
1565.270312
1576.289722
1580.134223
1562.208123
1552.507466
1552.03808
1586.102138
1585.99038
1577.049682
1561.179943
1557.983644
1569.561847
1558.430679
1546.830123
1581.832955
1583.151708
1577.586124
1569.383033
1568.131336
1566.946693
1568.354853
1567.907818
1574.166307
1572.534629
1558.117754
1559.816487
1566.186734
1562.521048
1572.221705
1572.691092
1571.618208
1566.320844
1563.728042
1558.140106
1561.068185
1581.676493
1581.989417
1573.093423
1564.845629
1558.83301
1549.937016
1573.965141
1591.555964
1570.791193
1570.411214
1562.878676
1566.767879
1570.36651
1564.97974
1566.119679
1578.390786
1575.753281
1574.881563
1573.249885
1571.752318
1563.862153
1578.010807
1594.461691
1578.860173
1581.944714
1586.213897
1570.500621
1564.59976
1568.243094
1592.427682
1595.892202
1572.512278
1576.937923
1589.901935
1578.390786
1574.59099
1580.581257
1580.760071
1573.383996
1573.831031
1562.923379
1568.868943
1594.685208
1588.292609
1567.237266
1561.13524
1562.655158
1574.479231
1576.446185
1565.829106
1562.29753
1571.282932
1583.442281
1579.709539
1576.401481
1577.496717
1575.842688
1570.344158
1579.083691
1575.149784
1568.421908
1565.091499
1572.914609
1581.587086
1578.189621
1572.15465
1571.014711
1573.04872
1576.334426
1581.341217
1589.633714
1586.348007
1575.216839
1573.585161
1571.305283
1571.841725
1579.687188
1568.578371
1568.377205
1580.514202
1584.671627
1579.307208
1582.972894
1574.166307
1577.116737
1578.614304
1586.325656
1597.188604
1585.252772
1571.282932
1582.056473
1585.766862
1581.229458
1570.210048
1571.014711
1583.375225
1582.861135
1578.904877
1595.109891
1578.480193
1569.606551
1576.155612
1583.911667
1583.621095
1576.624999
1585.252772
1588.963162
1579.620132
1587.465595
1576.781461
1580.87183
1579.888353
1566.320844
1579.933057
1587.823223
1583.107005
1575.440356
1583.665798
1580.514202
1583.107005
1588.113795
1562.699862
1574.680397
1593.545269
1598.820281
1583.934019
1567.527839
1584.246944
1588.694941
1585.029255
1584.381054
1588.203202
1589.231383
1579.396615
1576.89322
1587.309132
1582.078824
1580.536554
1577.787289
1586.392711
1587.957333
1582.972894
1589.946638
1596.450996
1586.660932
1564.957388
1576.401481
1591.600667
1585.900973
1592.494737
1598.93204
1575.082728
1553.848571
1583.554039
1607.850386
1595.981609
1577.004978
1574.613342
1586.258601
1600.541365
1587.398539
1576.848516
1584.895144
1588.538478
1586.50447
1587.800871
1597.255659
1584.872792
1579.418967
1589.07492
1594.349932
1591.824185
1595.623981
1592.807662
1582.034121
1580.134223
1585.856269
1596.898031
1595.892202
1585.498641
1568.511315
1578.457842
1590.572487
1579.106042
1580.961237
1594.394635
1591.019522
1594.148766
1574.836859
1560.777612
1595.556926
1613.147749
1596.674513
1586.213897
1591.645371
1586.951505
1580.536554
1575.954446
1591.913592
1592.204165
1584.984551
1590.125452
1580.760071
1602.77654
1594.931077
1572.825202
1573.56281
1594.975781
1593.344103
1589.298438
1585.208069
1582.168231
1582.324693
1589.857231
1593.992304
1604.631734
1603.134168
1583.107005
1563.482173
1571.551153
1597.389769
1606.889261
1601.770711
1590.416025
1572.691092
1579.754243
1594.595801
1577.608475
1571.148821
1587.555002
1586.280952
1562.521048
1567.393728
1588.761996
1580.268333
1572.936961
1574.769804
1577.049682
1575.552115
1579.016635
1582.749377
1585.833917
1577.139089
1576.826164
1570.053586
1571.417042
1582.347045
1576.714406
1574.412176
1577.004978
1574.322769
1568.690129
1555.994339
1567.349025
1594.84167
1590.930115
1581.90001
1573.495754
1574.255714
1568.556019
1572.847554
1578.994284
1590.505432
1584.895144
1565.382071
1567.080804
1583.196412
1591.712426
1572.780499
1565.024443
1574.479231
1583.866964
1574.635693
1575.440356
1584.045778
1584.805737
1582.369397
1575.038025
1577.429661
1581.318865
1575.172135
1577.586124
1587.622057
1582.235287
1576.379129
1568.44426
1573.965141
1585.878621
1593.657028
1586.526821
1575.663874
1575.283894
1577.787289
1578.614304
1574.501583
1574.501583
1585.453938
1592.941772
1592.584144
1587.957333
1577.004978
1571.461746
1589.410196
1592.002999
1579.664836
1580.268333
1584.515164
1572.825202
1572.221705
1581.743548
1589.812528
1599.155557
1598.641467
1592.986476
1580.782423
1582.190583
1586.280952
1599.803758
1593.522917
1582.235287
1596.719217
1602.933002
1604.117644
1592.628848
1594.171118
1605.972839
1594.126415
1576.960275
1596.316886
1604.855252
1603.000057
1592.204165
1587.175022
1588.136147
1583.710502
1587.53265
1595.288705
1597.188604
1591.332446
1594.595801
1586.057435
1578.413138
1577.966103
1607.358647
1605.771673
1602.195394
1587.286781
1588.806699
1599.669647
1586.951505
1587.175022
1571.014711
1568.153687
1608.453883
1630.045668
1612.812473
1601.860118
1604.139996
1606.397522
1601.748359
1602.709484
1603.491795
1627.050534
1627.162293
1598.239136
1602.083636
1604.072941
1603.335333
1613.393618
1623.787179
1621.261432
1608.878566
1609.727932
1597.792101
1598.507356
1610.823168
1628.615156
1622.535482
1596.160423
1602.329505
1610.622002
1615.606441
1621.931985
1619.316831
1594.260525
1598.619115
1620.501473
1615.740551
1606.732798
1601.971877
1604.497624
1607.291592
1619.18272
1616.299345
1613.594784
1606.263412
1598.261487
1605.972839
1614.31004
1624.010697
1612.633659
1621.596708
1618.176892
1597.300362
1589.4549
1611.314906
1621.708467
1614.153578
1611.180796
1614.913537
1609.258546
1622.870758
1627.341107
1613.147749
1626.73761
1618.355706
1618.132188
1623.809531
1614.533557
1622.557833
1637.868778
1634.9407
1629.956261
1627.38581
1620.836749
1607.470406
1613.483025
1636.34886
1627.698735
1609.929098
1624.480084
1642.786162
1641.378002
1630.045668
1613.237156
1614.600612
1621.775522
1623.831883
1639.656918
1640.215712
1626.290575
1614.220633
1608.096255
1625.172988
1642.205017
1633.510188
1637.37704
1634.180741
1624.390677
1601.591897
1615.472331
1634.516017
1628.302232
1615.85231
1631.453828
1631.163255
1618.065133
1614.555909
1630.783275
1637.175874
1615.472331
1614.332392
1623.206034
1631.856159
1647.189456
1640.014546
1622.982517
1613.93006
1615.517034
1625.530616
1632.593767
1620.546176
1619.674458
1622.490778
1605.436397
1601.480138
1621.61906
1623.161331
1614.846482
1605.123473
1600.876641
1618.467464
1615.517034
1603.491795
1610.689057
1611.896051
1586.951505
1599.289668
1616.344049
1611.8737
1611.985458
1616.589918
1618.825092
1597.099197
1609.213842
1614.600612
1604.050589
1614.086522
1599.312019
1599.647295
1606.576336
1607.246889
1598.03797
1607.313944
1625.731781
1617.081656
1607.626868
1608.587993
1610.420836
1613.55008
1604.005886
1603.692961
1622.803703
1626.469389
1607.64922
1603.111816
1608.967973
1610.46554
1610.46554
1608.722104
1602.77654
1598.306191
1603.514147
1604.810548
1614.399447
1611.806644
1605.21288
1616.031124
1596.138072
1583.934019
1591.041874
1608.945621
1600.451958
1576.736757
1583.241115
1595.73574
1611.381961
1604.810548
1595.22165
1583.129356
1593.902897
1612.924232
1614.44415
1613.706543
1611.001982
1590.058397
1567.393728
1585.185717
1605.72697
1609.012676
1596.316886
1594.282877
1594.439339
1584.850441
1592.539441
1603.715313
1608.073903
1585.677455
1584.045778
1597.367417
1604.408217
1597.769749
1584.470461
1586.415063
1582.436452
1590.907763
1598.909688
1606.10695
1593.232345
1574.613342
1589.58901
1616.589918
1603.111816
1579.396615
1581.698845
1578.211973
1591.24304
1593.120586
1603.692961
1602.664781
1584.604571
1557.894237
1574.747452
1620.613232
1613.840653
1564.108022
1552.03808
1594.662856
1601.748359
1600.183737
1584.604571
1578.994284
1573.138127
1555.301434
1575.842688
1596.205127
1578.547249
1563.236304
1575.060377
1585.766862
1579.642484
1573.495754
1571.349987
1579.731891
1573.831031
1576.848516
1578.81547
1580.089519
1571.171173
1567.393728
1577.608475
1573.138127
1583.330522
1569.003054
1570.142993
1589.96899
1574.389824
1576.557943
1573.808679
1587.53265
1579.195449
1583.330522
1568.690129
1564.420946
1578.413138
1578.323731
1574.009845
1573.540458
1567.729004
1562.431641
1565.985568
1566.767879
1576.401481
1580.73772
1572.914609
1574.143955
1573.31694
1560.911722
1562.252827
1584.649275
1571.573504
1571.752318
1580.022464
1575.507411
1575.328597
1557.782478
1562.521048
1582.861135
1578.077862
1568.846592
1579.97776
1585.878621
1565.650292
1574.345121
1568.623074
1573.18283
1581.631789
1568.332501
1559.011824
1579.396615
1586.325656
1575.507411
1568.779536
1573.451051
1581.229458
1585.453938
1581.452975
1579.97776
1563.437469
1583.196412
1588.180851
1593.43351
1587.778519
1580.022464
1594.886374
1590.259563
1572.534629
1574.792156
1595.780444
1577.250847
1565.225609
1578.524897
1597.501528
1588.203202
1578.770766
1580.536554
1591.868888
1590.840708
1583.107005
1579.038987
1586.392711
1594.752263
1584.738682
1571.819374
1582.4141
1591.220688
1591.779481
1592.494737
1586.795042
1569.114813
1574.59099
1581.184755
1591.690074
1595.825147
1585.900973
1566.991397
1572.445222
1582.704673
1583.397577
1593.277048
1592.472385
1585.431586
1571.528801
1580.000112
1591.041874
1575.283894
1574.367472
1592.539441
1606.375171
1594.037008
1580.402443
1583.330522
1596.965086
1596.495699
1585.208069
1586.884449
1602.441263
1609.035028
1598.306191
1599.691999
1612.477197
1589.901935
1574.367472
1597.836804
1596.383941
1590.594839
1598.753226
1596.272182
1596.227479
1599.401426
1594.752263
1599.177909
1596.450996
1587.733816
1579.016635
1597.412121
1599.982572
1586.102138
1561.246998
1594.70756
1623.295441
1621.596708
1611.024333
1603.849423
1583.866964
1577.452013
1602.821243
1600.183737
1587.555002
1589.410196
1587.823223
1573.093423
1595.73574
1609.906746
1593.478214
1588.739644
1587.130319
1582.190583
1577.742586
1593.724083
1610.420836
1608.275069
1591.935944
1595.73574
1587.555002
1581.90001
1587.242077
1608.476234
1600.183737
1587.778519
1594.238173
1599.043798
1605.503452
1599.781406
1595.378112
1601.636601
1601.904822
1594.394635
1591.935944
1595.825147
1588.292609
1594.662856
1623.228386
1615.85231
1588.739644
1588.516127
1590.952467
1593.634676
1612.253679
1612.924232
1593.388807
1595.936906
1593.366455
1590.86306
1595.802795
1606.308115
1606.911612
1604.877604
1601.50249
1597.680342
1586.750339
1602.664781
1608.297421
1613.684191
1614.019467
1605.078769
1599.06615
1604.899955
1603.536499
1596.339237
1598.507356
1612.566604
1608.900918
1618.065133
1619.741514
1606.352819
1583.866964
1596.518051
1613.773598
1610.376133
1606.799854
1608.6774
1608.587993
1604.072941
1602.508319
1604.654086
1614.153578
1607.671572
1601.927173
1604.564679
1605.123473
1602.731836
1596.428644
1595.288705
1594.126415
1610.59965
1629.620985
1614.95824
1612.164272
1614.891185
1622.222557
1619.920328
1605.324639
1602.374208
1600.206089
1605.056418
1616.120531
1620.032086
1614.44415
1611.739589
1606.062246
1598.17208
1600.362551
1609.817339
1618.199243
1608.856214
1607.045723
1601.413083
1605.34699
1618.467464
1614.108874
1609.102083
1605.592859
1597.970915
1608.587993
1606.442226
1611.538423
1606.844557
1599.58024
1598.485005
1603.983534
1613.818301
1621.328488
1607.626868
1595.042836
1592.584144
1611.650182
1614.555909
1614.779426
1613.125397
1616.969897
1607.895089
1604.877604
1609.906746
1609.213842
1603.312982
1599.803758
1606.822205
1606.308115
1607.001019
1612.320735
1617.77456
1610.264374
1604.788197
1603.961182
1606.017543
1595.154595
1599.06615
1612.343086
1590.259563
1582.324693
1587.242077
1600.586069
1608.073903
1613.013639
1597.903859
1589.723121
1587.823223
1584.939848
1593.478214
1605.682266
1597.680342
1597.322714
1602.195394
1597.635638
1585.23042
1593.053531
1603.827072
1596.875679
1589.410196
1586.929153
1591.801833
1603.000057
1597.926211
1595.154595
1586.325656
1577.183792
1594.260525
1617.841615
1614.734723
1601.748359
1584.559868
1586.102138
1588.851403
1593.232345
1601.50249
1602.754188
1611.49372
1604.229403
1588.247906
1594.104063
1610.823168
1618.959203
1608.610345
1598.17208
1583.375225
1600.429606
1593.16529
1581.408272
1593.500566
1604.207051
1599.513185
1598.954391
1586.169194
1587.91263
1604.095293
1594.953429
1582.928191
1601.077807
1604.162348
1597.926211
1587.599705
1588.918458
1585.632752
1582.525859
1594.931077
1605.235232
1596.450996
1583.107005
1597.00979
1594.618153
1587.890278
1589.365493
1582.525859
1601.323676
1594.32758
1581.341217
1575.060377
1584.649275
1597.590935
1588.493775
1578.703711
1595.378112
1590.99717
1579.128394
1573.495754
1569.628903
1573.339292
1597.278011
1606.866909
1588.896106
1571.26058
1573.428699
1586.012731
1586.012731
1593.008827
1580.581257
1574.501583
1574.635693
1589.410196
1590.684246
1570.724138
1578.144917
1588.918458
1584.761034
1574.032196
1573.831031
1575.507411
1598.060322
1608.453883
1580.961237
1578.793118
1574.613342
1571.506449
1579.284856
1581.318865
1592.561792
1591.019522
1586.683284
1581.005941
1562.878676
1553.870923
1567.617246
1599.06615
1585.208069
1578.681359
1566.879638
1569.405385
1582.928191
1605.123473
1595.892202
1578.390786
1573.69692
1569.383033
1571.461746
1592.137109
1590.125452
1580.983589
1577.809641
1565.426775
1579.150746
1586.035083
1592.137109
1583.218763
1572.467574
1572.981664
1573.272237
1584.604571
1591.421853
1591.913592
1589.566659
1581.25181
1579.46367
1573.652217
1572.713443
1573.987493
1590.34897
1593.411159
1568.868943
1561.604626
1580.201278
1583.665798
1588.091444
1578.122566
1568.578371
1579.083691
1585.386882
1591.153633
1573.115775
1565.337368
1572.042891
1579.955409
1579.888353
1583.934019
1578.703711
1572.646388
1576.781461
1581.25181
1581.922362
1575.954446
1577.54142
1595.132243
1594.774615
1571.953484
1570.992359
1595.512223
1596.585106
1576.714406
1580.067167
1582.838784
1583.598743
1589.521955
1581.676493
1589.521955
1588.806699
1586.482118
1590.840708
1582.034121
1582.838784
1592.137109
1589.477252
1584.269295
1579.46367
1577.787289
1574.278065
1592.382978
1593.16529
1583.777557
1587.286781
1581.184755
1582.078824
1588.605534
1590.527784
1591.108929
1580.536554
1563.169248
1583.777557
1596.495699
1590.86306
1591.153633
1579.664836
1558.229513
1569.360682
1598.842633
1588.896106
1575.10508
1573.831031
1581.631789
1577.54142
1565.717347
1580.245981
1588.04674
1590.818356
1580.648313
1579.374263
1586.348007
1573.652217
1561.492868
1566.723176
1586.415063
1584.403406
1578.591952
1584.246944
1586.750339
1568.31015
1571.685263
1591.868888
1600.697827
1587.689112
1572.266408
1573.674568
1573.674568
1581.922362
1581.788252
1585.319827
1583.17406
1567.058452
1578.636656
1588.963162
1585.766862
1573.69692
1573.942789
1575.641522
1578.748414
1577.787289
1580.35774
1578.211973
1567.729004
1571.349987
1574.881563
1578.457842
1575.574467
1557.42485
1582.190583
1580.804775
1566.276141
1552.976853
1560.464687
1573.674568
1582.034121
1576.289722
1575.61917
1577.764938
1563.124545
1569.159516
1568.935999
1569.003054
1574.926266
1563.102193
1568.466612
1583.218763
1571.238228
1566.253789
1569.628903
1580.514202
1583.375225
1572.28876
1559.056528
1565.784403
1566.209086
1561.738737
1577.049682
1577.273199
1573.607513
1576.267371
1567.125507
1570.902952
1568.243094
1569.204219
1572.355815
1577.295551
1566.499658
1557.715423
1562.051661
1570.120641
1575.038025
1578.189621
1569.673606
1553.647405
1561.626978
1572.959313
1568.645426
1568.667778
1580.201278
1587.219726
1581.631789
1584.001074
1585.051606
1586.191545
1582.4141
1586.348007
1589.879583
1578.5696
1581.072996
1572.489926
1574.166307
1570.299455
1579.933057
1593.388807
1584.58222
1580.603609
1567.214914
1562.364586
1569.47244
1579.038987
1579.061339
1587.711464
1582.972894
1570.075938
1573.629865
1585.789214
1584.090481
1575.865039
1590.192508
1572.847554
1567.773708
1578.94958
1577.519068
1576.557943
1582.190583
1586.884449
1568.399557
1564.957388
1588.739644
1594.282877
1588.337313
1590.192508
1591.623019
1596.227479
1591.578316
1587.130319
1582.168231
1573.763975
1612.141921
1621.708467
1607.693923
1592.986476
1588.94081
1596.026313
1585.945676
1578.167269
1607.336296
1608.967973
1598.194432
1598.954391
1596.227479
1600.876641
1601.480138
1581.25181
1588.247906
1601.390732
1604.207051
1596.965086
1602.798891
1608.453883
1597.747397
1579.620132
1590.594839
1602.731836
1607.895089
1600.3402
1578.793118
1578.413138
1605.257583
1600.85429
1593.969952
1585.275124
1604.519976
1599.289668
1593.500566
1601.591897
1605.794025
1599.513185
1598.060322
1597.099197
1595.065188
1603.380037
1590.594839
1597.032141
1593.81349
1595.176947
1590.773653
1605.682266
1617.796912
1605.011714
1599.848461
1593.277048
1600.496662
1596.138072
1591.801833
1592.293572
1600.9884
1609.929098
1601.614249
1600.876641
1592.137109
1590.728949
1606.308115
1601.569545
1595.936906
1599.870813
1596.294534
1579.687188
1598.149729
1605.794025
1599.669647
1605.101121
1606.10695
1599.356723
1592.360627
1597.300362
1597.702694
1594.685208
1598.574412
1597.792101
1594.819319
1584.470461
1581.005941
1587.309132
1603.178871
1611.717237
1598.283839
1601.88247
1604.095293
1593.053531
1583.866964
1577.742586
1592.986476
1595.489871
1611.091389
1598.082673
1594.104063
1590.885412
1592.762958
1592.114758
1599.714351
1602.798891
1604.162348
1601.726008
1601.010752
1590.259563
1595.869851
1605.905784
1617.618098
1620.814397
1621.99904
1612.700714
1613.505377
1613.326563
1618.199243
1615.919365
1620.188549
1641.042726
1624.658897
1610.264374
1603.80472
1613.438322
1615.807607
1612.790121
1620.255604
1619.69681
1618.467464
1609.817339
1596.808624
1608.923269
1632.236139
1644.998985
1638.226406
1604.631734
1604.117644
1596.205127
1590.080749
1626.514092
1642.361479
1624.994174
1612.924232
1617.618098
1617.64045
1617.618098
1619.629755
1621.060267
1617.998078
1610.040857
1619.942679
1630.984441
1630.492703
1622.982517
1614.332392
1610.689057
1619.741514
1621.909633
1623.116627
1614.466502
1609.392656
1623.116627
1624.167159
1618.512168
1626.558796
1623.451903
1625.307098
1626.759961
1628.838674
1625.351802
1628.525749
1631.766752
1624.770656
1622.155502
1628.905729
1621.306136
1621.149674
1622.490778
1633.778409
1629.68804
1618.981554
1614.220633
1620.07679
1627.2517
1634.270148
1640.32747
1630.693868
1620.523825
1631.699697
1642.205017
1629.82215
1625.865892
1627.966956
1626.134113
1626.894072
1629.330412
1641.288595
1629.352764
1615.964069
1614.153578
1620.434418
1627.296403
1641.109781
1634.583072
1629.889206
1633.689002
1626.201168
1628.972784
1624.234214
1625.284746
1629.464523
1639.67927
1637.980537
1624.345973
1614.757075
1610.97963
1619.875624
1638.852255
1639.791028
1629.620985
1618.735685
1617.618098
1623.273089
1632.169084
1631.006793
1632.705525
1624.971822
1627.676383
1629.464523
1628.257528
1629.68804
1632.63847
1622.356668
1626.983479
1625.284746
1626.625851
1628.682211
1628.637508
1607.693923
1618.758037
1628.771618
1621.395543
1617.506339
1624.547139
1615.181758
1609.169139
1611.247851
1623.340145
1622.222557
1616.612269
1631.856159
1625.240043
1613.393618
1595.154595
1601.36838
1617.416932
1632.549063
1631.654993
1616.74638
1608.342124
1603.536499
1617.886319
1623.518959
1618.199243
1618.355706
1603.044761
1606.017543
1617.394581
1620.099142
1620.926156
1612.477197
1619.249775
1610.242022
1602.709484
1609.482063
1614.600612
1612.544252
1603.782368
1601.88247
1617.931022
1629.911557
1613.460674
1605.123473
1610.800816
1622.803703
1615.114703
1609.794987
1606.598688
1616.567566
1615.047647
1607.112778
1603.335333
1612.365438
1617.483988
1617.171063
1611.717237
1602.53067
1613.214804
1605.168176
1584.20224
1612.343086
1618.534519
1606.62104
1606.822205
1600.697827
1600.764883
1606.777502
1601.726008
1610.59965
1604.8329
1608.498586
1613.527729
1603.648258
1605.369342
1609.079732
1618.869796
1604.944659
1602.418912
1592.807662
1586.012731
1603.916479
1618.892147
1624.927118
1616.008772
1600.429606
1601.413083
1612.432493
1611.11374
1601.614249
1585.09631
1579.46367
1609.772636
1617.305174
1612.320735
1607.448054
1604.765845
1594.282877
1586.906801
1606.330467
1611.8737
1599.759054
1596.182775
1596.160423
1591.444205
1590.48308
1594.506394
1588.918458
1580.961237
1577.742586
1588.337313
1587.040912
1588.359664
1594.282877
1579.150746
1577.742586
1568.891295
1570.008882
1598.194432
1598.68617
1587.91263
1582.65997
1575.686225
1580.73772
1585.252772
1582.525859
1588.091444
1591.734778
1585.878621
1582.458804
1577.563772
1575.283894
1582.771728
1591.89124
1579.083691
1583.68815
1588.404368
1585.498641
1583.084653
1571.104118
1576.446185
1594.484042
1596.786272
1580.73772
1568.801888
1579.821298
1593.43351
1596.942734
1585.99038
1580.715368
1579.262504
1581.050644
1584.604571
1581.810603
1588.538478
1589.566659
1582.861135
1578.390786
1574.948618
1578.301379
1576.692054
1567.438432
1566.231437
1562.632807
1565.717347
1558.631844
1560.062356
1572.311112
1572.467574
1554.60853
1563.839801
1573.808679
1566.857286
1563.079842
1564.108022
1570.858249
1574.278065
1570.344158
1565.583237
1572.221705
1572.042891
1570.679435
1577.519068
1570.970007
1554.161495
1557.357795
1564.845629
1565.382071
1575.350949
1576.826164
1558.520086
1546.91953
1576.066205
1576.222667
1571.439394
1566.90199
1567.79606
1561.64933
1556.508429
1547.835952
1576.401481
1581.564734
1577.340254
1567.460783
1562.811621
1552.105135
1559.838839
1561.872847
1558.564789
1576.826164
1594.394635
1581.341217
1555.547304
1547.545379
1550.786382
1565.024443
1568.913647
1562.565751
1552.015728
1551.121658
1568.064281
1565.315016
1556.217856
1558.296568
1556.419022
1556.262559
1556.709594
1563.929208
1567.93017
1555.189676
1554.452068
1558.989472
1561.023481
1565.717347
1555.547304
1544.036155
1561.761089
1563.281007
1554.586179
1556.284911
1565.292664
1563.124545
1559.168286
1555.435545
1558.408327
1563.683339
1554.98851
1554.161495
1567.326673
1572.109946
1559.525914
1551.52399
1559.168286
1564.97974
1565.449126
1550.24994
1552.082783
1559.905894
1546.986585
1557.134277
1563.929208
1573.04872
1578.748414
1562.521048
1544.706708
1541.242187
1552.976853
1565.940865
1565.203257
1564.532705
1567.41608
1565.382071
1550.741679
1534.044925
1553.423888
1564.711519
1556.77665
1565.002092
1566.723176
1555.659062
1558.274216
1558.609493
1554.921455
1566.656121
1568.332501
1563.884504
1563.437469
1558.497734
1559.950597
1560.084708
1565.650292
1581.967066
1577.653179
1564.331539
1554.452068
1561.314054
1571.215876
1573.920438
1577.496717
1574.434528
1580.938885
1586.616228
1567.41608
1566.365548
1575.909743
1589.700769
1594.059359
1587.867926
1588.069092
1592.360627
1588.627885
1583.554039
1583.844612
1604.385865
1604.654086
1600.116682
1594.171118
1597.389769
1615.673496
1609.504415
1596.741569
1609.303249
1615.248813
1614.95824
1612.767769
1597.076845
1597.814452
1614.533557
1608.386828
1603.29063
1608.431531
1609.146787
1616.500511
1616.522862
1613.773598
1607.626868
1605.72697
1602.597726
1605.704618
1617.77456
1621.552005
1624.256566
1624.278918
1609.303249
1590.99717
1606.75515
1614.891185
1610.711409
1630.20213
1629.911557
1614.108874
1613.371267
1612.141921
1605.950487
1609.012676
1632.303194
1627.855197
1618.176892
1604.69879
1605.123473
1611.918403
1613.55008
1620.859101
1611.560775
1614.265336
1621.708467
1625.172988
1619.607403
1611.761941
1618.735685
1627.050534
1621.417895
1625.955299
1625.240043
1626.469389
1620.702639
1606.174005
1622.155502
1637.846427
1637.086467
1621.216729
1616.120531
1634.918348
1633.174912
1628.346935
1633.577244
1613.706543
1614.131226
1620.188549
1616.925194
1622.915461
1622.267261
1632.996098
1637.175874
1630.447999
1623.831883
1619.987383
1626.000002
1633.443133
1637.555854
1631.0962
1609.258546
1620.2109
1632.325546
1616.031124
1609.683229
1613.93006
1625.240043
1628.570453
1618.132188
1618.512168
1623.429552
1608.230365
1612.164272
1621.440246
1615.561737
1617.461636
1610.97963
1611.314906
1614.175929
1612.90188
1603.603554
1598.216784
1612.812473
1606.285764
1605.72697
1608.476234
1613.103046
1624.100104
1633.107857
1625.240043
1616.858139
1613.728894
1613.371267
1624.882415
1631.722049
1629.084543
1620.747342
1608.118607
1609.839691
1614.533557
1610.800816
1608.140958
1614.265336
1601.994229
1601.904822
1612.38779
1608.208014
1612.432493
1606.576336
1597.032141
1612.700714
1601.480138
1606.10695
1612.365438
1602.888298
1599.736702
1596.607458
1594.662856
1606.62104
1606.665743
1602.485967
1603.223575
1606.553984
1598.842633
1598.239136
1602.77654
1600.831938
1594.484042
1594.618153
1602.888298
1607.202185
1607.224537
1609.19149
1614.377095
1600.85429
1595.042836
1592.27122
1593.858194
1608.453883
1617.64045
1611.583127
1592.472385
1595.176947
1598.395598
1600.139034
1605.235232
1594.528746
1603.402389
1602.754188
1604.497624
1609.95145
1613.03599
1610.398485
1610.309078
1609.19149
1590.013694
1602.351857
1614.44415
1607.693923
1616.276993
1604.229403
1584.895144
1585.968028
1593.254697
1598.239136
1600.943697
1607.604516
1604.162348
1617.081656
1620.345011
1607.068075
1608.587993
1606.151653
1601.346028
1597.456824
1607.358647
1611.024333
1610.867871
1601.703656
1603.089464
1601.077807
1594.305229
1599.781406
1618.176892
1614.466502
1600.3402
1592.874717
1607.179833
1611.158444
1608.766807
1595.378112
1589.477252
1610.264374
1618.512168
1617.305174
1600.630772
1592.427682
1603.469444
1600.362551
1598.976743
1614.511205
1604.8329
1603.760016
1608.789159
1611.8737
1613.483025
1601.50249
1607.872737
1607.023371
1603.357685
1595.22165
1608.297421
1614.82413
1603.42474
1593.075883
1589.007865
1592.718255
1602.240098
1612.097217
1609.392656
1602.329505
1607.157482
1605.995191
1599.133205
1601.547194
1607.738627
1613.03599
1608.811511
1599.624944
1601.278973
1596.719217
1586.660932
1599.133205
1610.376133
1603.134168
1598.373246
1593.947601
1585.275124
1591.153633
1591.265391
1605.145825
1611.650182
1609.482063
1595.333409
1582.123528
1609.750284
1607.045723
1606.352819
1603.737665
1598.17208
1609.035028
1606.643391
1608.655048
1601.904822
1593.81349
1595.556926
1603.983534
1579.016635
1593.321752
1623.831883
1613.55008
1597.032141
1594.260525
1581.721196
1589.298438
1616.433456
1608.565641
1600.384903
1603.827072
1595.467519
1610.242022
1613.214804
1609.526766
1610.97963
1613.371267
1613.393618
1605.86108
1596.339237
1608.140958
1606.285764
1603.312982
1605.414046
1618.914499
1596.495699
1597.389769
1608.0292
1614.064171
1618.512168
1612.432493
1611.381961
1608.453883
1605.34699
1611.49372
1612.477197
1612.343086
1601.077807
1600.742531
1605.123473
1600.496662
1602.843595
1607.291592
1618.243947
1608.699752
1602.038932
1613.03599
1610.286726
1602.553022
1598.015618
1613.013639
1613.751246
1601.793063
1600.183737
1603.648258
1617.349877
1607.64922
1604.139996
1604.721141
1612.857176
1604.162348
1593.701731
1605.391694
1615.405275
1619.272127
1603.961182
1584.626923
1593.657028
1603.201223
1603.558851
1616.656973
1621.194377
1608.856214
1600.071979
1590.170156
1591.868888
1618.758037
1619.294479
1617.551043
1614.645316
1610.063208
1614.131226
1617.215767
1610.912575
1619.987383
1623.898938
1618.065133
1611.180796
1595.60163
1595.512223
1609.683229
1614.220633
1612.030162
1613.527729
1612.656011
1605.101121
1604.497624
1604.497624
1605.615211
1604.989362
1623.116627
1615.226461
1600.60842
1606.375171
1595.154595
1594.998133
1609.258546
1623.809531
1613.93006
1610.331429
1603.067112
1597.233307
1588.806699
1595.556926
1616.031124
1626.447037
1617.506339
1598.730874
1591.51126
1607.358647
1617.64045
1617.081656
1606.196357
1599.021447
1595.154595
1598.395598
1619.026258
1617.059304
1601.994229
1595.758092
1607.112778
1609.482063
1604.072941
1597.456824
1604.229403
1617.707505
1610.443188
1603.469444
1595.35576
1600.519013
1606.889261
1589.343141
1616.74638
1628.346935
1624.793008
1595.22165
1585.543345
1608.587993
1604.967011
1607.559813
1609.638525
1619.517996
1606.039894
1598.574412
1608.453883
1609.079732
1612.633659
1606.509281
1587.510298
1583.978723
1600.742531
1607.358647
1611.136092
1611.314906
1599.312019
1600.653124
1602.083636
1604.899955
1607.917441
1590.728949
1602.933002
1610.219671
1609.280897
1588.002037
1598.03797
1617.171063
1617.215767
1599.982572
1577.02733
1591.824185
1611.583127
1624.30127
1609.616173
1592.382978
1593.992304
1599.982572
1604.207051
1603.715313
1609.817339
1604.944659
1606.911612
1601.055455
1588.136147
1597.903859
1596.942734
1593.81349
1603.268278
1602.307153
1595.892202
1596.495699
1589.633714
1595.60163
1596.406292
1602.240098
1607.515109
1600.362551
1594.506394
1592.494737
1596.383941
1596.495699
1596.741569
1594.394635
1605.369342
1603.536499
1592.762958
1601.88247
1608.878566
1610.577298
1602.307153
1591.354798
1585.878621
1606.576336
1609.102083
1607.872737
1601.301325
1597.926211
1585.588048
1590.192508
1598.015618
1600.9884
1612.097217
1605.72697
1585.677455
1589.231383
1607.850386
1612.320735
1616.835787
1611.605479
1600.183737
1585.6104
1598.350894
1599.043798
1592.941772
1595.378112
1616.008772
1612.700714
1606.531633
1601.815415
1579.933057
1590.125452
1620.792046
1616.388752
1612.052514
1604.654086
1600.9884
1594.685208
1590.259563
1599.535537
1610.934926
1610.242022
1609.415008
1585.163365
1578.614304
1591.466557
1606.688095
1595.936906
1576.401481
1577.183792
1580.87183
1599.490833
1609.213842
1600.742531
1588.583182
1586.057435
1591.265391
1586.057435
1588.180851
1592.047702
1598.350894
1596.965086
1576.088557
1556.955464
1583.263467
1600.273144
1609.415008
1605.391694
1590.974819
1566.879638
1569.137164
1591.153633
1603.000057
1605.235232
1593.344103
1580.469499
1567.93017
1578.010807
1596.875679
1595.847499
1597.970915
1602.284801
1597.859156
1587.331484
1592.047702
1600.586069
1603.536499
1595.176947
1593.187641
1581.050644
1592.025351
1589.745473
1578.94958
1573.361644
1576.312074
1586.705635
1582.034121
1581.676493
1580.558906
1575.48506
1570.74649
1575.082728
1576.222667
1573.428699
1591.287743
1585.297475
1571.662911
1573.920438
1562.699862
1569.248923
1582.257638
1580.648313
1572.378167
1572.758147
1572.80285
1566.454955
1566.656121
1572.914609
1577.384958
1577.273199
1570.701786
1570.165344
1572.422871
1585.923324
1579.307208
1558.83301
1556.128449
1573.674568
1577.697882
1587.063263
1578.502545
1559.905894
1569.226571
1590.013694
1579.97776
1571.707615
1575.462708
1581.475327
1576.692054
1564.443298
1574.680397
1578.279028
1575.820336
1577.452013
1567.326673
1576.692054
1577.854345
1571.618208
1568.086632
1572.556981
1587.130319
1571.908781
1566.14203
1578.167269
1589.477252
1583.576391
1577.608475
1591.555964
1582.548211
1567.438432
1574.702749
1577.116737
1586.772691
1601.36838
1600.921345
1574.546286
1556.933112
1584.693978
1584.358702
1583.129356
1598.596763
1593.902897
1571.439394
1578.390786
1584.224592
1574.032196
1582.883487
1594.19347
1586.236249
1588.650237
1586.236249
1577.519068
1577.429661
1575.127432
1589.83488
1597.725045
1592.092406
1578.860173
1559.592969
1574.501583
1596.24983
1591.935944
1596.62981
1579.016635
1568.734833
1596.339237
1597.501528
1578.837821
1583.82226
1579.709539
1573.093423
1581.341217
1583.554039
1589.901935
1596.003961
1584.246944
1559.034176
1582.950542
1591.913592
1592.025351
1597.836804
1590.214859
1567.237266
1567.349025
1569.584199
1580.581257
1594.953429
1591.980647
1587.331484
1573.942789
1561.202295
1558.743603
1586.236249
1588.583182
1573.249885
1570.411214
1584.71633
1576.624999
1568.377205
1573.071071
1580.73772
1567.773708
1569.114813
1584.895144
1579.061339
1568.287798
1570.567676
1578.323731
1567.013749
1582.481156
1585.364531
1578.279028
1566.030272
1561.470516
1587.331484
1590.036045
1590.416025
1584.224592
1552.641577
1558.073051
1587.845574
1599.982572
1589.812528
1573.69692
1567.684301
1561.626978
1571.908781
1584.023426
1581.698845
1575.48506
1585.789214
1587.242077
1579.351911
1582.682321
1574.792156
1592.539441
1585.09631
1569.159516
1573.875734
1586.884449
1579.061339
1574.7251
1581.25181
1588.985513
1594.618153
1578.681359
1561.112888
1573.540458
1577.966103
1581.117699
1581.095348
1579.262504
1590.527784
1596.853327
1582.27999
1575.261542
1576.557943
1584.537516
1582.928191
1564.21978
1570.657083
1573.361644
1588.784348
1581.229458
1574.21101
1591.399502
1582.324693
1554.899103
1574.0769
1596.495699
1601.726008
1582.257638
1576.557943
1574.255714
1574.993321
1576.446185
1583.866964
1584.023426
1591.533612
1578.167269
1567.55019
1578.882525
1572.691092
1575.194487
1581.363568
1582.436452
1583.218763
1589.365493
1573.831031
1559.123583
1562.185772
1579.262504
1592.40533
1584.492813
1583.151708
1581.743548
1585.766862
1577.563772
1580.536554
1591.712426
1583.151708
1577.228496
1562.744565
1566.00792
1584.20224
1586.057435
1579.038987
1579.597781
1574.255714
1564.555057
1569.85242
1584.20224
1588.292609
1575.730929
1574.613342
1572.646388
1572.825202
1582.123528
1583.777557
1578.100214
1567.751356
1557.268388
1579.642484
1590.930115
1602.284801
1585.453938
1566.678472
1572.691092
1568.086632
1573.853382
1584.179888
1587.443243
1600.139034
1588.851403
1571.528801
1567.281969
1584.224592
1590.684246
1580.044816
1585.051606
1570.075938
1587.599705
1607.26924
1586.571525
1572.445222
1570.187696
1573.920438
1602.77654
1594.171118
1586.12449
1585.655103
1586.50447
1586.660932
1589.745473
1596.205127
1590.460728
1586.683284
1591.555964
1584.649275
1569.092461
1583.196412
1595.22165
1588.694941
1593.947601
1583.889316
1597.412121
1606.844557
1594.953429
1582.883487
1589.186679
1592.897069
1587.756167
1572.869906
1584.403406
1596.406292
1583.978723
1579.731891
1599.535537
1597.948563
1590.773653
1590.661894
1585.006903
1592.159461
1584.671627
1577.340254
1586.325656
1596.383941
1592.382978
1573.115775
1575.708577
1584.492813
1592.025351
1589.924287
1593.43351
1592.025351
1571.014711
1571.953484
1584.984551
1603.715313
1601.547194
1596.048665
1586.996208
1564.488001
1564.286836
1586.213897
1609.750284
1602.620077
1597.054493
1581.050644
1572.065243
1579.441318
1589.231383
1592.27122
1589.96899
1591.332446
1584.291647
1583.643446
1585.23042
1591.578316
1593.388807
1592.047702
1587.063263
1576.736757
1576.51324
1583.978723
1585.185717
1593.053531
1586.906801
1579.173098
1578.211973
1587.130319
1582.436452
1579.575429
1594.70756
1586.012731
1572.646388
1589.030217
1596.540403
1584.939848
1579.910705
1595.556926
1599.177909
1575.172135
1572.713443
1579.798946
1595.422816
1602.575374
1597.568583
1587.443243
1590.728949
1585.6104
1587.465595
1604.855252
1594.059359
1595.60163
1581.989417
1585.6104
1596.674513
1596.719217
1593.880545
1596.227479
1589.320789
1586.146842
1594.506394
1607.068075
1603.402389
1595.959258
1596.607458
1598.820281
1599.96022
1601.144862
1611.918403
1603.089464
1598.462653
1596.76392
1599.557888
1590.460728
1615.584089
1621.216729
1612.968935
1610.577298
1602.217746
1588.382016
1593.992304
1615.964069
1628.235177
1627.2517
1606.062246
1599.557888
1600.295496
1594.975781
1606.844557
1617.416932
1624.904767
1620.702639
1609.593822
1598.283839
1608.252717
1621.708467
1615.785255
1616.679325
1623.094275
1624.323621
1624.904767
1621.574357
1621.261432
1606.10695
1599.803758
1606.375171
1628.972784
1643.568473
1631.722049
1623.809531
1617.863967
1613.125397
1612.656011
1624.122456
1632.482008
1634.471313
1635.745363
1634.851293
1631.878511
1624.323621
1613.214804
1624.882415
1647.591787
1631.386773
1626.447037
1634.56072
1627.76579
1639.008717
1640.439229
1632.392601
1626.581148
1618.176892
1630.090371
1637.37704
1646.250683
1632.034973
1633.15256
1625.441209
1617.528691
1610.934926
1626.849368
1638.829903
1631.051496
1620.501473
1617.014601
1635.566549
1647.725898
1641.489761
1628.749267
1634.225444
1650.497514
1650.385755
1632.169084
1621.931985
1618.512168
1605.168176
1614.265336
1634.9407
1624.882415
1623.094275
1633.085505
1619.406238
1598.775577
1612.700714
1622.781351
1616.567566
1619.853272
1636.840598
1613.013639
1607.939793
1604.899955
1595.22165
1615.740551
1629.665688
1615.360572
1600.697827
1591.153633
1587.845574
1595.668685
1600.183737
1592.092406
1595.266354
1594.260525
1584.358702
1571.595856
1582.034121
1586.817394
1594.215822
1590.371321
1592.047702
1591.265391
1583.285818
1569.85242
1584.58222
1592.606496
1590.192508
1582.391749
1579.754243
1578.793118
1582.65997
1575.261542
1583.017598
1574.702749
1573.272237
1592.338275
1596.138072
1587.01856
1568.153687
1586.593877
1600.295496
1584.828089
1582.771728
1591.086577
1582.816432
1592.695903
1595.802795
1590.594839
1582.749377
1581.967066
1588.113795
1592.114758
1600.85429
1592.114758
1585.476289
1590.103101
1592.606496
1591.600667
1609.258546
1600.675476
1586.102138
1587.487946
1595.065188
1594.439339
1593.657028
1580.804775
1598.529708
1617.618098
1617.953374
1596.674513
1588.918458
1592.695903
1591.466557
1605.34699
1614.488854
1605.838729
1592.137109
1593.567621
1603.782368
1613.952412
1613.371267
1590.013694
1592.517089
1601.301325
1606.509281
1608.766807
1611.426665
1590.594839
1588.806699
1590.371321
1614.533557
1621.194377
1619.719162
1613.974764
1601.480138
1601.033104
1599.624944
1613.617136
1616.075828
1604.296458
1611.8737
1603.536499
1596.607458
1599.244964
1612.656011
1621.015563
1609.638525
1607.470406
1614.377095
1617.171063
1609.035028
1611.605479
1616.053476
1594.864022
1599.937868
1616.23229
1621.127322
1609.973801
1605.123473
1611.583127
1616.187586
1627.966956
1625.128284
1613.952412
1610.443188
1617.327525
1615.85231
1621.730819
1617.77456
1614.600612
1628.816322
1615.293517
1606.777502
1605.659915
1622.826054
1635.410087
1628.838674
1627.095238
1618.378057
1616.344049
1620.59088
1621.99904
1621.10497
1622.155502
1620.635583
1607.559813
1633.219616
1638.673441
1626.022354
1611.806644
1613.818301
1617.506339
1618.847444
1620.523825
1630.58211
1634.225444
1636.48297
1617.975726
1603.603554
1624.278918
1630.805627
1619.607403
1632.280842
1632.549063
1611.11374
1613.706543
1612.499548
1629.978613
1634.024278
1635.678307
1635.901825
1614.690019
1608.096255
1609.638525
1613.572432
1628.682211
1625.105932
1625.32945
1622.267261
1619.070961
1616.925194
1612.253679
1615.293517
1621.149674
1629.643336
1617.148711
1605.436397
1612.812473
1610.242022
1623.653069
1615.382924
1607.157482
1611.672534
1628.928081
1633.800761
1626.894072
1613.483025
1601.726008
1595.713388
1597.546231
1617.104008
1632.593767
1629.643336
1622.64724
1610.107912
1600.85429
1606.151653
1602.418912
1610.756112
1622.244909
1624.077752
1622.289613
1619.69681
1621.775522
1628.905729
1621.015563
1611.806644
1631.252662
1622.758999
1617.595746
1614.265336
1609.750284
1611.650182
1601.301325
1611.046685
1627.654031
1611.471368
1612.678362
1625.32945
1618.959203
1609.035028
1606.665743
1613.348915
1617.483988
1620.255604
1613.393618
1605.883432
1603.380037
1627.38581
1639.209883
1614.578261
1609.43736
1612.38779
1615.7182
1615.159406
1616.120531
1617.193415
1636.013584
1626.111761
1621.529653
1619.875624
1607.448054
1609.929098
1626.692906
1630.71622
1624.793008
1634.292499
1627.028182
1614.175929
1613.460674
1611.180796
1610.242022
1620.099142
1636.080639
1635.611252
1628.861025
1620.188549
1620.769694
1617.886319
1626.894072
1640.975671
1635.343031
1619.607403
1619.741514
1630.872682
1628.14577
1620.568528
1633.621947
1625.620022
1613.259508
1619.450941
1629.911557
1632.325546
1643.121438
1640.483933
1621.909633
1621.216729
1623.049572
1636.527674
1646.809476
1638.092296
1620.009735
1622.89311
1625.642374
1636.930005
1635.410087
1631.632642
1633.66665
1615.941717
1616.075828
1635.477142
1643.65788
1635.678307
1634.605424
1621.373191
1618.646278
1627.788142
1627.296403
1627.497569
1624.189511
1619.69681
1627.408162
1641.154485
1622.624889
1608.006848
1633.599595
1632.213787
1636.572377
1634.963052
1615.427627
1623.787179
1640.998023
1632.437305
1625.575319
1634.9407
1636.393563
1631.923214
1628.950432
1627.005831
1623.429552
1623.653069
1636.013584
1638.092296
1627.855197
1619.473293
1621.931985
1647.681194
1647.949415
1620.143845
1616.679325
1627.676383
1624.278918
1632.571415
1624.502435
1613.997115
1618.80274
1630.090371
1631.565587
1630.045668
1634.895996
1621.172025
1615.941717
1613.393618
1623.653069
1624.681249
1623.608365
1632.593767
1623.049572
1606.352819
1629.218653
1634.963052
1620.926156
1616.791083
1624.30127
1634.225444
1630.090371
1624.547139
1613.438322
1610.711409
1629.039839
1630.045668
1625.664726
1622.51313
1595.266354
1606.218708
1626.715258
1631.923214
1626.894072
1614.265336
1620.099142
1621.931985
1613.594784
1610.353781
1623.206034
1626.670554
1619.026258
1612.991287
1618.758037
1627.38581
1629.464523
1630.023316
1625.351802
1619.070961
1616.567566
1622.088447
1641.534465
1634.270148
1622.781351
1617.618098
1611.717237
1605.279935
1613.885357
1624.927118
1619.719162
1618.311002
1608.252717
1614.198281
1615.181758
1612.231328
1613.147749
1599.714351
1604.810548
1632.861988
1620.2109
1605.771673
1605.771673
1609.236194
1605.592859
1606.956316
1616.276993
1620.322659
1607.939793
1600.09433
1595.73574
1614.44415
1605.995191
1593.701731
1610.800816
1620.412066
1612.968935
1604.519976
1611.605479
1613.505377
1605.659915
1586.884449
1602.933002
1620.099142
1628.950432
1626.782313
1616.701676
1622.37902
1603.111816
1598.462653
1620.501473
1611.694886
1599.200261
1621.172025
1627.855197
1605.34699
1588.784348
1584.246944
1605.34699
1619.517996
1622.289613
1616.768732
1618.266299
1609.012676
1598.350894
1593.858194
1603.983534
1611.247851
1616.813435
1618.623926
1612.164272
1597.166252
1596.294534
1613.147749
1615.069999
1616.120531
1600.764883
1601.122511
1605.21288
1605.659915
1610.756112
1613.170101
1617.953374
1622.37902
1613.684191
1590.684246
1590.99717
1609.012676
1614.600612
1607.582165
1607.693923
1622.155502
1612.633659
1597.00979
1602.754188
1609.124435
1610.934926
1611.49372
1607.582165
1606.688095
1608.275069
1605.838729
1606.710447
1596.071016
1618.556871
1623.518959
1602.91065
1589.924287
1606.330467
1619.763865
1617.618098
1608.900918
1593.835842
1602.061284
1608.878566
1596.294534
1603.648258
1614.220633
1606.017543
1608.185662
1607.023371
1602.083636
1611.560775
1612.38779
1607.001019
1604.721141
1598.574412
1594.528746
1603.022409
1595.489871
1594.238173
1594.573449
1593.500566
1599.155557
1609.035028
1603.335333
1600.764883
1596.071016
1592.338275
1602.463615
1603.670609
1593.768787
1597.188604
1613.617136
1598.03797
1575.149784
1602.217746
1618.981554
1606.75515
1593.925249
1583.643446
1594.506394
1620.836749
1613.058342
1601.681304
1590.170156
1580.134223
1598.641467
1615.673496
1600.206089
1598.68617
1610.59965
1602.553022
1594.081711
1595.623981
1602.642429
1596.696865
1595.288705
1602.754188
1592.382978
1588.896106
1595.512223
1597.948563
1606.911612
1596.898031
1590.125452
1601.413083
1593.835842
1594.439339
1603.201223
1597.747397
1588.382016
1590.036045
1597.501528
1601.994229
1597.769749
1607.291592
1597.121548
1595.60163
1585.073958
1598.127377
1614.377095
1610.152615
1615.114703
1604.385865
1600.004923
1617.77456
1595.758092
1598.239136
1601.033104
1605.548156
1614.555909
1612.656011
1608.766807
1600.809586
1600.027275
1592.047702
1598.775577
1611.180796
1617.573394
1611.024333
1596.361589
1603.268278
1617.416932
1610.689057
1593.344103
1603.514147
1612.611307
1614.287688
1599.669647
1601.189566
1601.815415
1596.518051
1599.982572
1615.986421
1614.95824
1602.061284
1588.516127
1599.379074
1617.215767
1606.688095
1607.336296
1599.110854
1589.879583
1605.011714
1616.187586
1604.967011
1594.059359
1596.76392
1604.139996
1610.420836
1600.630772
1606.285764
1615.047647
1603.737665
1599.267316
1614.287688
1610.130264
1598.239136
1598.395598
1605.21288
1614.153578
1617.215767
1605.905784
1593.478214
1595.042836
1608.409179
1606.017543
1614.622964
1619.607403
1604.229403
1593.880545
1603.380037
1610.644354
1608.699752
1611.426665
1606.688095
1590.796005
1596.696865
1604.45292
1602.798891
1615.047647
1601.815415
1602.53067
1624.390677
1622.088447
1606.665743
1601.077807
1598.909688
1608.096255
1622.870758
1614.041819
1594.282877
1592.762958
1612.812473
1616.74638
1605.458749
1610.420836
1618.243947
1623.54131
1605.905784
1591.041874
1605.816377
1608.587993
1606.576336
1616.679325
1612.723066
1599.088502
1590.304266
1584.001074
1622.043743
1629.576281
1609.102083
1613.527729
1606.911612
1588.024388
1604.654086
1628.302232
1623.675421
1616.455807
1612.812473
1589.4549
1576.267371
1635.186569
1651.101011
1639.634566
1610.309078
1582.548211
1578.793118
1620.2109
1641.288595
1628.078714
1623.161331
1613.460674
1602.575374
1588.382016
1590.013694
1612.678362
1630.358592
1630.336241
1619.294479
1600.071979
1591.421853
1615.293517
1621.373191
1598.507356
1601.971877
1610.420836
1609.035028
1608.565641
1621.328488
1621.552005
1611.739589
1610.353781
1603.760016
1586.50447
1592.092406
1614.064171
1626.067057
1624.524787
1614.846482
1602.553022
1592.248868
1595.936906
1607.001019
1606.10695
1616.947546
1624.971822
1603.692961
1597.501528
1607.068075
1611.963107
1613.818301
1615.561737
1602.754188
1613.326563
1617.77456
1611.49372
1609.079732
1595.847499
1613.840653
1610.890223
1595.445167
1612.432493
1619.853272
1617.998078
1604.095293
1611.940755
1613.483025
1611.985458
1614.734723
1615.651144
1610.309078
1601.278973
1598.060322
1612.834825
1630.492703
1619.517996
1626.424685
1629.084543
1623.4072
1615.561737
1597.859156
1598.17208
1609.280897
1623.362496
1632.929043
1620.702639
1614.891185
1613.058342
1603.670609
1603.93883
1606.978668
1615.561737
1627.2517
1622.244909
1609.280897
1613.773598
1617.416932
1598.864984
1603.178871
1622.848406
1616.478159
1624.94947
1623.138979
1624.43538
1612.611307
1605.592859
1625.932947
1622.311964
1620.769694
1636.527674
1625.083581
1585.23042
1594.372284
1630.135075
1624.0554
1633.689002
1620.546176
1604.45292
1599.401426
1616.500511
1619.249775
1616.612269
1611.516072
1615.628793
1620.322659
1621.037915
1607.805682
1611.8737
1631.029145
1623.362496
1604.8329
1606.218708
1625.552967
1638.986366
1619.361534
1611.046685
1611.404313
1610.644354
1630.649165
1624.569491
1611.516072
1605.123473
1606.822205
1624.904767
1618.80274
1611.717237
1613.03599
1606.129301
1607.671572
1620.881453
1606.911612
1596.316886
1597.814452
1607.425703
1621.440246
1603.558851
1600.250793
1615.584089
1609.616173
1594.126415
1601.36838
1608.766807
1599.088502
1597.993266
1601.189566
1608.520938
1604.45292
1615.092351
1600.764883
1597.233307
1606.285764
1602.307153
1599.021447
1597.389769
1608.476234
1608.766807
1603.625906
1594.864022
1597.00979
1606.665743
1606.218708
1609.794987
1588.963162
1587.800871
1587.845574
1589.745473
1599.222612
1608.140958
1600.876641
1598.55206
1589.879583
1589.879583
1590.237211
1598.619115
1593.545269
1594.618153
1608.6774
1587.778519
1582.212935
1596.182775
1588.672589
1593.321752
1604.162348
1599.06615
1592.986476
1586.571525
1580.178926
1598.55206
1606.486929
1603.335333
1601.36838
1603.29063
1582.883487
1577.340254
1597.456824
1605.391694
1607.693923
1590.058397
1583.531688
1588.873755
1587.264429
1590.527784
1592.047702
1603.134168
1591.399502
1591.131281
1596.272182
1594.528746
1594.32758
1610.018505
1615.315868
1591.712426
1594.126415
1595.489871
1600.921345
1604.922307
1591.131281
1593.768787
1606.218708
1611.717237
1612.656011
1609.772636
1602.26245
1607.805682
1602.888298
1590.460728
1606.576336
1613.103046
1613.371267
1612.857176
1593.053531
1582.190583
1597.903859
1610.890223
1619.272127
1621.99904
1615.539386
1607.671572
1595.176947
1584.224592
1601.770711
1614.980592
1623.653069
1622.401371
1602.709484
1606.665743
1609.236194
1609.19149
1626.201168
1631.520883
1616.589918
1616.075828
1618.981554
1619.138017
1611.62783
1608.856214
1610.152615
1606.956316
1608.610345
1603.312982
1609.035028
1610.756112
1602.26245
1606.24106
1621.127322
1608.476234
1604.743493
1592.740606
1599.96022
1608.275069
1618.847444
1619.026258
1608.565641
1600.139034
1598.395598
1609.169139
1616.455807
1605.034066
1609.079732
1617.908671
1601.480138
1603.894127
1614.064171
1610.733761
1603.268278
1610.800816
1616.433456
1627.452866
1613.28186
1596.719217
1611.516072
1608.006848
1605.972839
1609.929098
1628.726915
1622.066095
1608.118607
1603.648258
1616.276993
1607.246889
1598.082673
1609.012676
1606.397522
1605.324639
1603.178871
1607.492758
1620.322659
1617.662801
1614.980592
1610.331429
1603.067112
1592.427682
1603.134168
1624.502435
1614.712371
1615.517034
1619.495645
1600.161386
1614.041819
1629.285709
1614.44415
1605.771673
1611.136092
1618.556871
1617.215767
1618.892147
1614.44415
1620.523825
1618.311002
1602.284801
1598.239136
1627.028182
1635.857121
1617.618098
1604.609383
1598.395598
1619.629755
1627.162293
1617.394581
1606.956316
1623.898938
1625.597671
1617.953374
1611.62783
1619.629755
1627.743438
1615.874662
1603.93883
1612.00781
1611.471368
1615.025296
1616.791083
1617.282822
1621.395543
1617.506339
1619.115665
1611.851348
1601.413083
1594.260525
1620.881453
1640.640395
1627.38581
1617.193415
1604.296458
1606.330467
1625.731781
1621.596708
1625.597671
1636.170046
1629.866854
1614.913537
1610.264374
1610.197319
1624.368325
1624.770656
1631.61029
1618.378057
1606.352819
1603.42474
1607.805682
1622.155502
1640.260415
1630.179778
1620.032086
1610.934926
1594.372284
1612.477197
1628.816322
1635.745363
1628.905729
1615.293517
1610.376133
1624.860063
1623.787179
1599.691999
1609.169139
1624.837711
1623.787179
1629.263357
1630.515055
1612.656011
1618.646278
1628.302232
1605.324639
1610.063208
1630.649165
1627.296403
1625.955299
1627.050534
1612.298383
1611.046685
1608.744455
1621.596708
1636.773543
1618.735685
1601.234269
1613.505377
1617.506339
1612.030162
1612.745418
1616.835787
1606.464577
1604.654086
1605.883432
1602.664781
1619.808569
1620.657935
1614.578261
1612.924232
1600.3402
1602.821243
1608.833862
1599.021447
1612.812473
1629.598633
1612.499548
1595.825147
1603.894127
1628.972784
1611.538423
1609.906746
1603.558851
1589.477252
1612.38779
1634.292499
1623.831883
1606.62104
1599.289668
1609.906746
1598.485005
1606.553984
1627.564624
1626.35763
1609.906746
1614.175929
1624.748304
1625.396505
1614.31004
1608.587993
1609.035028
1617.014601
1609.817339
1612.432493
1609.280897
1591.846537
1596.942734
1608.409179
1619.383886
1601.949525
1591.064226
1589.767824
1596.071016
1617.282822
1620.255604
1612.320735
1603.692961
1594.238173
1597.814452
1585.789214
1606.665743
1618.311002
1606.553984
1607.179833
1620.07679
1623.54131
1611.806644
1604.005886
1608.744455
1618.80274
1611.158444
1605.659915
1603.760016
1599.535537
1594.595801
1598.842633
1602.597726
1607.872737
1593.947601
1593.43351
1611.247851
1612.499548
1600.876641
1587.510298
1585.208069
1599.803758
1601.636601
1604.207051
1611.672534
1599.647295
1597.948563
1591.89124
1581.430624
1587.01856
1594.305229
1615.271165
1615.472331
1609.750284
1593.098234
1583.017598
1584.403406
1588.694941
1599.110854
1610.353781
1599.289668
1589.007865
1594.618153
1571.26058
1590.058397
1612.208976
1609.347953
1602.105987
1603.223575
1600.429606
1567.527839
1578.726063
1598.060322
1604.69879
1605.525804
1592.852365
1584.023426
1573.920438
1591.712426
1607.693923
1595.73574
1590.661894
1594.148766
1596.987438
1596.339237
1596.450996
1595.847499
1596.607458
1594.148766
1600.273144
1584.045778
1576.669702
1591.868888
1606.844557
1601.457787
1591.399502
1591.265391
1597.278011
1597.881508
1589.186679
1581.654141
1603.335333
1603.447092
1590.99717
1584.962199
1594.19347
1587.01856
1591.108929
1603.514147
1604.8329
1599.200261
1587.622057
1581.184755
1591.779481
1598.641467
1602.01658
1593.321752
1593.81349
1592.382978
1586.213897
1589.052569
1595.758092
1596.607458
1578.614304
1571.193525
1587.040912
1594.059359
1588.471423
1579.664836
1573.004016
1578.524897
1572.735795
1564.59976
1574.322769
1577.653179
1581.117699
1570.970007
1566.879638
1559.86119
1556.39667
1550.831086
1564.935036
1572.556981
1580.044816
1560.75526
1539.297585
1542.56094
1562.811621
1554.832048
1546.874827
1561.694033
1566.991397
1563.124545
1544.48319
1537.844722
1554.876751
1563.683339
1548.528856
1541.979795
1550.026423
1559.414155
1568.31015
1556.866057
1556.843705
1555.390841
1545.846647
1560.308225
1565.225609
1548.685318
1543.365603
1552.328652
1535.877769
1532.614414
1558.721251
1567.773708
1568.690129
1560.665853
1544.617301
1527.339402
1552.820391
1556.486077
1559.101231
1565.62794
1561.470516
1542.538588
1546.606606
1554.98851
1540.817504
1536.883597
1551.479286
1558.609493
1548.953539
1554.876751
1559.145934
1554.429716
1546.964234
1522.131446
1537.442391
1557.670719
1546.941882
1551.032251
1555.524952
1548.238283
1539.945786
1535.631899
1552.082783
1552.68628
1550.741679
1547.165399
1548.618263
1544.170266
1543.253844
1541.800981
1554.228551
1556.441373
1567.840763
1556.933112
1534.313146
1536.548321
1544.036155
1546.27133
1544.505542
1554.563827
1563.884504
1559.056528
1558.609493
1561.850496
1551.054603
1544.974928
1565.046795
1567.706653
1563.906856
1565.382071
1551.255769
1559.570618
1578.94958
1558.654196
1548.282987
1551.054603
1568.108984
1564.935036
1558.900065
1569.85242
1578.636656
1563.459821
1543.857341
1548.484152
1558.274216
1559.615321
1576.759109
1564.08567
1554.139144
1544.885522
1556.843705
1567.639597
1568.220743
1565.762051
1561.895199
1559.816487
1554.809696
1566.834935
1572.691092
1564.063318
1565.158554
1539.454048
1535.721306
1566.790231
1574.479231
1574.97097
1561.671682
1550.62992
1546.494847
1565.694996
1573.272237
1560.24117
1556.039042
1577.340254
1579.106042
1574.993321
1563.862153
1558.967121
1572.355815
1585.141013
1576.379129
1559.72708
1552.529818
1560.487039
1557.447202
1561.559923
1581.095348
1588.851403
1570.277103
1543.320899
1555.88258
1577.004978
1579.217801
1580.693016
1571.014711
1552.708632
1549.73585
1570.902952
1576.155612
1564.08567
1560.285873
1569.025406
1564.711519
1556.486077
1564.376243
1576.580295
1574.859211
1546.628958
1549.22176
1570.567676
1581.564734
1577.899048
1574.680397
1558.430679
1553.021556
1565.896161
1569.763013
1567.013749
1569.763013
1559.280045
1577.40731
1591.37715
1571.081766
1560.196466
1571.886429
1575.48506
1557.603664
1554.362661
1569.159516
1571.886429
1569.025406
1573.518106
1574.389824
1560.732908
1563.482173
1575.23919
1566.544362
1569.427737
1558.207161
1560.911722
1561.314054
1555.927283
1553.625054
1553.759164
1544.662004
1558.385975
1566.678472
1560.308225
1548.260635
1561.515219
1563.593932
1555.770821
1549.110001
1553.289777
1552.306301
1555.100269
1558.45303
1557.402498
1561.761089
1567.080804
1561.13524
1541.15278
1553.021556
1553.58035
1552.574522
1567.729004
1549.020594
1543.924397
1558.877714
1561.314054
1559.190638
1559.682376
1551.412231
1543.365603
1553.759164
1565.49383
1566.723176
1546.91953
1552.082783
1552.865094
1555.457897
1564.152725
1564.331539
1559.86119
1552.93215
1542.404478
1545.153742
1567.013749
1562.476344
1551.479286
1551.725155
1562.409289
1549.780554
1543.142085
1554.541475
1556.597836
1560.911722
1566.454955
1555.167324
1534.715478
1533.396725
1543.07503
1566.723176
1569.025406
1548.819429
1530.692164
1520.678582
1531.273309
1554.407365
1560.017653
1558.140106
1549.73585
1535.989527
1526.221815
1527.674678
1540.906911
1562.252827
1556.754298
1539.297585
1515.537681
1540.348117
1566.834935
1569.986531
1544.885522
1541.465705
1542.069202
1536.41421
1540.057545
1544.147914
1552.574522
1546.003109
1540.571635
1532.145027
1543.052678
1559.749432
1554.541475
1557.447202
1548.506504
1546.986585
1526.66885
1532.547359
1557.044871
1558.251865
1549.579388
1535.877769
1534.87194
1545.176094
1560.017653
1556.933112
1533.910815
1539.856379
1553.982682
1550.741679
1539.901083
1532.547359
1534.313146
1546.27133
1564.577408
1560.24117
1537.598853
1534.313146
1529.395763
1544.505542
1557.894237
1551.300472
1550.786382
1551.568693
1551.568693
1540.079896
1537.934129
1537.755315
1561.224647
1577.273199
1573.160478
1546.964234
1534.380202
1547.701841
1553.20037
1556.173152
1564.264484
1568.399557
1557.089574
1559.011824
1553.267426
1551.211065
1555.033214
1570.008882
1557.089574
1545.086687
1550.451106
1566.611417
1562.789269
1550.562865
1556.486077
1575.909743
1559.414155
1548.573559
1551.367527
1549.847609
1554.139144
1561.78344
1555.927283
1541.555112
1553.20037
1557.402498
1569.673606
1566.454955
1542.42683
1542.538588
1545.332556
1563.929208
1565.650292
1567.79606
1554.206199
1548.059469
1557.603664
1550.920493
1556.262559
1564.890333
1561.157591
1541.398649
1551.591045
1571.461746
1555.390841
1556.307263
1555.256731
1552.127487
1548.461801
1547.523027
1549.400574
1553.334481
1572.601685
1549.73585
1534.536664
1543.633824
1565.985568
1571.037063
1561.045833
1538.492923
1533.173207
1549.199408
1554.60853
1551.859266
1553.155667
1572.758147
1551.255769
1545.198446
1534.827237
1548.014766
1564.443298
1557.626016
1555.435545
1564.800926
1556.307263
1532.189731
1524.031344
1565.963217
1570.858249
1553.915626
1550.406402
1557.93894
1547.075992
1544.974928
1563.996263
1563.884504
1552.216894
1540.951614
1553.468591
1564.353891
1553.245074
1541.041021
1543.410306
1556.597836
1554.541475
1557.782478
1558.207161
1547.254806
1535.587196
1540.795152
1556.620187
1552.149838
1557.268388
1558.184809
1562.252827
1556.106097
1542.091553
1523.539606
1531.139199
1566.566714
1568.935999
1564.353891
1546.941882
1530.602757
1538.068239
1552.909798
1555.480248
1552.842743
1557.849533
1551.836914
1546.941882
1526.110056
1542.091553
1557.782478
1550.227588
1542.18096
1548.372394
1550.24994
1545.868998
1540.683394
1562.811621
1578.301379
1572.892257
1559.72708
1543.186789
1534.581367
1548.662966
1572.869906
1563.996263
1547.143048
1549.758202
1560.867019
1547.992414
1553.043908
1562.5434
1559.190638
1560.867019
1558.363623
1551.836914
1563.772746
1563.593932
1548.908836
1544.371431
1544.86317
1562.185772
1564.957388
1568.287798
1555.323786
1546.316033
1551.792211
1548.126524
1554.049737
1560.084708
1560.24117
1561.023481
1559.168286
1561.381109
1558.922417
1560.263522
1559.235341
1570.657083
1582.14588
1557.447202
1539.521103
1564.376243
1583.598743
1585.319827
1591.086577
1588.292609
1582.727025
1564.331539
1555.927283
1571.193525
1595.288705
1600.519013
1582.771728
1573.495754
1573.942789
1569.137164
1565.87381
1578.279028
1586.169194
1580.73772
1576.446185
1593.209993
1591.399502
1573.831031
1560.196466
1580.067167
1590.86306
1578.547249
1586.839746
1578.524897
1576.446185
1588.337313
1583.598743
1562.252827
1573.56281
1604.296458
1605.21288
1592.27122
1594.394635
1594.372284
1587.577353
1588.42672
1599.624944
1602.418912
1592.762958
1583.68815
1586.146842
1593.031179
1588.829051
1592.941772
1602.26245
1606.24106
1601.480138
1589.186679
1594.19347
1587.555002
1587.242077
1605.794025
1598.306191
1595.020484
1590.036045
1586.750339
1571.864077
1577.966103
1589.186679
1586.459766
1572.355815
1570.992359
1559.682376
1563.258655
1583.419929
1577.40731
1567.661949
1571.081766
1560.084708
1558.341272
1548.618263
1566.454955
1568.466612
1556.01669
1545.690184
1537.531798
1547.903007
1543.611472
1539.968138
1540.63869
1539.297585
1535.497789
1522.243204
1540.906911
1546.40544
1534.626071
1514.196576
1508.519233
1522.846701
1524.813655
1533.0838
1532.100324
1520.969155
1509.078027
1515.671792
1524.031344
1531.474475
1524.7466
1517.012896
1515.13535
1517.214062
1517.839911
1519.806864
1519.315126
1518.152835
1515.940012
1521.237376
1515.940012
1517.482283
1510.329725
1504.875899
1502.461911
1494.862317
1514.263632
1520.946803
1510.508539
1507.759274
1501.210213
1486.43571
1499.734998
1503.423036
1511.447312
1516.54351
1508.832158
1507.558108
1501.210213
1488.648532
1490.213155
1507.222832
1503.780663
1493.364751
1492.068349
1497.924506
1489.095567
1495.354056
1509.972097
1498.259783
1492.582439
1482.032416
1475.4163
1483.529983
1492.537736
1508.251012
1508.049847
1492.33657
1465.670939
1486.927448
1510.106207
1513.950707
1490.727245
1477.763233
1486.592172
1489.721416
1496.359884
1482.188878
1494.594096
1506.753445
1500.763178
1487.642704
1482.546506
1480.758367
1487.709759
1495.309352
1487.97798
1482.300637
1491.82248
1513.011934
1505.501748
1475.371596
1472.018835
1490.28021
1490.883707
1496.829271
1498.4833
1489.676713
1475.148079
1475.081024
1478.523192
1490.101396
1480.065463
1478.925524
1484.245239
1489.095567
1489.76612
1489.564954
1481.853602
1476.265666
1472.08589
1478.053806
1490.503727
1490.503727
1486.838041
1486.100434
1485.094605
1470.767137
1466.497954
1477.830288
1481.853602
1487.08391
1492.85066
1493.521213
1476.600942
1469.604846
1478.590247
1475.103375
1473.49405
1486.413358
1482.21123
1474.566933
1473.292884
1473.091718
1497.052788
1490.973114
1481.361864
1483.641742
1478.836117
1481.741843
1475.528058
1477.092681
1473.874029
1486.614524
1506.954611
1500.763178
1491.733073
1503.288925
1496.493995
1493.968248
1500.159681
1504.473568
1510.732056
1517.437579
1508.027495
1505.926431
1513.481321
1523.763123
1534.313146
1530.356888
1526.221815
1527.272347
1516.968193
1528.680507
1538.984661
1522.109094
1522.086742
1535.229568
1534.983699
1530.446295
1530.558053
1519.896271
1515.582385
1534.49196
1530.826274
1529.507521
1533.732001
1536.727135
1531.675641
1514.487149
1514.978887
1531.742696
1538.381164
1544.684356
1537.129466
1503.423036
1518.845739
1550.071126
1549.534684
1538.515274
1533.128504
1515.940012
1519.851568
1540.549283
1543.410306
1546.003109
1538.492923
1525.864187
1532.301489
1546.628958
1543.07503
1533.910815
1535.609548
1540.839856
1534.044925
1524.388972
1535.721306
1541.957443
1547.031289
1534.804885
1548.104173
1537.397687
1534.916643
1548.126524
1541.868036
1547.67949
1546.830123
1535.609548
1529.574577
1528.814617
1530.356888
1531.183902
1539.051716
1551.747507
1547.031289
1530.64746
1526.087704
1528.904024
1534.715478
1533.374373
1532.927338
1539.051716
1536.011879
1533.642594
1527.272347
1534.268443
1549.847609
1530.222777
1512.69901
1524.858358
1537.107114
1557.223684
1536.905949
1534.424905
1541.622167
1543.320899
1546.651309
1538.314109
1519.516292
1524.813655
1540.839856
1538.381164
1529.2393
1537.442391
1531.787399
1529.887501
1541.15278
1536.838894
1532.122675
1538.269405
1531.988565
1536.66008
1535.698955
1536.593024
1527.719382
1529.48517
1525.461856
1538.895254
1539.878731
1528.456989
1538.425867
1543.365603
1525.707725
1520.812693
1542.739754
1538.179998
1531.139199
1530.580405
1531.072143
1552.194542
1551.836914
1550.853437
1551.188713
1548.774725
1539.342289
1539.632862
1548.886484
1570.701786
1562.096365
1556.508429
1554.8544
1552.328652
1553.58035
1573.026368
1576.870868
1574.278065
1581.676493
1584.917496
1584.381054
1583.084653
1586.750339
1578.614304
1577.004978
1590.885412
1598.820281
1596.11572
1599.759054
1604.877604
1598.619115
1595.489871
1592.986476
1585.498641
1596.674513
1603.558851
1603.156519
1597.680342
1594.931077
1608.945621
1607.202185
1600.9884
1592.941772
1590.48308
1600.384903
1614.82413
1614.287688
1602.977705
1604.944659
1611.8737
1603.894127
1589.231383
1596.473348
1596.003961
1614.488854
1624.94947
1613.058342
1601.189566
1589.343141
1589.298438
1603.93883
1622.915461
1620.322659
1623.206034
1607.805682
1596.227479
1598.17208
1610.018505
1604.497624
1604.788197
1599.110854
1598.082673
1600.653124
1615.740551
1613.751246
1598.149729
1599.222612
1602.195394
1627.095238
1627.050534
1603.022409
1580.290685
1601.860118
1628.905729
1623.071924
1609.884394
1606.732798
1617.64045
1598.395598
1586.929153
1609.526766
1622.89311
1617.416932
1612.38779
1602.955354
1610.845519
1601.770711
1600.9884
1605.995191
1601.636601
1609.616173
1600.317848
1583.866964
1596.048665
1611.426665
1599.088502
1599.267316
1602.173043
1595.802795
1591.645371
1603.357685
1594.796967
1592.002999
1603.491795
1609.169139
1590.34897
1587.264429
1606.196357
1600.809586
1603.268278
1602.284801
1599.58024
1592.941772
1612.052514
1604.8329
1579.866002
1585.655103
1606.174005
1607.895089
1603.558851
1605.704618
1592.025351
1583.084653
1596.607458
1603.089464
1591.667723
1590.99717
1584.537516
1581.274161
1593.43351
1600.9884
1603.648258
1602.731836
1603.491795
1608.587993
1590.147804
1581.095348
1585.006903
1586.280952
1602.374208
1611.314906
1599.423778
1575.306246
1587.487946
1588.136147
1589.924287
1618.087485
1604.542327
1582.65997
1590.192508
1586.727987
1580.313036
1588.247906
1597.792101
1597.00979
1583.934019
1570.8806
1563.236304
1589.07492
1614.712371
1603.536499
1583.911667
1591.868888
1596.406292
1583.866964
1592.472385
1594.215822
1582.548211
1573.719272
1576.088557
1585.453938
1599.803758
1603.648258
1594.104063
1593.835842
1589.857231
1576.043853
1583.643446
1594.998133
1589.186679
1598.015618
1596.719217
1590.86306
1590.48308
1577.072034
1590.147804
1598.663819
1598.730874
1591.600667
1588.136147
1601.189566
1585.498641
1581.721196
1602.865947
1613.840653
1600.519013
1579.418967
1578.323731
1581.363568
1584.448109
1574.121603
1572.914609
1594.774615
1588.247906
1580.961237
1573.428699
1580.983589
1589.343141
1590.214859
1580.73772
1567.438432
1576.490888
1565.49383
1589.030217
1589.343141
1578.681359
1583.151708
1592.450034
1592.986476
1572.713443
1568.176039
1578.457842
1581.050644
1577.004978
1582.928191
1588.985513
1577.831993
1563.549228
1565.002092
1583.218763
1591.578316
1589.4549
1574.948618
1551.434583
1564.912685
1591.108929
1586.236249
1584.291647
1583.196412
1579.418967
1583.375225
1587.845574
1582.302342
1568.131336
1569.964179
1588.963162
1583.129356
1581.676493
1584.358702
1577.295551
1584.157537
1567.170211
1568.846592
1593.880545
1588.896106
1572.266408
1565.762051
1568.779536
1592.986476
1591.198336
1566.611417
1558.408327
1567.349025
1581.25181
1583.866964
1577.608475
1568.287798
1572.825202
1581.028292
1592.248868
1587.130319
1554.496772
1560.554094
1584.470461
1579.173098
1571.573504
1571.148821
1567.460783
1559.794135
1567.438432
1570.008882
1579.664836
1598.753226
1581.162403
1568.019577
1571.037063
1573.138127
1581.922362
1551.568693
1547.478324
1586.884449
1597.814452
1592.472385
1574.188658
1561.984606
1559.682376
1563.839801
1571.931132
1569.137164
1577.809641
1570.925304
1579.575429
1588.180851
1590.728949
1587.353836
1580.245981
1583.375225
1583.241115
1599.870813
1595.825147
1583.419929
1601.010752
1618.80274
1605.235232
1578.726063
1588.583182
1609.258546
1611.761941
1626.111761
1616.88049
1603.760016
1598.17208
1591.623019
1596.562755
1627.072886
1619.629755
1609.683229
1611.985458
1616.344049
1605.86108
1592.606496
1595.400464
1625.798836
1633.711354
1622.155502
1612.298383
1618.378057
1618.400409
1593.098234
1600.071979
1624.837711
1636.393563
1629.576281
1625.061229
1621.306136
1615.181758
1604.162348
1611.046685
1626.73761
1627.698735
1626.759961
1629.241005
1618.355706
1620.635583
1632.549063
1626.067057
1637.086467
1644.462543
1635.275976
1626.961127
1625.32945
1639.880435
1638.136999
1628.168121
1633.845464
1655.414898
1653.000909
1649.402279
1632.906691
1628.458694
1651.72686
1649.849313
1645.468372
1645.825999
1639.276938
1633.15256
1641.757982
1662.88038
1665.473183
1655.772526
1655.146677
1643.948453
1639.835732
1644.41784
1651.995081
1658.186514
1642.49559
1645.222502
1651.525694
1649.022299
1653.492648
1653.492648
1658.141811
1650.162238
1648.888188
1655.459601
1661.114593
1661.092241
1653.850276
1640.998023
1632.817284
1656.867761
1672.782203
1668.803593
1659.259398
1648.351747
1648.687023
1646.116572
1661.427517
1671.441099
1668.37891
1664.512058
1658.633549
1645.535427
1645.96011
1666.255494
1675.30795
1674.123308
1665.674349
1661.33811
1650.273997
1653.760869
1679.308913
1686.684988
1676.850221
1671.776375
1659.482915
1651.59275
1669.697663
1690.17186
1678.079567
1678.481898
1675.598523
1660.935779
1661.047537
1662.098069
1687.467299
1692.161166
1683.086357
1670.077642
1673.430404
1666.45666
1661.114593
1687.959038
1691.58002
1683.533392
1684.583924
1675.822041
1659.639378
1652.419764
1681.119404
1690.685951
1682.460509
1674.838564
1678.101918
1686.305009
1685.545049
1675.710282
1670.658788
1672.87161
1661.71809
1668.848296
1677.565477
1671.150526
1676.403186
1666.188439
1672.156354
1677.341959
1658.298273
1660.82402
1675.218543
1671.642264
1656.08545
1653.805572
1668.222447
1665.450831
1651.570398
1666.121383
1658.253569
1653.738517
1667.373081
1668.535372
1668.691834
1664.400299
1652.397412
1658.186514
1656.912465
1654.319662
1664.623817
1664.66852
1661.472221
1669.138869
1672.335168
1664.400299
1647.591787
1656.063098
1657.761831
1655.258436
1668.200096
1676.604352
1665.026148
1652.285654
1660.131116
1667.171915
1665.674349
1660.82402
1652.933854
1650.83279
1664.579113
1667.596599
1665.920218
1659.549971
1667.350729
1673.676273
1665.115555
1641.73563
1646.563607
1642.674404
1659.304101
1659.639378
1649.312872
1646.518904
1641.802685
1649.826962
1656.107802
1654.476125
1655.392546
1658.722956
1645.602482
1654.945511
1661.896904
1662.23218
1650.69868
1651.257473
1654.967863
1650.653976
1650.899845
1661.002834
1659.147639
1649.022299
1649.648148
1651.145715
1650.18459
1657.024223
1656.688947
1659.751136
1658.499439
1659.326453
1651.101011
1663.059194
1657.49361
1642.160313
1636.907653
1645.96011
1651.123363
1638.807552
1655.973691
1667.663654
1673.743328
1663.327415
1648.441154
1638.628738
1654.1632
1652.665633
1648.441154
1643.680232
1643.836694
1644.03786
1629.665688
1640.260415
1640.863912
1638.7852
1646.608311
1644.17197
1643.65788
1638.293462
1636.438267
1651.413936
1646.809476
1636.460619
1645.401316
1650.3187
1657.068927
1641.422706
1632.169084
1644.753116
1640.19336
1623.116627
1629.352764
1634.001927
1644.194322
1650.139886
1656.018395
1657.895941
1651.928026
1639.053421
1635.387735
1635.521845
1639.478104
1644.261377
1651.883322
1646.675366
1637.064116
1638.427572
1635.343031
1637.041764
1642.607348
1635.097162
1637.689964
1639.589863
1635.007755
1622.13315
1624.122456
1624.122456
1628.034011
1638.874607
1634.113685
1632.280842
1631.587938
1623.608365
1619.629755
1616.724028
1623.429552
1614.846482
1624.793008
1641.981499
1627.743438
1614.511205
1615.785255
1617.193415
1608.185662
1621.194377
1626.22352
1625.441209
1640.059249
1635.499494
1625.418857
1619.160368
1620.993211
1629.732743
1628.570453
1635.83477
1627.832845
1616.947546
1621.775522
1624.636546
1623.362496
1632.593767
1625.84354
1618.936851
1622.155502
1636.415915
1627.095238
1613.751246
1603.268278
1614.533557
1634.717182
1611.62783
1615.494682
1626.156464
1624.122456
1617.506339
1607.224537
1605.548156
1610.97963
1604.899955
1595.534574
1600.206089
1625.351802
1621.216729
1617.372229
1612.834825
1598.350894
1588.851403
1595.892202
1633.174912
1628.615156
1615.20411
1610.59965
1608.945621
1599.535537
1605.458749
1631.431476
1634.158389
1612.208976
1602.26245
1612.924232
1617.282822
1605.794025
1606.889261
1615.494682
1605.816377
1606.174005
1616.276993
1599.96022
1602.977705
1620.59088
1626.022354
1616.008772
1615.897014
1625.821188
1620.747342
1595.08754
1595.534574
1609.370304
1609.794987
1618.690982
1616.724028
1602.843595
1598.820281
1613.147749
1611.314906
1610.197319
1619.473293
1604.587031
1594.439339
1598.954391
1600.519013
1605.749322
1595.333409
1591.51126
1596.853327
1595.378112
1600.429606
1607.336296
1604.363514
1593.120586
1587.845574
1608.655048
1606.062246
1588.851403
1582.816432
1598.328543
1608.744455
1594.148766
1585.677455
1605.548156
1599.982572
1593.880545
1597.747397
1605.21288
1608.230365
1607.895089
1608.655048
1604.296458
1602.597726
1593.522917
1592.584144
1601.435435
1605.078769
1597.188604
1592.606496
1595.132243
1599.043798
1603.760016
1611.091389
1595.959258
1578.234324
1569.606551
1577.094385
1591.041874
1591.24304
1594.126415
1602.083636
1598.730874
1582.592914
1565.091499
1565.694996
1591.265391
1614.44415
1614.153578
1599.714351
1588.873755
1584.313999
1566.790231
1571.752318
1583.375225
1594.819319
1605.615211
1613.058342
1588.963162
1582.101176
1580.022464
1577.608475
1586.772691
1595.333409
1590.416025
1595.691037
1594.372284
1591.734778
1595.22165
1584.135185
1575.082728
1566.276141
1583.107005
1611.650182
1596.272182
1586.280952
1577.675531
1569.695958
1572.311112
1571.886429
1554.407365
1569.874772
1591.51126
1592.159461
1581.877659
1573.652217
1560.732908
1546.27133
1561.314054
1590.125452
1594.551098
1582.056473
1574.300417
1578.726063
1569.181868
1557.670719
1560.75526
1554.943807
1581.140051
1604.341162
1587.823223
1570.902952
1567.393728
1563.638635
1562.632807
1562.811621
1570.187696
1568.712481
1560.397632
1560.174115
1570.411214
1573.540458
1571.081766
1552.328652
1551.680452
1568.667778
1566.857286
1567.974874
1566.365548
1563.236304
1559.972949
1550.004071
1559.168286
1562.632807
1570.388862
1568.243094
1561.537571
1553.647405
1548.037117
1551.814562
1564.577408
1584.895144
1578.167269
1557.380147
1551.903969
1562.901028
1567.706653
1560.397632
1562.811621
1565.292664
1563.549228
1566.544362
1556.195504
1548.774725
1544.818466
1562.342234
1563.750394
1553.513295
1559.145934
1566.812583
1552.418059
1539.185827
1540.415173
1551.389879
1559.078879
1558.385975
1558.341272
1545.645481
1539.901083
1542.56094
1547.67949
1551.345176
1561.939903
1558.609493
1556.061394
1552.641577
1548.573559
1535.140161
1538.20235
1554.161495
1552.999205
1548.350042
1541.309242
1532.592062
1543.656176
1537.464742
1547.970062
1553.915626
1549.378222
1546.427792
1546.003109
1544.86317
1546.003109
1525.104228
1521.058562
1537.285928
1546.114867
1523.98664
1537.084763
1555.189676
1539.09642
1536.995356
1544.214969
1531.720344
1525.26069
1549.199408
1537.397687
1532.56971
1543.186789
1542.918568
1543.745583
1535.810713
1526.333574
1523.763123
1541.510408
1544.438487
1566.343196
1547.053641
1536.391859
1530.580405
1527.764085
1529.351059
1517.124655
1539.09642
1557.357795
1550.11583
1530.736867
1526.758257
1538.425867
1554.250902
1566.544362
1543.45501
1534.313146
1538.939957
1516.722324
1521.460893
1544.527894
1548.662966
1526.66885
1522.667888
1529.641632
1535.810713
1537.397687
1536.838894
1531.630937
1519.449236
1518.130483
1529.798094
1539.74462
1536.593024
1527.56292
1516.789379
1523.405495
1531.295661
1524.433675
1527.205292
1536.011879
1530.64746
1529.328707
1527.764085
1520.164492
1523.85253
1544.259673
1552.328652
1534.760181
1526.221815
1521.840873
1533.486132
1544.99728
1532.547359
1526.043001
1524.612489
1531.563882
1531.765048
1529.216949
1530.803923
1538.045888
1539.945786
1536.727135
1543.611472
1538.314109
1529.2393
1537.442391
1551.211065
1552.865094
1557.223684
1545.980757
1539.252882
1532.81558
1531.765048
1536.2801
1537.755315
1563.996263
1545.332556
1528.747562
1546.02546
1559.168286
1546.047812
1529.48517
1536.41421
1550.048774
1553.692109
1539.118771
1550.071126
1556.217856
1545.421963
1527.205292
1534.827237
1539.856379
1533.866112
1545.421963
1541.175132
1547.724193
1545.421963
1533.150856
1535.542492
1537.911777
1557.447202
1562.141068
1559.682376
1549.579388
1551.367527
1564.756222
1572.825202
1568.95835
1577.206144
1571.417042
1558.408327
1557.201333
1555.726118
1550.942844
1556.217856
1573.652217
1577.854345
1572.422871
1552.619225
1555.010862
1570.522972
1560.62115
1553.759164
1555.614359
1558.631844
1567.885467
1566.566714
1571.998188
1555.636711
1556.01669
1565.583237
1565.985568
1557.29074
1562.744565
1569.941827
1573.451051
1572.489926
1576.177964
1559.749432
1570.344158
1579.575429
1580.625961
1576.826164
1571.797022
1570.791193
1569.114813
1573.674568
1572.758147
1569.159516
1572.042891
1578.860173
1589.231383
1585.431586
1573.294589
1568.511315
1557.715423
1561.492868
1570.031234
1583.866964
1586.459766
1589.097272
1581.698845
1572.735795
1560.911722
1561.761089
1574.121603
1586.549173
1580.849478
1580.313036
1573.093423
1581.095348
1589.700769
1582.704673
1577.563772
1585.565696
1593.142938
1576.535592
1582.168231
1595.892202
1599.691999
1594.752263
1599.96022
1598.68617
1589.656066
1580.201278
1586.526821
1593.254697
1577.742586
1576.557943
1596.316886
1601.413083
1597.233307
1592.651199
1595.758092
1593.701731
1581.363568
1568.243094
1586.236249
1608.744455
1607.179833
1604.229403
1590.952467
1582.503507
1571.193525
1569.584199
1589.544307
1612.857176
1610.443188
1589.164327
1584.269295
1589.924287
1585.364531
1584.112833
1591.37715
1613.080694
1601.994229
1590.751301
1592.964124
1578.122566
1576.200315
1602.865947
1615.248813
1600.071979
1597.300362
1597.076845
1588.694941
1597.769749
1616.969897
1610.420836
1607.112778
1604.609383
1608.386828
1610.46554
1605.570508
1589.141976
1576.13326
1599.088502
1604.341162
1602.754188
1616.612269
1613.326563
1601.346028
1594.148766
1592.450034
1582.65997
1583.486984
1595.445167
1622.826054
1624.904767
1596.987438
1594.528746
1596.272182
1605.794025
1607.559813
1605.168176
1611.247851
1620.2109
1605.72697
1599.624944
1600.742531
1601.413083
1606.956316
1587.890278
1593.724083
1602.083636
1597.389769
1611.49372
1614.690019
1614.377095
1598.864984
1595.422816
1617.908671
1611.001982
1598.060322
1613.617136
1616.455807
1606.129301
1604.430569
1603.648258
1620.903804
1636.974709
1626.022354
1621.440246
1619.540348
1614.041819
1610.689057
1601.971877
1603.93883
1624.658897
1622.37902
1602.620077
1612.432493
1611.717237
1617.551043
1624.100104
1623.206034
1617.953374
1599.602592
1620.59088
1626.22352
1628.011659
1621.462598
1624.234214
1618.065133
1609.817339
1618.690982
1634.761886
1636.818246
1628.972784
1622.13315
1609.079732
1625.374153
1649.491686
1640.662747
1630.470351
1633.040802
1631.275014
1626.670554
1627.341107
1644.082563
1651.436287
1649.581093
1640.975671
1628.056363
1639.16518
1643.501418
1649.223465
1652.509171
1643.367308
1645.133095
1643.188494
1636.34886
1644.686061
1642.942624
1636.572377
1642.473238
1636.572377
1636.259453
1643.322604
1644.775467
1646.496552
1651.436287
1641.042726
1642.361479
1650.944549
1651.279825
1646.362441
1651.145715
1640.439229
1630.492703
1635.678307
1652.844447
1649.93872
1643.501418
1648.307043
1648.888188
1639.992194
1636.728839
1634.158389
1637.645261
1648.955244
1644.529598
1644.663709
1636.795895
1632.012621
1638.65109
1644.708412
1639.411049
1641.959148
1645.490723
1634.203092
1632.146732
1637.801723
1647.211808
1647.994119
1638.382869
1639.656918
1630.090371
1633.66665
1639.545159
1640.819209
1636.281805
1629.129246
1637.466447
1657.180686
1661.539276
1653.224427
1646.362441
1639.031069
1629.151598
1632.280842
1642.674404
1654.520828
1645.513075
1633.264319
1624.94947
1636.259453
1656.376023
1641.333299
1631.163255
1625.888243
1635.387735
1632.817284
1617.796912
1622.13315
1643.054383
1640.819209
1626.514092
1618.579223
1624.725953
1615.561737
1626.000002
1637.667613
1627.206996
1621.641412
1619.428589
1630.71622
1609.012676
1610.197319
1630.872682
1643.613177
1641.623872
1634.828941
1623.02722
1619.607403
1617.931022
1605.257583
1622.937813
1639.567511
1635.790066
1635.231273
1630.135075
1619.987383
1607.693923
1614.95824
1623.451903
1633.890168
1632.034973
1624.100104
1626.648203
1627.832845
1622.736647
1620.345011
1633.174912
1633.085505
1626.469389
1623.787179
1627.095238
1623.250738
1627.408162
1634.024278
1633.554892
1615.360572
1603.447092
1616.612269
1630.06802
1625.418857
1621.864929
1616.455807
1602.843595
1592.651199
1602.374208
1615.874662
1614.242985
1610.800816
1611.896051
1610.644354
1599.58024
1599.759054
1604.609383
1605.436397
1607.626868
1608.498586
1613.170101
1617.975726
1608.342124
1598.842633
1595.154595
1597.970915
1612.276031
1607.582165
1610.487891
1627.698735
1610.331429
1586.951505
1585.900973
1603.581202
1613.728894
1608.297421
1610.510243
1626.804665
1615.829958
1600.317848
1604.117644
1594.484042
1593.67938
1609.258546
1607.313944
1619.629755
1620.412066
1598.999095
1598.619115
1604.542327
1603.044761
1601.636601
1592.472385
1587.331484
1600.697827
1599.736702
1590.237211
1593.455862
1601.524842
1604.899955
1602.77654
1592.561792
1585.431586
1589.477252
1585.699807
1582.995246
1595.936906
1599.602592
1592.606496
1579.530725
1568.377205
1570.567676
1587.622057
1592.539441
1594.931077
1593.43351
1588.225554
1579.418967
1564.510353
1573.160478
1595.489871
1594.84167
1594.461691
1584.649275
1578.904877
1574.143955
1578.636656
1579.396615
1577.899048
1580.938885
1584.984551
1583.934019
1580.581257
1584.112833
1579.575429
1577.40731
1578.904877
1583.509336
1586.50447
1579.553077
1573.831031
1572.691092
1580.424795
1591.064226
1574.546286
1556.77665
1560.442336
1551.747507
1560.956426
1571.77467
1575.663874
1585.833917
1569.427737
1552.730984
1561.023481
1565.069147
1567.214914
1557.737775
1564.622112
1568.064281
1558.83301
1556.597836
1564.778574
1561.179943
1559.436507
1562.655158
1568.913647
1559.682376
1553.826219
1565.382071
1583.554039
1573.808679
1570.411214
1559.72708
1549.758202
1556.731946
1558.631844
1565.87381
1585.722159
1576.043853
1570.634731
1552.865094
1556.374318
1567.729004
1566.343196
1568.466612
1576.960275
1564.935036
1560.956426
1546.718365
1563.996263
1575.574467
1575.373301
1574.009845
1573.272237
1564.08567
1558.676548
1555.994339
1569.137164
1562.208123
1570.187696
1573.831031
1576.379129
1560.285873
1554.049737
1568.399557
1576.669702
1572.422871
1563.683339
1550.272292
1559.056528
1570.031234
1563.370414
1569.450089
1568.95835
1564.778574
1565.940865
1570.679435
1566.879638
1569.85242
1550.786382
1557.782478
1572.355815
1556.351966
1558.296568
1576.066205
1577.116737
1572.758147
1572.892257
1577.899048
1577.429661
1570.008882
1573.205182
1572.579333
1576.066205
1576.714406
1569.561847
1573.518106
1574.255714
1571.797022
1573.763975
1575.373301
1577.250847
1577.519068
1578.010807
1573.69692
1572.020539
1561.917551
1559.078879
1571.372339
1591.287743
1582.548211
1572.489926
1574.322769
1574.948618
1576.356778
1570.008882
1578.837821
1567.013749
1556.150801
1556.508429
1547.321862
1556.329615
1571.662911
1576.51324
1574.479231
1561.559923
1562.29753
1563.1916
1565.49383
1572.646388
1579.173098
1575.373301
1567.438432
1561.13524
1560.24117
1561.068185
1562.208123
1560.062356
1574.099252
1577.831993
1582.056473
1576.602647
1558.341272
1549.400574
1550.428754
1562.968083
1573.406347
1576.557943
1576.356778
1579.351911
1584.291647
1576.669702
1541.53276
1529.284004
1568.935999
1587.398539
1590.974819
1576.446185
1562.118716
1573.249885
1575.753281
1570.008882
1580.447147
1587.420891
1582.592914
1584.559868
1575.216839
1561.828144
1572.422871
1588.985513
1587.465595
1576.826164
1567.661949
1572.534629
1570.8806
1573.473403
1580.245981
1576.781461
1572.311112
1579.240153
1572.199353
1572.042891
1583.844612
1588.538478
1583.218763
1572.489926
1554.653234
1554.317958
1583.442281
1596.495699
1601.547194
1585.900973
1575.730929
1572.020539
1570.679435
1556.731946
1548.953539
1578.524897
1600.921345
1586.862098
1564.286836
1559.458859
1570.970007
1576.580295
1581.363568
1561.64933
1565.270312
1572.713443
1571.998188
1581.452975
1579.016635
1572.400519
1565.605589
1565.583237
1571.864077
1571.461746
1580.35774
1570.008882
1577.004978
1589.030217
1583.218763
1563.437469
1569.874772
1573.719272
1568.891295
1577.340254
1573.138127
1573.272237
1566.566714
1571.081766
1585.431586
1567.661949
1562.744565
1570.679435
1574.009845
1569.293626
1555.055565
1569.003054
1565.784403
1563.526876
1567.125507
1563.929208
1564.800926
1559.235341
1550.11583
1554.049737
1564.890333
1573.227533
1573.495754
1558.631844
1560.196466
1568.578371
1557.514257
1562.252827
1567.237266
1565.337368
1567.661949
1556.977815
1538.694088
1555.547304
1576.915571
1567.997225
1566.320844
1566.499658
1553.379184
1555.5026
1583.486984
1582.928191
1567.55019
1563.638635
1562.722214
1552.440411
1555.703766
1556.553132
1553.692109
1570.321807
1569.070109
1557.268388
1553.602702
1563.817449
1563.95156
1547.053641
1559.458859
1563.079842
1551.971025
1544.10321
1538.179998
1536.704783
1529.395763
1533.0838
1553.870923
1556.821353
1534.044925
1538.33646
1550.205237
1549.780554
1543.723231
1536.593024
1539.297585
1535.922472
1540.25871
1548.640615
1544.86317
1542.069202
1536.727135
1527.898196
1545.75724
1552.865094
1546.628958
1541.510408
1532.189731
1528.72521
1536.682431
1542.203312
1550.696975
1542.069202
1541.197484
1530.781571
1533.553187
1532.837931
1548.461801
1566.030272
1555.614359
1530.446295
1530.289832
1527.652327
1534.916643
1551.255769
1546.316033
1536.816542
1534.134332
1532.81558
1530.736867
1527.808789
1538.694088
1529.663984
1529.753391
1539.521103
1535.162513
1525.77478
1529.976908
1534.648423
1532.480303
1517.817559
1545.466667
1548.372394
1528.099361
1522.600832
1525.484207
1532.502655
1528.546396
1526.534739
1515.604736
1524.612489
1541.868036
1527.048829
1519.829216
1536.369507
1535.587196
1531.899158
1523.360792
1524.478379
1530.535702
1531.899158
1534.022574
1531.072143
1525.439504
1527.31705
1532.033268
1529.015783
1541.733926
1540.459876
1533.664946
1537.196521
1536.257748
1541.53276
1549.557036
1547.791248
1544.438487
1549.512333
1546.450144
1542.717402
1530.066315
1537.800019
1540.325766
1535.207216
1549.288815
1541.577463
1533.821408
1527.048829
1540.392821
1541.286891
1544.48319
1541.488056
1530.893329
1542.873865
1539.945786
1541.823333
1539.789324
1523.517254
1526.735905
1532.882635
1549.73585
1564.555057
1551.121658
1544.952577
1548.305338
1553.423888
1549.020594
1528.389934
1539.007013
1545.712536
1539.386992
1537.263577
1546.852475
1533.799056
1519.516292
1536.2801
1546.830123
1547.835952
1542.695051
1547.098344
1527.428809
1517.750504
1537.30828
1549.177056
1547.455972
1542.248016
1528.993431
1529.909853
1524.254861
1535.76601
1553.781516
1559.481211
1543.365603
1532.994393
1525.551263
1519.940975
1535.296623
1550.719327
1542.113905
1534.022574
1523.316088
1523.494902
1538.828199
1534.268443
1530.178074
1533.240263
1524.23251
1522.82435
1531.92151
1539.968138
1543.902045
1532.56971
1517.929318
1506.194652
1527.56292
1541.53276
1542.42683
1542.248016
1532.212082
1521.907928
1526.177111
1538.157646
1525.305393
1527.987603
1547.165399
1542.024498
1522.466722
1511.626126
1528.658155
1539.811676
1535.721306
1531.206254
1533.195559
1538.381164
1533.955518
1525.081876
1533.97787
1543.9691
1523.450199
1511.380257
1537.397687
1542.829161
1533.195559
1528.680507
1542.292719
1542.002146
1524.031344
1519.382181
1523.85253
1523.092571
1522.422018
1524.076047
1534.715478
1545.868998
1540.772801
1530.781571
1528.859321
1525.439504
1514.084818
1517.772855
1520.700934
1525.014821
1533.553187
1537.554149
1538.738792
1520.38801
1507.602812
1516.074123
1521.840873
1543.9691
1544.840818
1532.390896
1537.554149
1540.839856
1528.233472
1527.674678
1538.135295
1554.340309
1552.619225
1544.751411
1547.992414
1542.762106
1538.627033
1545.533722
1545.712536
1545.265501
1524.500731
1528.859321
1551.009899
1554.273254
1545.690184
1546.763068
1541.845684
1549.892312
1544.147914
1519.829216
1530.13337
1558.944769
1560.062356
1550.004071
1528.546396
1534.246091
1542.985623
1544.662004
1528.769914
1537.710612
1546.673661
1532.81558
1526.758257
1535.430734
1531.318013
1542.18096
1554.385013
1542.650347
1534.402553
1523.651364
1516.945841
1540.236359
1538.627033
1521.684411
1514.822425
1533.687298
1536.905949
1535.564844
1534.268443
1521.215024
1530.848626
1541.622167
1531.429771
1525.752428
1513.414265
1526.870015
1538.068239
1534.067277
1533.061449
1535.76601
1521.997335
1511.581422
1522.801998
1545.667833
1548.506504
1541.778629
1528.613452
1534.983699
1532.480303
1529.909853
1526.66885
1528.121713
1523.360792
1526.713553
1526.80296
1532.234434
1545.37726
1532.256786
1519.739809
1521.93028
1539.766972
1538.403516
1517.728152
1522.176149
1538.112943
1536.101286
1524.500731
1515.582385
1523.629013
1528.680507
1524.388972
1519.270422
1531.697992
1544.326728
1547.143048
1550.093478
1538.627033
1531.116847
1548.752373
1554.563827
1560.554094
1582.525859
1588.314961
1597.903859
1600.85429
1594.662856
1617.618098
1632.593767
1639.031069
1635.298328
1637.354688
1644.797819
1662.545104
1660.913427
1647.032994
1651.704508
1668.51302
1669.138869
1664.623817
1659.41586
1657.135982
1651.793915
1654.54318
1672.22341
1660.220523
1648.642319
1649.737555
1661.539276
1669.049462
1649.558741
1645.803648
1661.427517
1662.567456
1663.26036
1664.892037
1661.204
1653.626758
1645.691889
1653.850276
1657.515962
1658.52179
1671.955189
1670.748195
1674.726805
1659.92995
1648.351747
1654.207904
1649.849313
1646.965938
1665.584942
1664.780279
1647.74825
1645.803648
1670.748195
1670.658788
1666.411956
1660.779317
1651.995081
1650.139886
1648.77643
1660.82402
1676.984331
1659.840543
1651.72686
1657.247741
1658.924122
1655.95134
1658.342976
1669.5412
1658.410032
1658.097107
1664.489706
1658.208866
1642.517941
1661.673386
1663.103898
1666.501363
1655.772526
1657.426555
1657.650072
1660.086412
1672.402224
1660.645206
1640.483933
1652.10684
1674.391529
1667.238971
1649.692851
1644.55195
1667.909523
1675.710282
1670.278808
1652.442116
1650.363404
1660.622854
1671.396395
1659.214694
1653.537351
1664.556761
1657.426555
1655.705471
1659.907598
1659.773488
1661.539276
1658.745308
1661.114593
1664.065023
1667.10486
1667.86482
1660.600503
1659.03588
1665.450831
1662.098069
1655.884284
1663.059194
1658.365328
1657.538314
1663.349767
1661.651035
1657.851238
1654.945511
1669.272979
1672.513982
1657.3595
1657.672424
1645.602482
1641.08743
1649.178761
1649.491686
1652.75504
1638.695793
1629.129246
1623.4072
1614.578261
1598.842633
1602.821243
1598.574412
1604.542327
1601.435435
1581.38592
1568.44426
1559.123583
1558.475382
1568.243094
1572.378167
1564.488001
1555.457897
1548.685318
1546.740716
1547.567731
1548.104173
1557.380147
1541.689222
1534.134332
1553.178019
1558.117754
1537.375335
1533.195559
1541.644519
1540.951614
1532.904986
1541.53276
1549.378222
1552.485115
1546.941882
1533.597891
1524.344268
1539.901083
1553.826219
1540.325766
1529.2393
1527.384106
1532.189731
1536.168341
1533.642594
1530.938033
1540.817504
1544.550245
1542.248016
1530.848626
1511.201443
1530.468646
1546.673661
1535.095457
1533.150856
1536.637728
1539.454048
1536.436562
1527.249995
1528.814617
1530.111018
1533.955518
1541.286891
1538.783495
1531.742696
1534.067277
1527.160588
1517.526986
1536.704783
1541.957443
1541.577463
1528.322879
1531.809751
1539.163475
1525.953594
1516.096475
1529.663984
1542.449181
1536.570673
1527.026478
1520.186844
1516.409399
1524.254861
1530.803923
1537.263577
1535.587196
1529.149893
1520.879748
1521.41619
1524.098399
1520.097437
1525.864187
1529.127542
1530.178074
1534.49196
1529.842797
1520.097437
1518.510463
1520.343306
1516.029419
1539.521103
1545.287853
1523.964289
1518.175187
1523.517254
1524.701896
1530.781571
1526.624146
1519.181015
1530.625109
1546.02546
1535.587196
1520.00803
1517.19171
1517.079951
1523.85253
1539.252882
1552.596873
1548.059469
1533.799056
1533.307318
1530.558053
1528.412286
1525.528911
1518.421056
1537.934129
1542.113905
1530.111018
1526.735905
1525.148931
1516.81173
1520.969155
1527.272347
1532.145027
1533.821408
1541.15278
1541.577463
1526.713553
1524.836007
1540.236359
1540.1246
1538.291757
1539.297585
1530.736867
1534.044925
1538.33646
1543.387955
1542.002146
1534.246091
1531.250957
1536.637728
1540.906911
1541.219835
1536.883597
1529.507521
1533.46378
1532.122675
1528.121713
1531.630937
1540.348117
1543.991452
1541.800981
1526.959422
1515.850605
1519.918623
1540.392821
1540.146952
1536.637728
1529.172245
1516.185882
1526.825312
1538.291757
1538.068239
1533.0838
1537.352984
1531.429771
1526.043001
1518.510463
1532.748524
1549.020594
1539.521103
1523.651364
1530.602757
1526.266518
1540.862208
1555.547304
1549.579388
1530.870978
1524.456027
1521.617356
1520.499768
1539.588158
1545.980757
1534.402553
1523.181978
1519.985678
1524.523082
1546.718365
1541.353946
1532.212082
1533.374373
1515.492978
1518.845739
1549.691147
1544.259673
1530.558053
1521.5503
1531.183902
1536.66008
1529.820446
1528.188768
1525.3948
1527.875844
1531.787399
1535.408382
1544.214969
1548.215931
1535.162513
1528.054658
1534.603719
1530.446295
1515.917661
1536.704783
1533.195559
1535.564844
1550.987548
1531.519178
1529.954556
1539.74462
1532.748524
1523.204329
1575.596818
1575.820336
1509.88269
1425.013116
1456.551427
1529.529873
1546.159571
1575.708577
1540.079896
1543.611472
1572.646388
1496.069312
1486.301599
1567.304321
1537.241225
1487.106262
1533.396725
1566.656121
1518.666925
1506.462873
1521.729114
1521.505597
1521.058562
1541.353946
1515.425922
1515.515329
1535.922472
1535.050754
1539.141123
1445.867294
1461.893494
1654.051441
1611.292554
1470.342454
1476.0645
1527.406457
1528.099361
1498.438597
1515.716495
1550.674623
1524.545434
1502.752483
1524.098399
1501.143158
1491.196631
1510.106207
1439.050012
1530.625109
1579.955409
1408.249308
1436.636023
1520.611527
1536.257748
1488.983809
1288.063978
1398.638058
1744.821876
1595.579278
1465.246256
1453.399831
1480.15487
1542.851513
1526.624146
1382.187174
1538.671737
1600.317848
1460.261817
1508.049847
1531.92151
1525.730077
1500.427902
1435.652546
1447.253102
1594.238173
1559.570618
1556.374318
1477.360902
1455.277378
1474.991617
1472.845849
1551.6581
1566.499658
1487.754463
1517.772855
1449.153
1368.776127
1536.369507
1589.521955
1562.588103
1538.895254
1486.368655
1493.074178
1506.418169
1484.580515
1530.625109
1559.570618
1541.398649
1435.563139
1452.326948
1531.094495
1532.212082
1550.138181
1559.235341
1384.377645
1489.341437
1590.125452
1541.800981
1525.305393
1498.036265
1486.703931
1487.955628
1483.015893
1545.623129
1541.868036
1502.908945
1489.095567
1507.558108
1482.390044
1532.368545
1528.769914
1519.337478
1490.682541
1488.223849
1491.554259
1526.937071
1514.978887
1452.081079
1462.809916
1549.73585
1555.36849
1544.326728
1477.696178
1514.37539
1497.321009
1439.385288
1461.289997
1550.406402
1516.945841
1453.735108
1558.631844
1567.751356
1530.334536
1510.217966
1460.373576
1465.626236
1497.164547
1513.011934
1583.68815
1543.83499
1482.188878
1482.971189
1498.304486
1509.994448
1508.496882
1513.906004
1518.532815
1542.069202
1475.461003
1438.2677
1555.100269
1531.385068
1385.33877
1492.001294
1560.017653
1501.344323
1475.349245
1462.385233
1451.835209
1489.207326
1484.51346
1440.480523
1412.786712
1402.415502
1467.324968
1494.996428
1480.445442
1442.559235
1444.347375
1457.087869
1441.955738
1453.757459
1452.505762
1413.323154
1464.419241
1485.631047
1409.992744
1380.711958
1447.700137
1468.487259
1458.518381
1451.566988
1404.494215
1479.752538
1495.711684
1469.202515
1412.451436
1462.362881
1475.572762
1468.464907
1431.33866
1445.554369
1436.367802
1437.261872
1470.610675
1389.227973
1449.980015
1494.571745
1464.463945
1452.595169
1439.072363
1433.283261
1458.943064
1429.192892
1436.636023
1428.254119
1432.813875
1470.16364
1414.68661
1448.370689
1468.934294
1456.842
1446.85077
1451.656395
1395.397055
1405.723561
1507.647515
1490.995466
1461.401756
1406.461168
1389.451491
1451.321119
1441.531055
1428.120008
1412.674953
1463.324006
1469.381329
1501.612544
1488.112091
1388.780938
1372.15124
1471.907076
1494.527041
1468.956646
1405.678857
1384.109424
1428.321174
1475.259838
1482.144175
1444.481485
1402.214337
1399.621534
1442.268663
1452.461058
1441.84398
1413.010229
1461.759384
1434.154979
1463.50282
1417.033543
1425.951889
1454.472715
1474.946913
1430.44459
1373.984083
1437.597148
1465.693291
1486.05573
1488.000332
1486.033378
1440.726392
1405.723561
1457.803125
1539.342289
1499.489129
1469.13546
1463.279303
1497.343361
1509.927393
1481.674788
1503.132463
1521.349135
1486.368655
1473.874029
1486.256896
1490.41432
1500.293791
1509.435655
1494.303524
1441.799276
1447.007233
1538.828199
1543.857341
1469.493087
1477.427957
1466.006215
1439.206474
1522.44437
1531.742696
1518.957498
1495.488166
1468.88959
1484.424053
1484.871088
1453.466887
1456.730241
1502.014876
1544.10321
1508.876861
1435.361974
1503.557146
1534.35785
1480.736015
1457.132573
1496.42694
1499.287963
1496.114015
1495.197594
1494.6388
1507.58046
1468.062576
1498.61741
1489.162623
1495.15289
1474.097547
1476.31037
1498.751521
1482.457099
1485.295771
1475.528058
1483.686445
1480.445442
1521.505597
1504.652381
1472.510573
1465.737994
1468.062576
1516.655268
1515.604736
1516.699972
1484.826384
1469.560143
1449.28711
1478.165564
1484.893439
1509.167434
1506.932259
1490.011989
1459.501858
1512.45314
1490.168451
1463.033433
1496.583402
1525.3948
1511.916698
1421.168616
1469.64955
1495.734035
1513.257803
1462.742861
1471.013006
1522.153797
1487.933277
1496.672809
1490.503727
1483.641742
1469.895419
1474.589285
1493.990599
1498.505652
1496.829271
1508.161605
1485.474585
1444.660299
1491.107224
1462.005253
1475.259838
1535.184864
1500.047922
1497.097492
1443.185084
1460.731204
1483.909963
1508.340419
1489.095567
1486.413358
1505.479396
1473.248181
1415.647735
1479.2608
1534.313146
1516.767027
1499.645591
1473.739919
1402.974296
1474.544582
1537.68826
1515.045943
1485.362826
1448.840076
1447.387212
1510.352076
1524.433675
1509.569765
1480.512497
1462.586398
1487.821518
1524.187806
1547.165399
1509.860338
1448.12482
1484.736977
1526.020649
1555.144972
1496.359884
1475.237486
1479.529021
1546.651309
1532.904986
1514.867129
1508.161605
1530.356888
1519.829216
1514.867129
1517.281117
1500.629067
1510.597946
1513.816597
1499.623239
1510.665001
1504.808844
1528.434638
1553.468591
1564.197429
1524.903062
1503.691256
1479.238448
1500.070274
1530.200425
1556.53078
1534.089629
1502.394855
1487.150966
1530.334536
1532.234434
1475.259838
1497.544527
1522.95846
1530.021611
1498.058617
1499.444425
1538.448219
1534.603719
1519.516292
1474.790451
1527.652327
1543.902045
1493.677675
1473.784622
1487.910925
1485.184012
1552.641577
1534.447257
1499.89146
1517.124655
1528.233472
1520.231547
1490.727245
1506.574632
1509.770931
1505.814672
1511.983754
1525.595966
1514.353039
1504.339457
1487.262724
1507.245184
1514.263632
1500.673771
1531.340364
1521.595004
1510.91087
1485.608695
1543.991452
1532.525007
1510.776759
1499.779701
1525.506559
1526.981774
1510.91087
1475.237486
1495.175242
1526.490036
1536.41421
1511.112036
1490.056692
1517.147007
1504.719437
1485.809861
1529.060486
1485.988675
1497.879803
1555.212027
1543.700879
1478.992579
1444.034451
1518.063428
1525.931242
1513.682486
1491.464852
1526.020649
1532.681469
1506.753445
1532.010917
1511.067332
1489.319085
1523.85253
1493.118881
1505.367637
1492.783605
1460.574741
1532.346193
1551.412231
1463.771041
1486.770986
1547.880655
1474.00814
1491.800128
1536.41421
1511.80494
1470.990654
1514.688315
1535.520141
1493.409454
1505.010009
1509.659172
1495.868146
1505.5241
1492.314219
1495.108187
1536.548321
1515.314164
1534.49196
1493.856489
1451.008195
1480.132518
1541.242187
1564.59976
1480.065463
1434.065573
1479.663131
1516.454103
1531.139199
1513.369562
1529.328707
1485.653399
1516.655268
1509.145082
1498.326838
1529.954556
1469.761308
1500.606716
1511.179091
1516.476454
1500.383198
1493.677675
1503.288925
1486.323951
1502.774835
1482.501803
1447.275453
1482.166527
1537.844722
1473.806974
1456.171448
1493.454158
1466.96734
1419.55929
1522.511425
1542.896216
1517.258765
1442.805105
1453.131611
1454.204494
1469.023701
1498.595059
1457.266683
1423.78377
1463.793393
1509.12273
1499.287963
1469.046053
1461.71468
1503.512443
1463.12284
1480.221925
1505.635858
1452.952797
1483.306466
1493.007123
1446.359032
1499.936163
1496.292829
1492.180108
1476.57859
1477.092681
1434.624366
1459.434802
1456.46202
1484.580515
1499.802053
1494.862317
1522.734943
1476.153907
1420.095732
1404.69538
1495.622277
1533.016745
1510.665001
1375.369892
1490.146099
1525.081876
1504.831195
1454.226846
1428.410581
1498.148024
1515.917661
1472.287056
1464.307483
1436.636023
1449.376517
1463.346358
1487.97798
1525.752428
1520.969155
1451.321119
1416.251232
1478.612599
1488.961457
1524.076047
1465.179201
1402.147281
1436.367802
1539.431696
1548.685318
1454.159791
1417.905261
1476.086852
1505.300582
1455.43384
1474.745747
1486.212192
1499.556184
1428.052953
1429.483465
1555.100269
1498.572707
1477.740881
1505.65821
1499.51148
1473.024663
1440.927558
1486.391006
1539.141123
1468.666073
1493.252992
1486.234544
1469.806012
1522.869053
1511.648478
1530.982736
1507.692219
1476.690349
1510.039152
1481.83125
1437.686555
1471.169468
1507.379294
1479.529021
1495.801091
1469.627198
1482.345341
1520.499768
1495.063483
1499.355018
1514.688315
1508.98862
1459.948893
1482.07712
1482.054768
1506.529928
1469.26957
1449.041241
1519.538643
1491.487204
1456.596131
1481.719492
1508.228661
1507.021666
1493.476509
1478.769061
1433.39502
1522.846701
1529.261652
1492.738902
1492.470681
1494.191765
1474.745747
1481.205402
1452.326948
1503.35598
1539.990489
1441.464
1464.531
1525.864187
1491.666018
1476.153907
1462.966378
1528.680507
1547.746545
1512.251975
1507.334591
1453.913922
1488.939105
1535.38603
1491.464852
1437.440686
1488.112091
1519.382181
1508.027495
1514.576556
1476.355073
1479.529021
1535.341327
1511.447312
1496.784567
1528.456989
1500.226736
1443.654471
1464.821573
1524.634841
1523.785475
1526.557091
1560.554094
1481.428919
1353.889865
1476.82446
1577.586124
1547.120696
1521.595004
1487.888573
1475.438651
1433.886759
1500.852585
1564.376243
1481.227753
1451.276416
1528.613452
1524.545434
1519.851568
1536.168341
1450.427049
1460.373576
1486.815689
1508.206309
1506.775797
1472.041186
1450.203532
1510.374428
1528.680507
1521.192672
1483.440576
1496.538698
1414.776017
1496.091663
1589.365493
1527.965251
1447.521323
1427.516511
1504.76414
1524.992469
1461.289997
1460.999425
1516.230585
1517.0576
1531.653289
1488.425015
1440.793448
1440.94991
1541.175132
1543.298548
1510.0168
1492.738902
1501.344323
1469.224867
1465.961512
1487.821518
1491.889535
1518.868091
1546.561902
1497.924506
1469.247218
1469.157811
1523.561957
1514.822425
1493.632971
1475.975093
1483.060596
1534.559016
1489.944934
1476.243314
1522.086742
1521.237376
1475.103375
1515.984716
1517.7058
1527.004126
1506.03819
1492.738902
1520.298603
1511.916698
1499.466777
1533.128504
1460.753555
1431.495122
1548.551208
1551.121658
1521.684411
1509.681524
1458.451326
1458.987768
1533.97787
1560.688205
1532.145027
1518.823387
1432.009212
1475.572762
1561.090536
1540.839856
1506.239355
1461.938198
1472.376463
1529.731039
1539.141123
1536.481266
1474.812803
1436.72543
1487.665056
1482.010064
1542.203312
1602.217746
1525.417152
1500.047922
1483.395873
1435.205511
1472.778794
1523.070219
1543.07503
